# SAXS profile: number of points = 501, q_min = 0, q_max = 0.5, delta_q = 0.001
#    q    intensity 
0.00000    162231024.00000000 101201696.00000000 256269968.00000000 104358.57031250 8229456.50000000 6499608.50000000 
0.00100    162199824.00000000 101179240.00000000 256213456.00000000 104326.93750000 8227334.00000000 6497901.50000000 
0.00200    162097344.00000000 101113944.00000000 256048048.00000000 104235.89843750 8220955.50000000 6492911.00000000 
0.00300    161923760.00000000 101003824.00000000 255766576.00000000 104084.95312500 8210295.50000000 6484620.00000000 
0.00400    161673488.00000000 100850336.00000000 255373904.00000000 103872.57031250 8195517.00000000 6472952.50000000 
0.00500    161350272.00000000 100653448.00000000 254872032.00000000 103600.40625000 8176505.50000000 6458029.00000000 
0.00600    160958096.00000000 100410784.00000000 254257952.00000000 103269.71093750 8153380.00000000 6439796.00000000 
0.00700    160495760.00000000 100128832.00000000 253537504.00000000 102879.57812500 8126049.00000000 6418399.50000000 
0.00800    159961680.00000000 99803576.00000000 252705248.00000000 102432.35156250 8094733.50000000 6393745.00000000 
0.00900    159362160.00000000 99436680.00000000 251767696.00000000 101928.12500000 8059334.00000000 6366043.00000000 
0.01000    158699408.00000000 99028472.00000000 250726496.00000000 101367.86718750 8020090.50000000 6335191.00000000 
0.01100    157971344.00000000 98579256.00000000 249579408.00000000 100752.21875000 7976938.50000000 6301267.00000000 
0.01200    157175024.00000000 98089192.00000000 248328976.00000000 100082.96875000 7929958.50000000 6264366.00000000 
0.01300    156312112.00000000 97560360.00000000 246980160.00000000 99362.17968750  7879310.50000000 6224534.00000000 
0.01400    155388736.00000000 96992528.00000000 245534608.00000000 98590.89843750  7824976.00000000 6181879.50000000 
0.01500    154406592.00000000 96387648.00000000 243991232.00000000 97768.85937500  7767144.50000000 6136436.50000000 
0.01600    153364144.00000000 95746776.00000000 242354320.00000000 96899.32812500  7705868.50000000 6088300.50000000 
0.01700    152261008.00000000 95069216.00000000 240626976.00000000 95984.08593750  7641293.00000000 6037579.00000000 
0.01800    151103360.00000000 94356600.00000000 238810704.00000000 95024.58593750  7573523.00000000 5984284.00000000 
0.01900    149892128.00000000 93611360.00000000 236908592.00000000 94022.16406250  7502613.00000000 5928612.00000000 
0.02000    148625840.00000000 92832176.00000000 234923456.00000000 92979.11718750  7428785.50000000 5870530.00000000 
0.02100    147310576.00000000 92023088.00000000 232858784.00000000 91896.79687500  7352030.00000000 5810214.00000000 
0.02200    145945216.00000000 91182728.00000000 230714080.00000000 90778.82812500  7272551.00000000 5747768.50000000 
0.02300    144531696.00000000 90312488.00000000 228497456.00000000 89625.95312500  7190555.50000000 5683259.50000000 
0.02400    143074000.00000000 89414712.00000000 226211280.00000000 88439.25000000  7106022.00000000 5616804.00000000 
0.02500    141573840.00000000 88490704.00000000 223856112.00000000 87222.69531250  7019225.00000000 5548546.50000000 
0.02600    140032048.00000000 87541672.00000000 221437040.00000000 85977.55468750  6930173.50000000 5478549.00000000 
0.02700    138453024.00000000 86566800.00000000 218954304.00000000 84706.23437500  6839062.00000000 5406953.00000000 
0.02800    136834528.00000000 85570480.00000000 216417248.00000000 83411.34375000  6746126.50000000 5333814.50000000 
0.02900    135183104.00000000 84552360.00000000 213824624.00000000 82093.45312500  6651408.50000000 5259351.50000000 
0.03000    133500992.00000000 83515272.00000000 211178720.00000000 80756.17968750  6555075.50000000 5183542.50000000 
0.03100    131788088.00000000 82458224.00000000 208488768.00000000 79401.43750000  6457235.00000000 5106578.00000000 
0.03200    130047656.00000000 81382904.00000000 205752816.00000000 78031.27343750  6358096.50000000 5028555.00000000 
0.03300    128281512.00000000 80292792.00000000 202978832.00000000 76647.93750000  6257755.00000000 4949580.00000000 
0.03400    126492064.00000000 79188928.00000000 200166208.00000000 75253.06250000  6156354.50000000 4869776.00000000 
0.03500    124682408.00000000 78071248.00000000 197322272.00000000 73849.12500000  6054095.00000000 4789340.00000000 
0.03600    122853776.00000000 76941992.00000000 194448736.00000000 72438.92968750  5951055.00000000 4708247.50000000 
0.03700    121008768.00000000 75802856.00000000 191546640.00000000 71023.03906250  5847376.50000000 4626645.00000000 
0.03800    119149576.00000000 74653264.00000000 188623664.00000000 69604.53906250  5743199.50000000 4544654.50000000 
0.03900    117279360.00000000 73496568.00000000 185680800.00000000 68185.19531250  5638743.00000000 4462356.00000000 
0.04000    115398320.00000000 72333320.00000000 182722448.00000000 66766.03125000  5533992.00000000 4379858.50000000 
0.04100    113510128.00000000 71164504.00000000 179751152.00000000 65349.63671875  5429180.00000000 4297303.50000000 
0.04200    111616160.00000000 69992064.00000000 176772720.00000000 63938.04687500  5324395.00000000 4214767.00000000 
0.04300    109720000.00000000 68817728.00000000 173785840.00000000 62532.38281250  5219762.00000000 4132294.50000000 
0.04400    107820720.00000000 67642240.00000000 170798448.00000000 61134.52343750  5115426.50000000 4050063.50000000 
0.04500    105923896.00000000 66465520.00000000 167810128.00000000 59745.90234375  5011448.00000000 3968127.75000000 
0.04600    104028808.00000000 65290580.00000000 164824608.00000000 58368.65234375  4907934.00000000 3886568.00000000 
0.04700    102138160.00000000 64118496.00000000 161847136.00000000 57003.55078125  4805076.50000000 3805491.75000000 
0.04800    100253176.00000000 62949588.00000000 158878880.00000000 55652.12109375  4702898.50000000 3724941.50000000 
0.04900    98376928.00000000 61785020.00000000 155924016.00000000 54315.86328125  4601543.00000000 3645008.00000000 
0.05000    96510848.00000000 60626472.00000000 152981040.00000000 52995.38281250  4501066.50000000 3565791.75000000 
0.05100    94655552.00000000 59474232.00000000 150056864.00000000 51692.66796875  4401641.50000000 3487350.50000000 
0.05200    92813488.00000000 58329956.00000000 147153296.00000000 50408.14062500  4303279.00000000 3409727.75000000 
0.05300    90986416.00000000 57194076.00000000 144271968.00000000 49142.73828125  4206008.00000000 3333009.75000000 
0.05400    89174784.00000000 56067600.00000000 141414928.00000000 47897.89843750  4110013.75000000 3257222.75000000 
0.05500    87380408.00000000 54951504.00000000 138584864.00000000 46673.99218750  4015291.00000000 3182478.00000000 
0.05600    85605160.00000000 53846748.00000000 135784640.00000000 45471.83203125  3921947.25000000 3108760.75000000 
0.05700    83849408.00000000 52754240.00000000 133014824.00000000 44292.31250000  3829995.50000000 3036176.00000000 
0.05800    82115640.00000000 51674580.00000000 130278376.00000000 43135.37500000  3739518.75000000 2964732.50000000 
0.05900    80403480.00000000 50608092.00000000 127575608.00000000 42002.73828125  3650581.50000000 2894470.00000000 
0.06000    78715584.00000000 49556144.00000000 124909816.00000000 40893.39453125  3563181.75000000 2825448.00000000 
0.06100    77051440.00000000 48518704.00000000 122282376.00000000 39808.46484375  3477399.50000000 2757688.75000000 
0.06200    75411912.00000000 47496752.00000000 119693920.00000000 38748.07421875  3393267.25000000 2691177.00000000 
0.06300    73800120.00000000 46490360.00000000 117146152.00000000 37712.52734375  3310773.25000000 2626039.25000000 
0.06400    72213496.00000000 45500708.00000000 114639936.00000000 36701.87500000  3229997.25000000 2562177.25000000 
0.06500    70654984.00000000 44527768.00000000 112177208.00000000 35716.19921875  3150940.75000000 2499666.50000000 
0.06600    69125440.00000000 43572204.00000000 109758624.00000000 34755.74218750  3073606.75000000 2438537.50000000 
0.06700    67623568.00000000 42633740.00000000 107384704.00000000 33820.15625000  2998029.75000000 2378761.25000000 
0.06800    66150516.00000000 41713740.00000000 105055904.00000000 32909.25781250  2924200.00000000 2320371.75000000 
0.06900    64707136.00000000 40811128.00000000 102773760.00000000 32023.34960938  2852131.50000000 2263371.25000000 
0.07000    63294296.00000000 39927384.00000000 100539104.00000000 31161.89062500  2781816.25000000 2207732.75000000 
0.07100    61911000.00000000 39062428.00000000 98350880.00000000 30324.77539062  2713238.75000000 2153516.50000000 
0.07200    60558588.00000000 38215712.00000000 96211480.00000000 29511.79101562  2646432.75000000 2100629.25000000 
0.07300    59236364.00000000 37388924.00000000 94119232.00000000 28722.45507812  2581359.00000000 2049125.00000000 
0.07400    57945200.00000000 36580320.00000000 92076552.00000000 27956.49023438  2518043.50000000 1998994.87500000 
0.07500    56684224.00000000 35791008.00000000 90081120.00000000 27213.57617188  2456394.25000000 1950213.25000000 
0.07600    55454168.00000000 35020672.00000000 88133896.00000000 26493.14843750  2396462.75000000 1902769.62500000 
0.07700    54255132.00000000 34269112.00000000 86235488.00000000 25794.80664062  2338194.25000000 1856646.37500000 
0.07800    53085996.00000000 33536990.00000000 84385832.00000000 25117.89453125  2281588.00000000 1811808.75000000 
0.07900    51947864.00000000 32824026.00000000 82583800.00000000 24462.41015625  2226629.50000000 1768262.12500000 
0.08000    50839716.00000000 32129566.00000000 80828560.00000000 23827.51757812  2173217.00000000 1725978.00000000 
0.08100    49761772.00000000 31453842.00000000 79120592.00000000 23212.35742188  2121396.00000000 1684931.00000000 
0.08200    48712968.00000000 30796436.00000000 77460536.00000000 22616.82031250  2071101.25000000 1645093.62500000 
0.08300    47693444.00000000 30157532.00000000 75846760.00000000 22040.22070312  2022327.50000000 1606460.87500000 
0.08400    46703220.00000000 29536598.00000000 74277704.00000000 21482.30273438  1975013.12500000 1568978.00000000 
0.08500    45741324.00000000 28933570.00000000 72754792.00000000 20941.94140625  1929145.75000000 1532629.25000000 
0.08600    44807388.00000000 28348374.00000000 71276184.00000000 20418.96679688  1884668.75000000 1497382.50000000 
0.08700    43901532.00000000 27780588.00000000 69841184.00000000 19912.59960938  1841564.75000000 1463222.87500000 
0.08800    43022616.00000000 27229570.00000000 68449896.00000000 19422.40429688  1799763.87500000 1430109.25000000 
0.08900    42170336.00000000 26695504.00000000 67100180.00000000 18947.76562500  1759279.25000000 1398020.50000000 
0.09000    41343968.00000000 26177828.00000000 65792336.00000000 18488.27929688  1720028.62500000 1366916.00000000 
0.09100    40543272.00000000 25676410.00000000 64525012.00000000 18042.90429688  1681983.87500000 1336767.25000000 
0.09200    39767380.00000000 25190502.00000000 63296908.00000000 17611.46289062  1645112.37500000 1307546.12500000 
0.09300    39016188.00000000 24720166.00000000 62108232.00000000 17193.87304688  1609383.37500000 1279221.00000000 
0.09400    38288904.00000000 24264568.00000000 60956240.00000000 16788.65039062  1574745.25000000 1251766.87500000 
0.09500    37584536.00000000 23823934.00000000 59841668.00000000 16395.71093750  1541160.50000000 1225162.00000000 
0.09600    36902452.00000000 23397480.00000000 58763124.00000000 16014.82519531  1508584.00000000 1199348.87500000 
0.09700    36242524.00000000 22984654.00000000 57719412.00000000 15645.20214844  1477000.50000000 1174315.37500000 
0.09800    35603852.00000000 22585718.00000000 56708984.00000000 15286.46582031  1446366.25000000 1150032.25000000 
0.09900    34985568.00000000 22199484.00000000 55732008.00000000 14938.19921875  1416634.00000000 1126471.37500000 
0.10000    34387292.00000000 21825820.00000000 54786396.00000000 14599.90039062  1387766.12500000 1103599.87500000 
0.10100    33808188.00000000 21464618.00000000 53871404.00000000 14271.07617188  1359735.25000000 1081389.62500000 
0.10200    33247854.00000000 21115256.00000000 52986584.00000000 13951.52343750  1332518.12500000 1059818.25000000 
0.10300    32705602.00000000 20777158.00000000 52129700.00000000 13640.76562500  1306064.25000000 1038843.93750000 
0.10400    32180250.00000000 20450096.00000000 51300676.00000000 13338.40234375  1280336.62500000 1018461.31250000 
0.10500    31671934.00000000 20133692.00000000 50498472.00000000 13044.10839844  1255332.62500000 998641.25000000 
0.10600    31179384.00000000 19827296.00000000 49721176.00000000 12757.40722656  1230975.87500000 979342.43750000 
0.10700    30702240.00000000 19530758.00000000 48968836.00000000 12478.14160156  1207279.00000000 960556.56250000 
0.10800    30239680.00000000 19243528.00000000 48239824.00000000 12205.92675781  1184188.00000000 942261.37500000 
0.10900    29791658.00000000 18965328.00000000 47533064.00000000 11940.58105469  1161686.25000000 924430.75000000 
0.11000    29356792.00000000 18695520.00000000 46847872.00000000 11681.68945312  1139752.00000000 907043.68750000 
0.11100    28934716.00000000 18434098.00000000 46183416.00000000 11429.17285156  1118345.50000000 890072.00000000 
0.11200    28525188.00000000 18180298.00000000 45538572.00000000 11182.51855469  1097439.50000000 873511.75000000 
0.11300    28127140.00000000 17934040.00000000 44912108.00000000 10941.70214844  1077029.37500000 857326.50000000 
0.11400    27740224.00000000 17694958.00000000 44303320.00000000 10706.45898438  1057087.50000000 841513.62500000 
0.11500    27364118.00000000 17462640.00000000 43711880.00000000 10476.52539062  1037571.06250000 826046.25000000 
0.11600    26997866.00000000 17236440.00000000 43136124.00000000 10251.76269531  1018483.00000000 810909.75000000 
0.11700    26641146.00000000 17016140.00000000 42575664.00000000 10032.06640625  999791.75000000 796088.00000000 
0.11800    26293334.00000000 16801956.00000000 42029080.00000000 9816.95605469   981481.25000000 781569.12500000 
0.11900    25954222.00000000 16592774.00000000 41496452.00000000 9606.63085938   963527.81250000 767341.81250000 
0.12000    25622938.00000000 16388692.00000000 40975904.00000000 9400.77832031   945934.93750000 753373.43750000 
0.12100    25299252.00000000 16189530.00000000 40468012.00000000 9199.21191406   928662.81250000 739677.18750000 
0.12200    24982722.00000000 15994694.00000000 39971180.00000000 9001.84472656   911708.56250000 726226.50000000 
0.12300    24672714.00000000 15804071.00000000 39484400.00000000 8808.53125000   895055.12500000 713010.56250000 
0.12400    24369116.00000000 15617332.00000000 39008132.00000000 8619.17968750   878692.43750000 700027.06250000 
0.12500    24071048.00000000 15434155.00000000 38540700.00000000 8433.57421875   862595.62500000 687246.62500000 
0.12600    23778856.00000000 15254302.00000000 38081740.00000000 8251.83398438   846775.06250000 674683.75000000 
0.12700    23491346.00000000 15077648.00000000 37631016.00000000 8073.61132812   831202.31250000 662318.00000000 
0.12800    23208896.00000000 14903978.00000000 37187360.00000000 7898.94531250   815860.00000000 650138.87500000 
0.12900    22930622.00000000 14732958.00000000 36751076.00000000 7727.65966797   800760.25000000 638141.06250000 
0.13000    22656378.00000000 14564387.00000000 36321020.00000000 7559.77978516   785879.50000000 626315.93750000 
0.13100    22386080.00000000 14398010.00000000 35896344.00000000 7395.06787109   771218.81250000 614658.37500000 
0.13200    22119100.00000000 14233742.00000000 35477480.00000000 7233.50683594   756755.87500000 603165.43750000 
0.13300    21855264.00000000 14071467.00000000 35063404.00000000 7075.08203125   742501.75000000 591830.75000000 
0.13400    21594558.00000000 13910818.00000000 34654012.00000000 6919.63183594   728431.87500000 580637.50000000 
0.13500    21336382.00000000 13751782.00000000 34248764.00000000 6767.16455078   714546.00000000 569592.93750000 
0.13600    21080996.00000000 13594107.00000000 33846768.00000000 6617.54296875   700839.43750000 558695.50000000 
0.13700    20827694.00000000 13437776.00000000 33448476.00000000 6470.75439453   687316.50000000 547933.31250000 
0.13800    20576154.00000000 13282667.00000000 33053660.00000000 6326.57910156   673960.56250000 537297.50000000 
0.13900    20327132.00000000 13128499.00000000 32661434.00000000 6185.22119141   660767.93750000 526794.87500000 
0.14000    20079506.00000000 12975221.00000000 32271536.00000000 6046.39404297   647741.12500000 516419.06250000 
0.14100    19833354.00000000 12822829.00000000 31884122.00000000 5910.23388672   634870.37500000 506169.93750000 
0.14200    19588842.00000000 12671173.00000000 31499088.00000000 5776.45556641   622154.25000000 496037.34375000 
0.14300    19345662.00000000 12520244.00000000 31115726.00000000 5645.25195312   609592.37500000 486029.59375000 
0.14400    19103492.00000000 12369689.00000000 30733538.00000000 5516.31201172   597180.31250000 476134.43750000 
0.14500    18862578.00000000 12219804.00000000 30353528.00000000 5389.83349609   584918.62500000 466357.87500000 
0.14600    18622542.00000000 12070444.00000000 29974634.00000000 5265.65625000   572799.00000000 456699.15625000 
0.14700    18383688.00000000 11921409.00000000 29597160.00000000 5143.74707031   560827.87500000 447147.40625000 
0.14800    18145390.00000000 11772651.00000000 29220616.00000000 5024.06933594   548997.56250000 437711.81250000 
0.14900    17908252.00000000 11624214.00000000 28845138.00000000 4906.57421875   537310.00000000 428386.28125000 
0.15000    17671498.00000000 11476215.00000000 28470892.00000000 4791.20263672   525763.18750000 419169.84375000 
0.15100    17435884.00000000 11328381.00000000 28097476.00000000 4677.99658203   514360.46875000 410066.40625000 
0.15200    17200828.00000000 11180902.00000000 27725018.00000000 4566.92675781   503099.00000000 401076.12500000 
0.15300    16966712.00000000 11033729.00000000 27353502.00000000 4457.89648438   491977.00000000 392194.75000000 
0.15400    16732960.00000000 10886565.00000000 26982828.00000000 4350.81689453   480989.90625000 383422.25000000 
0.15500    16500414.00000000 10739865.00000000 26612978.00000000 4245.87890625   470153.18750000 374761.31250000 
0.15600    16268244.00000000 10593361.00000000 26244038.00000000 4142.84375000   459449.03125000 366211.90625000 
0.15700    16036926.00000000 10447162.00000000 25876462.00000000 4041.86328125   448890.25000000 357774.43750000 
0.15800    15806359.00000000 10301243.00000000 25509596.00000000 3942.73974609   438477.15625000 349446.59375000 
0.15900    15576635.00000000 10155642.00000000 25143878.00000000 3845.61596680   428202.21875000 341235.93750000 
0.16000    15347643.00000000 10010474.00000000 24779040.00000000 3750.41015625   418074.93750000 333135.00000000 
0.16100    15119841.00000000 9865630.00000000 24415678.00000000 3657.16796875   408094.84375000 325152.00000000 
0.16200    14892855.00000000 9721225.00000000 24053546.00000000 3565.80712891   398258.84375000 317282.40625000 
0.16300    14666915.00000000 9577174.00000000 23692810.00000000 3476.33886719   388568.65625000 309528.53125000 
0.16400    14441924.00000000 9433791.00000000 23333648.00000000 3388.79492188   379032.31250000 301893.06250000 
0.16500    14218159.00000000 9290843.00000000 22975844.00000000 3303.14135742   369643.43750000 294378.21875000 
0.16600    13995613.00000000 9148437.00000000 22620052.00000000 3219.36010742   360407.59375000 286980.90625000 
0.16700    13774250.00000000 9006752.00000000 22265722.00000000 3137.49877930   351321.84375000 279701.03125000 
0.16800    13554323.00000000 8865783.00000000 21913440.00000000 3057.48388672   342386.59375000 272544.62500000 
0.16900    13335874.00000000 8725557.00000000 21563452.00000000 2979.40429688   333616.96875000 265512.90625000 
0.17000    13118892.00000000 8586061.00000000 21215512.00000000 2903.21118164   324997.43750000 258604.15625000 
