# SAXS profile: number of points = 501, q_min = 0, q_max = 0.5, delta_q = 0.001
#    q    intensity 
0.00000    162232832.00000000 101202560.00000000 256270464.00000000 116826.80468750 8707257.00000000 6876927.50000000 
0.00100    162198128.00000000 101178568.00000000 256209568.00000000 116789.85156250 8704855.00000000 6875051.50000000 
0.00200    162089600.00000000 101108256.00000000 256033408.00000000 116678.68750000 8697586.00000000 6869335.50000000 
0.00300    161903584.00000000 100991632.00000000 255735552.00000000 116494.07031250 8685463.00000000 6859842.50000000 
0.00400    161638384.00000000 100828120.00000000 255319120.00000000 116236.53906250 8668646.00000000 6846625.00000000 
0.00500    161295520.00000000 100618216.00000000 254784608.00000000 115905.90625000 8647031.00000000 6829605.00000000 
0.00600    160879392.00000000 100361200.00000000 254132448.00000000 115503.62500000 8620671.00000000 6808938.50000000 
0.00700    160387088.00000000 100060584.00000000 253366848.00000000 115031.25000000 8589720.00000000 6784574.50000000 
0.00800    159820784.00000000 99715496.00000000 252484432.00000000 114487.87500000 8554136.00000000 6756575.00000000 
0.00900    159187424.00000000 99326352.00000000 251487680.00000000 113875.16406250 8513914.00000000 6725058.50000000 
0.01000    158484320.00000000 98892768.00000000 250382000.00000000 113195.70312500 8469302.00000000 6690011.00000000 
0.01100    157712928.00000000 98414824.00000000 249167600.00000000 112450.96875000 8420399.00000000 6651486.00000000 
0.01200    156867664.00000000 97896104.00000000 247842624.00000000 111641.17968750 8367135.50000000 6609658.50000000 
0.01300    155955296.00000000 97334944.00000000 246413904.00000000 110769.01562500 8309718.50000000 6564522.50000000 
0.01400    154978832.00000000 96732952.00000000 244881824.00000000 109836.05468750 8248285.00000000 6516204.00000000 
0.01500    153938976.00000000 96092520.00000000 243247264.00000000 108844.32812500 8182817.00000000 6464770.50000000 
0.01600    152836688.00000000 95413752.00000000 241517008.00000000 107795.96093750 8113582.50000000 6410330.00000000 
0.01700    151672656.00000000 94697224.00000000 239691504.00000000 106693.38281250 8040668.50000000 6352933.50000000 
0.01800    150451120.00000000 93944312.00000000 237772000.00000000 105538.96875000 7964127.50000000 6292830.50000000 
0.01900    149172288.00000000 93156424.00000000 235765184.00000000 104334.87500000 7884188.00000000 6229991.50000000 
0.02000    147837936.00000000 92334728.00000000 233671472.00000000 103083.89062500 7801041.00000000 6164545.50000000 
0.02100    146451568.00000000 91480192.00000000 231494560.00000000 101786.42187500 7714727.00000000 6096685.00000000 
0.02200    145015216.00000000 90594728.00000000 229237040.00000000 100448.38281250 7625440.00000000 6026425.50000000 
0.02300    143529856.00000000 89678760.00000000 226904432.00000000 99070.56250000  7533416.50000000 5954036.50000000 
0.02400    141998416.00000000 88734672.00000000 224500176.00000000 97656.56250000  7438679.00000000 5879553.00000000 
0.02500    140425232.00000000 87763168.00000000 222027248.00000000 96208.35937500  7341446.00000000 5803081.00000000 
0.02600    138808976.00000000 86766144.00000000 219488160.00000000 94728.60156250  7241982.00000000 5724772.50000000 
0.02700    137153232.00000000 85745112.00000000 216888832.00000000 93221.21093750  7140292.00000000 5644771.50000000 
0.02800    135462144.00000000 84700216.00000000 214231200.00000000 91687.13281250  7036697.50000000 5563227.00000000 
0.02900    133736688.00000000 83635592.00000000 211519952.00000000 90130.74218750  6931234.50000000 5480232.50000000 
0.03000    131980056.00000000 82550984.00000000 208758976.00000000 88553.81250000  6824201.50000000 5395996.50000000 
0.03100    130195104.00000000 81447216.00000000 205951200.00000000 86960.53125000  6715686.50000000 5310575.50000000 
0.03200    128382248.00000000 80327376.00000000 203101680.00000000 85352.62500000  6605892.50000000 5224156.00000000 
0.03300    126546880.00000000 79192280.00000000 200213776.00000000 83732.10156250  6494963.50000000 5136798.50000000 
0.03400    124688152.00000000 78045128.00000000 197292592.00000000 82102.78906250  6383092.00000000 5048729.50000000 
0.03500    122811896.00000000 76883856.00000000 194341760.00000000 80467.03906250  6270432.00000000 4960003.50000000 
0.03600    120918240.00000000 75713704.00000000 191362736.00000000 78827.71093750  6157194.50000000 4870819.50000000 
0.03700    119010952.00000000 74532856.00000000 188361392.00000000 77186.56250000  6043493.00000000 4781256.50000000 
0.03800    117091984.00000000 73344584.00000000 185341664.00000000 75545.90625000  5929473.00000000 4691434.00000000 
0.03900    115163128.00000000 72150704.00000000 182305360.00000000 73909.81250000  5815293.00000000 4601501.50000000 
0.04000    113228200.00000000 70951256.00000000 179258768.00000000 72277.89843750  5701105.50000000 4511526.00000000 
0.04100    111287848.00000000 69749408.00000000 176205136.00000000 70654.73437500  5587120.00000000 4421665.50000000 
0.04200    109345112.00000000 68545216.00000000 173147408.00000000 69041.28906250  5473420.50000000 4332020.50000000 
0.04300    107402776.00000000 67341184.00000000 170087136.00000000 67439.55468750  5360142.50000000 4242736.50000000 
0.04400    105461808.00000000 66137436.00000000 167030512.00000000 65852.12500000  5247397.00000000 4153870.00000000 
0.04500    103525232.00000000 64936268.00000000 163979648.00000000 64280.23828125  5135441.50000000 4065559.75000000 
0.04600    101594672.00000000 63738096.00000000 160938144.00000000 62725.04296875  5024208.50000000 3977888.50000000 
0.04700    99672624.00000000 62544736.00000000 157908304.00000000 61189.64062500  4913995.00000000 3890918.50000000 
0.04800    97760880.00000000 61357252.00000000 154895200.00000000 59674.71093750  4804735.00000000 3804754.00000000 
0.04900    95859864.00000000 60176720.00000000 151899376.00000000 58181.60156250  4696719.00000000 3719523.75000000 
0.05000    93974040.00000000 59004172.00000000 148924032.00000000 56712.29296875  4589921.00000000 3635263.25000000 
0.05100    92102160.00000000 57841212.00000000 145975232.00000000 55266.69140625  4484411.50000000 3552019.25000000 
0.05200    90247288.00000000 56687980.00000000 143048976.00000000 53846.74218750  4380391.00000000 3469911.50000000 
0.05300    88411688.00000000 55545824.00000000 140153072.00000000 52454.03125000  4277898.50000000 3389002.00000000 
0.05400    86595832.00000000 54415728.00000000 137288928.00000000 51088.22265625  4176933.75000000 3309334.25000000 
0.05500    84801960.00000000 53298832.00000000 134457760.00000000 49750.28906250  4077632.50000000 3230939.50000000 
0.05600    83030176.00000000 52195260.00000000 131661264.00000000 48441.09765625  3980113.50000000 3153879.00000000 
0.05700    81281480.00000000 51106624.00000000 128901632.00000000 47161.40625000  3884308.75000000 3078237.00000000 
0.05800    79558704.00000000 50033256.00000000 126181152.00000000 45911.19531250  3790338.75000000 3004002.00000000 
0.05900    77861472.00000000 48975660.00000000 123501768.00000000 44691.14453125  3698229.50000000 2931245.75000000 
0.06000    76191800.00000000 47934416.00000000 120865384.00000000 43501.58593750  3608000.75000000 2859984.25000000 
0.06100    74549720.00000000 46910264.00000000 118271496.00000000 42342.11328125  3519741.00000000 2790213.50000000 
0.06200    72936504.00000000 45903544.00000000 115722248.00000000 41213.51562500  3433389.50000000 2722017.00000000 
0.06300    71353008.00000000 44915516.00000000 113220392.00000000 40115.54687500  3349072.75000000 2655325.50000000 
0.06400    69798208.00000000 43945636.00000000 110765144.00000000 39047.79687500  3266704.00000000 2590247.25000000 
0.06500    68275056.00000000 42994460.00000000 108357672.00000000 38010.39843750  3186346.00000000 2526730.25000000 
0.06600    66783028.00000000 42062556.00000000 105999360.00000000 37002.75000000  3107984.50000000 2464781.50000000 
0.06700    65322772.00000000 41150380.00000000 103690320.00000000 36025.05078125  3031652.25000000 2404425.75000000 
0.06800    63893712.00000000 40257584.00000000 101431632.00000000 35076.56250000  2957283.25000000 2345645.75000000 
0.06900    62496544.00000000 39384484.00000000 99223872.00000000 34156.95703125  2884961.00000000 2288431.25000000 
0.07000    61132136.00000000 38531400.00000000 97065936.00000000 33266.08593750  2814578.75000000 2232772.75000000 
0.07100    59800228.00000000 37698968.00000000 94959040.00000000 32402.77734375  2746114.50000000 2178667.25000000 
0.07200    58500468.00000000 36886424.00000000 92904240.00000000 31566.61328125  2679661.00000000 2126085.00000000 
0.07300    57233104.00000000 36093604.00000000 90899664.00000000 30757.70703125  2615106.50000000 2075002.37500000 
0.07400    55998392.00000000 35321792.00000000 88947248.00000000 29974.59179688  2552407.75000000 2025438.62500000 
0.07500    54795880.00000000 34569668.00000000 87044840.00000000 29216.65234375  2491595.75000000 1977309.62500000 
0.07600    53625372.00000000 33837244.00000000 85192928.00000000 28483.34960938  2432585.25000000 1930622.25000000 
0.07700    52486500.00000000 33125378.00000000 83391944.00000000 27774.27539062  2375330.75000000 1885347.25000000 
0.07800    51379260.00000000 32433024.00000000 81640376.00000000 27088.30664062  2319864.75000000 1841452.75000000 
0.07900    50303220.00000000 31759932.00000000 79938000.00000000 26424.52929688  2266056.75000000 1798914.12500000 
0.08000    49258196.00000000 31106156.00000000 78285416.00000000 25782.64843750  2213957.75000000 1757679.12500000 
0.08100    48243288.00000000 30471536.00000000 76680416.00000000 25161.55664062  2163451.00000000 1717741.75000000 
0.08200    47258468.00000000 29855814.00000000 75122280.00000000 24560.38085938  2114533.00000000 1679029.37500000 
0.08300    46302736.00000000 29258602.00000000 73611576.00000000 23978.71093750  2067145.00000000 1641523.12500000 
0.08400    45376140.00000000 28679474.00000000 72145880.00000000 23415.40820312  2021212.87500000 1605203.50000000 
0.08500    44477896.00000000 28117806.00000000 70726184.00000000 22870.30468750  1976729.00000000 1570015.75000000 
0.08600    43607156.00000000 27574030.00000000 69349288.00000000 22341.66992188  1933622.62500000 1535900.62500000 
0.08700    42763852.00000000 27047270.00000000 68015480.00000000 21829.73828125  1891859.12500000 1502865.00000000 
0.08800    41946664.00000000 26537292.00000000 66724912.00000000 21333.26171875  1851360.87500000 1470840.37500000 
0.08900    41155204.00000000 26043572.00000000 65474976.00000000 20851.51171875  1812125.50000000 1439807.37500000 
0.09000    40389548.00000000 25565832.00000000 64264432.00000000 20384.20312500  1774067.37500000 1409699.75000000 
0.09100    39647724.00000000 25103214.00000000 63093160.00000000 19930.17968750  1737159.12500000 1380505.37500000 
0.09200    38929692.00000000 24655990.00000000 61959968.00000000 19489.17382812  1701327.37500000 1352174.62500000 
0.09300    38234780.00000000 24223226.00000000 60863048.00000000 19060.41601562  1666570.25000000 1324683.12500000 
0.09400    37562320.00000000 23804506.00000000 59801424.00000000 18643.19531250  1632798.87500000 1297993.12500000 
0.09500    36911500.00000000 23399544.00000000 58774408.00000000 18237.16992188  1599995.62500000 1272032.87500000 
0.09600    36281324.00000000 23007944.00000000 57780836.00000000 17841.54492188  1568107.75000000 1246824.50000000 
0.09700    35671360.00000000 22628808.00000000 56818916.00000000 17456.14257812  1537105.12500000 1222297.62500000 
0.09800    35080468.00000000 22262340.00000000 55888384.00000000 17080.32812500  1506907.25000000 1198439.37500000 
0.09900    34508968.00000000 21907654.00000000 54987416.00000000 16713.43945312  1477526.62500000 1175200.50000000 
0.10000    33955340.00000000 21564224.00000000 54115332.00000000 16355.25781250  1448894.50000000 1152542.50000000 
0.10100    33418816.00000000 21232180.00000000 53270400.00000000 16005.37109375  1420976.00000000 1130472.87500000 
0.10200    32898692.00000000 20910154.00000000 52451864.00000000 15663.17480469  1393735.50000000 1108933.25000000 
0.10300    32394672.00000000 20598380.00000000 51658736.00000000 15328.66015625  1367146.87500000 1087908.62500000 
0.10400    31905728.00000000 20296190.00000000 50889620.00000000 15001.09375000  1341185.25000000 1067363.87500000 
0.10500    31431140.00000000 20003466.00000000 50143948.00000000 14680.74902344  1315800.75000000 1047284.87500000 
0.10600    30970554.00000000 19718976.00000000 49419624.00000000 14366.73339844  1290956.62500000 1027635.00000000 
0.10700    30523096.00000000 19443402.00000000 48716928.00000000 14059.05859375  1266652.50000000 1008400.43750000 
0.10800    30088128.00000000 19175326.00000000 48034120.00000000 13757.48437500  1242842.25000000 989559.68750000 
0.10900    29665152.00000000 18914956.00000000 47369872.00000000 13461.76562500  1219508.62500000 971091.18750000 
0.11000    29253426.00000000 18661538.00000000 46724036.00000000 13171.69824219  1196622.50000000 952978.81250000 
0.11100    28852406.00000000 18415122.00000000 46094868.00000000 12887.12207031  1174175.37500000 935198.56250000 
0.11200    28461644.00000000 18175096.00000000 45481888.00000000 12607.76171875  1152120.12500000 917737.93750000 
0.11300    28080410.00000000 17940958.00000000 44884088.00000000 12333.63964844  1130462.37500000 900584.31250000 
0.11400    27708210.00000000 17712670.00000000 44301032.00000000 12064.63671875  1109177.25000000 883715.81250000 
0.11500    27344672.00000000 17489710.00000000 43731204.00000000 11800.38867188  1088257.25000000 867128.75000000 
0.11600    26989074.00000000 17271680.00000000 43173964.00000000 11540.91894531  1067670.12500000 850807.00000000 
0.11700    26641068.00000000 17058286.00000000 42628884.00000000 11286.20214844  1047402.68750000 834737.62500000 
0.11800    26300326.00000000 16849410.00000000 42094676.00000000 11036.02832031  1027448.31250000 818913.12500000 
0.11900    25966134.00000000 16644648.00000000 41571616.00000000 10790.29980469  1007790.62500000 803309.18750000 
0.12000    25638150.00000000 16443733.00000000 41057400.00000000 10549.06640625  988425.68750000 787933.56250000 
0.12100    25316330.00000000 16246308.00000000 40553212.00000000 10312.26660156  969345.62500000 772782.06250000 
0.12200    24999660.00000000 16052325.00000000 40057280.00000000 10079.74609375  950533.06250000 757831.37500000 
0.12300    24688186.00000000 15861328.00000000 39569196.00000000 9851.46093750   931986.68750000 743088.75000000 
0.12400    24381500.00000000 15673250.00000000 39088132.00000000 9627.21093750   913681.12500000 728548.81250000 
0.12500    24079032.00000000 15487790.00000000 38614320.00000000 9407.31835938   895635.06250000 714195.81250000 
0.12600    23780884.00000000 15304809.00000000 38146960.00000000 9191.44140625   877838.87500000 700035.00000000 
0.12700    23486450.00000000 15123988.00000000 37685360.00000000 8979.55175781   860269.81250000 686053.93750000 
0.12800    23195644.00000000 14945259.00000000 37229164.00000000 8771.74609375   842944.87500000 672257.68750000 
0.12900    22908158.00000000 14768477.00000000 36778000.00000000 8567.89062500   825842.43750000 658636.87500000 
0.13000    22623630.00000000 14593422.00000000 36331340.00000000 8367.91699219   808969.06250000 645200.50000000 
0.13100    22341988.00000000 14419856.00000000 35889020.00000000 8171.75146484   792316.68750000 631924.87500000 
0.13200    22062950.00000000 14247802.00000000 35450524.00000000 7979.47216797   775877.87500000 618822.43750000 
0.13300    21786494.00000000 14077033.00000000 35015772.00000000 7791.04443359   759672.56250000 605895.81250000 
0.13400    21512192.00000000 13907497.00000000 34584136.00000000 7606.23779297   743674.43750000 593131.87500000 
0.13500    21240136.00000000 13739075.00000000 34155632.00000000 7425.10009766   727898.68750000 580541.25000000 
0.13600    20969708.00000000 13571594.00000000 33730100.00000000 7247.66406250   712336.00000000 568123.25000000 
0.13700    20701184.00000000 13405152.00000000 33306916.00000000 7073.74072266   696982.12500000 555859.12500000 
0.13800    20434504.00000000 13239384.00000000 32886398.00000000 6903.33740234   681837.93750000 543771.31250000 
0.13900    20169212.00000000 13074485.00000000 32467922.00000000 6736.49267578   666912.93750000 531848.00000000 
0.14000    19905684.00000000 12910264.00000000 32051756.00000000 6573.03320312   652194.31250000 520084.90625000 
0.14100    19643274.00000000 12746733.00000000 31637246.00000000 6412.91845703   637693.25000000 508498.31250000 
0.14200    19382276.00000000 12583730.00000000 31224886.00000000 6256.15332031   623394.93750000 497068.71875000 
0.14300    19122708.00000000 12421448.00000000 30814016.00000000 6102.67187500   609307.56250000 485805.62500000 
0.14400    18864148.00000000 12259486.00000000 30404696.00000000 5952.31787109   595434.37500000 474712.21875000 
0.14500    18606870.00000000 12098204.00000000 29997036.00000000 5805.11035156   581767.12500000 463780.37500000 
0.14600    18350906.00000000 11937387.00000000 29591158.00000000 5661.10644531   568314.31250000 453018.62500000 
0.14700    18095954.00000000 11777126.00000000 29186790.00000000 5520.07910156   555064.43750000 442424.68750000 
0.14800    17842066.00000000 11617213.00000000 28783726.00000000 5382.01953125   542031.50000000 431990.03125000 
0.14900    17589200.00000000 11457910.00000000 28382270.00000000 5246.89794922   529199.06250000 421727.65625000 
0.15000    17337704.00000000 11298988.00000000 27982312.00000000 5114.63964844   516578.34375000 411627.90625000 
0.15100    17087092.00000000 11140529.00000000 27583870.00000000 4985.17138672   504163.46875000 401698.00000000 
0.15200    16837758.00000000 10982744.00000000 27187040.00000000 4858.56591797   491962.68750000 391935.00000000 
0.15300    16589930.00000000 10825475.00000000 26792020.00000000 4734.56835938   479967.00000000 382333.87500000 
0.15400    16342785.00000000 10668696.00000000 26398312.00000000 4613.24609375   468175.25000000 372899.34375000 
0.15500    16097093.00000000 10512522.00000000 26006440.00000000 4494.61962891   456592.25000000 363633.43750000 
0.15600    15852595.00000000 10356979.00000000 25616324.00000000 4378.49658203   445214.81250000 354524.84375000 
0.15700    15609424.00000000 10201984.00000000 25228170.00000000 4264.99560547   434046.53125000 345591.37500000 
0.15800    15367580.00000000 10047742.00000000 24841972.00000000 4153.87158203   423081.25000000 336814.53125000 
0.15900    15127153.00000000 9894213.00000000 24457690.00000000 4045.27075195   412318.87500000 328206.56250000 
0.16000    14888268.00000000 9741472.00000000 24075656.00000000 3939.04833984   401761.84375000 319758.87500000 
0.16100    14650848.00000000 9589552.00000000 23695990.00000000 3835.26049805   391407.53125000 311477.59375000 
0.16200    14415013.00000000 9438460.00000000 23318328.00000000 3733.79565430   381258.15625000 303354.00000000 
0.16300    14180908.00000000 9288266.00000000 22943420.00000000 3634.63012695   371303.93750000 295395.84375000 
0.16400    13948494.00000000 9139009.00000000 22570966.00000000 3537.78491211   361555.87500000 287598.15625000 
0.16500    13717870.00000000 8990853.00000000 22201202.00000000 3443.17553711   352001.00000000 279957.84375000 
0.16600    13488964.00000000 8843636.00000000 21834182.00000000 3350.82714844   342649.50000000 272479.00000000 
0.16700    13262050.00000000 8697451.00000000 21469976.00000000 3260.64819336   333493.84375000 265156.15625000 
0.16800    13037042.00000000 8552505.00000000 21108746.00000000 3172.67456055   324530.81250000 257988.57812500 
0.16900    12814199.00000000 8408683.00000000 20750854.00000000 3086.91577148   315766.03125000 250979.68750000 
0.17000    12593440.00000000 8266168.00000000 20396274.00000000 3003.29052734   307189.75000000 244124.87500000 
