# SAXS profile: number of points = 501, q_min = 0, q_max = 0.5, delta_q = 0.001
#    q    intensity 
0.00000    162237968.00000000 101201600.00000000 256272032.00000000 102985.03125000 8175134.50000000 6456689.00000000 
0.00100    162213984.00000000 101186208.00000000 256232800.00000000 102963.60156250 8173642.00000000 6455505.00000000 
0.00200    162139856.00000000 101140184.00000000 256115584.00000000 102899.01562500 8169170.50000000 6451992.50000000 
0.00300    162015408.00000000 101063632.00000000 255920672.00000000 102791.63281250 8161697.50000000 6446162.00000000 
0.00400    161841904.00000000 100956472.00000000 255646864.00000000 102641.64843750 8151268.50000000 6437958.00000000 
0.00500    161617872.00000000 100818600.00000000 255296096.00000000 102448.85937500 8137864.50000000 6427452.50000000 
0.00600    161344128.00000000 100650240.00000000 254867296.00000000 102213.94531250 8121523.00000000 6414615.00000000 
0.00700    161021248.00000000 100452864.00000000 254361392.00000000 101936.85156250 8102246.00000000 6399449.50000000 
0.00800    160649904.00000000 100223744.00000000 253777728.00000000 101618.14843750 8080077.50000000 6382030.00000000 
0.00900    160230688.00000000 99965936.00000000 253120224.00000000 101257.92187500 8055019.50000000 6362367.00000000 
0.01000    159760992.00000000 99678616.00000000 252386816.00000000 100856.64062500 8027078.00000000 6340425.50000000 
0.01100    159243472.00000000 99361984.00000000 251578960.00000000 100414.89843750 7996317.00000000 6316245.00000000 
0.01200    158681664.00000000 99016144.00000000 250696352.00000000 99933.19531250  7962762.00000000 6289896.50000000 
0.01300    158072112.00000000 98642112.00000000 249740800.00000000 99412.35156250  7926425.50000000 6261357.50000000 
0.01400    157417616.00000000 98239168.00000000 248712672.00000000 98852.33593750  7887343.50000000 6230699.50000000 
0.01500    156717872.00000000 97808376.00000000 247614512.00000000 98254.65625000  7845610.50000000 6197887.50000000 
0.01600    155971616.00000000 97349864.00000000 246443920.00000000 97619.12500000  7801233.00000000 6163025.00000000 
0.01700    155181360.00000000 96864136.00000000 245205536.00000000 96947.00000000  7754250.00000000 6126138.00000000 
0.01800    154347760.00000000 96351608.00000000 243898768.00000000 96238.79687500  7704713.00000000 6087204.50000000 
0.01900    153471616.00000000 95813000.00000000 242524624.00000000 95495.17968750  7652661.00000000 6046363.00000000 
0.02000    152553184.00000000 95248608.00000000 241084752.00000000 94717.95312500  7598200.00000000 6003526.50000000 
0.02100    151594688.00000000 94658760.00000000 239581008.00000000 93906.78125000  7541332.50000000 5958871.00000000 
0.02200    150594848.00000000 94044496.00000000 238013776.00000000 93063.32031250  7482131.00000000 5912351.50000000 
0.02300    149556624.00000000 93405408.00000000 236384784.00000000 92188.40625000  7420643.50000000 5864077.00000000 
0.02400    148479840.00000000 92743624.00000000 234695616.00000000 91282.50000000  7356954.50000000 5813997.00000000 
0.02500    147365696.00000000 92057464.00000000 232947088.00000000 90347.15625000  7291138.50000000 5762275.00000000 
0.02600    146215680.00000000 91349600.00000000 231142704.00000000 89383.41406250  7223212.00000000 5708908.00000000 
0.02700    145029568.00000000 90619968.00000000 229280928.00000000 88392.28125000  7153290.50000000 5653974.50000000 
0.02800    143808352.00000000 89869104.00000000 227366816.00000000 87374.73437500  7081411.50000000 5597474.00000000 
0.02900    142555008.00000000 89097056.00000000 225399536.00000000 86331.85937500  7007655.00000000 5539508.50000000 
0.03000    141267936.00000000 88306080.00000000 223381248.00000000 85264.77343750  6932109.00000000 5480121.00000000 
0.03100    139951456.00000000 87495016.00000000 221315040.00000000 84174.86718750  6854824.50000000 5419353.00000000 
0.03200    138604544.00000000 86665672.00000000 219200080.00000000 83063.21875000  6775897.00000000 5357323.00000000 
0.03300    137228528.00000000 85818992.00000000 217040672.00000000 81930.21093750  6695406.50000000 5294011.50000000 
0.03400    135825616.00000000 84954224.00000000 214838032.00000000 80778.68750000  6613332.00000000 5229533.50000000 
0.03500    134395008.00000000 84073856.00000000 212593856.00000000 79608.51562500  6529912.50000000 5163932.00000000 
0.03600    132940112.00000000 83177464.00000000 210310224.00000000 78421.34375000  6445138.50000000 5097223.00000000 
0.03700    131461112.00000000 82265680.00000000 207987120.00000000 77218.44531250  6359046.00000000 5029561.00000000 
0.03800    129958696.00000000 81340256.00000000 205627952.00000000 76000.75781250  6271802.50000000 4960935.50000000 
0.03900    128435576.00000000 80401336.00000000 203236336.00000000 74770.49218750  6183446.00000000 4891456.00000000 
0.04000    126891456.00000000 79449928.00000000 200811584.00000000 73527.21875000  6094065.50000000 4821136.50000000 
0.04100    125328640.00000000 78486048.00000000 198357328.00000000 72273.39062500  6003732.50000000 4750070.50000000 
0.04200    123747872.00000000 77511320.00000000 195874736.00000000 71010.12500000  5912551.00000000 4678328.50000000 
0.04300    122150304.00000000 76525984.00000000 193365648.00000000 69738.34375000  5820544.00000000 4605966.00000000 
0.04400    120537656.00000000 75531520.00000000 190832368.00000000 68459.21093750  5727874.50000000 4532994.00000000 
0.04500    118911232.00000000 74527368.00000000 188277216.00000000 67174.42187500  5634543.50000000 4459587.00000000 
0.04600    117271456.00000000 73515808.00000000 185700240.00000000 65884.61718750  5540686.00000000 4385699.00000000 
0.04700    115620472.00000000 72496752.00000000 183106896.00000000 64591.39453125  5446368.00000000 4311464.00000000 
0.04800    113959056.00000000 71471304.00000000 180495792.00000000 63295.61718750  5351663.00000000 4236905.00000000 
0.04900    112289184.00000000 70440480.00000000 177871808.00000000 61998.89062500  5256661.00000000 4162104.50000000 
0.05000    110611600.00000000 69404064.00000000 175234672.00000000 60701.90625000  5161424.00000000 4087113.00000000 
0.05100    108926624.00000000 68363568.00000000 172585648.00000000 59406.05859375  5066030.00000000 4012003.00000000 
0.05200    107236768.00000000 67319768.00000000 169928560.00000000 58112.26562500  4970566.50000000 3936816.25000000 
0.05300    105542864.00000000 66272264.00000000 167265520.00000000 56821.92578125  4875099.50000000 3861609.75000000 
0.05400    103846056.00000000 65223516.00000000 164596880.00000000 55535.83984375  4779693.50000000 3786440.50000000 
0.05500    102147584.00000000 64173208.00000000 161924480.00000000 54255.03125000  4684428.00000000 3711390.25000000 
0.05600    100448240.00000000 63122184.00000000 159252128.00000000 52980.67187500  4589376.00000000 3636504.75000000 
0.05700    98749416.00000000 62071596.00000000 156580336.00000000 51713.71093750  4494618.50000000 3561843.75000000 
0.05800    97053432.00000000 61021548.00000000 153911504.00000000 50455.21093750  4400216.50000000 3487431.50000000 
0.05900    95358888.00000000 59972936.00000000 151245328.00000000 49205.98828125  4306238.00000000 3413347.25000000 
0.06000    93668856.00000000 58926916.00000000 148585680.00000000 47967.04296875  4212761.00000000 3339649.25000000 
0.06100    91984048.00000000 57883076.00000000 145934016.00000000 46739.39843750  4119817.50000000 3266371.00000000 
0.06200    90305688.00000000 56843176.00000000 143290832.00000000 45523.42968750  4027492.25000000 3193563.00000000 
0.06300    88633952.00000000 55807416.00000000 140659360.00000000 44320.28906250  3935854.00000000 3121271.50000000 
0.06400    86970328.00000000 54776212.00000000 138038880.00000000 43130.78515625  3844916.00000000 3049532.25000000 
0.06500    85315912.00000000 53750584.00000000 135433280.00000000 41955.58984375  3754787.25000000 2978439.00000000 
0.06600    83671136.00000000 52730656.00000000 132843952.00000000 40795.39062500  3665482.75000000 2907974.50000000 
0.06700    82037712.00000000 51717304.00000000 130270648.00000000 39651.16406250  3577099.25000000 2838194.50000000 
0.06800    80415720.00000000 50710820.00000000 127715480.00000000 38523.03906250  3489638.25000000 2769174.25000000 
0.06900    78807408.00000000 49712140.00000000 125180200.00000000 37412.22656250  3403179.00000000 2700915.75000000 
0.07000    77212136.00000000 48721472.00000000 122665912.00000000 36318.77343750  3317765.50000000 2633475.00000000 
0.07100    75631144.00000000 47739392.00000000 120173592.00000000 35243.43750000  3233422.50000000 2566865.25000000 
0.07200    74065568.00000000 46766560.00000000 117704864.00000000 34186.71875000  3150201.75000000 2501129.50000000 
0.07300    72515664.00000000 45803056.00000000 115261192.00000000 33149.17968750  3068168.75000000 2436313.75000000 
0.07400    70982856.00000000 44849892.00000000 112842872.00000000 32130.95117188  2987316.25000000 2372445.00000000 
0.07500    69466944.00000000 43907132.00000000 110451832.00000000 31132.84570312  2907714.00000000 2309514.25000000 
0.07600    67969256.00000000 42975032.00000000 108088536.00000000 30155.11718750  2829373.75000000 2247603.25000000 
0.07700    66489640.00000000 42054336.00000000 105754536.00000000 29197.68945312  2752351.25000000 2186693.00000000 
0.07800    65030292.00000000 41145132.00000000 103450256.00000000 28261.42773438  2676655.00000000 2126832.25000000 
0.07900    63590156.00000000 40247812.00000000 101176256.00000000 27346.17382812  2602293.25000000 2068018.50000000 
0.08000    62170036.00000000 39362992.00000000 98934600.00000000 26452.32421875  2529329.00000000 2010289.12500000 
0.08100    60771388.00000000 38490924.00000000 96725216.00000000 25580.10937500  2457767.25000000 1953673.00000000 
0.08200    59393600.00000000 37631572.00000000 94548960.00000000 24729.42578125  2387618.50000000 1898164.62500000 
0.08300    58037468.00000000 36785336.00000000 92406744.00000000 23900.63671875  2318916.25000000 1843776.87500000 
0.08400    56703672.00000000 35952828.00000000 90298576.00000000 23093.60351562  2251670.00000000 1790530.12500000 
0.08500    55392216.00000000 35133828.00000000 88225896.00000000 22308.62890625  2185877.25000000 1738428.00000000 
0.08600    54103804.00000000 34328652.00000000 86188392.00000000 21545.53710938  2121576.75000000 1687497.25000000 
0.08700    52837976.00000000 33537716.00000000 84186976.00000000 20804.43359375  2058757.75000000 1637728.25000000 
0.08800    51595708.00000000 32760734.00000000 82222000.00000000 20085.01367188  1997420.25000000 1589123.87500000 
0.08900    50376900.00000000 31998306.00000000 80294088.00000000 19387.52539062  1937597.00000000 1541700.87500000 
0.09000    49182184.00000000 31250480.00000000 78403560.00000000 18711.64648438  1879273.75000000 1495456.37500000 
0.09100    48011136.00000000 30517360.00000000 76550104.00000000 18057.39843750  1822453.12500000 1450393.87500000 
0.09200    46864192.00000000 29798746.00000000 74734552.00000000 17424.41992188  1767112.87500000 1406495.37500000 
0.09300    45741564.00000000 29095156.00000000 72956600.00000000 16812.82812500  1713294.75000000 1363791.87500000 
0.09400    44643552.00000000 28406308.00000000 71216872.00000000 16222.00781250  1660945.12500000 1322242.75000000 
0.09500    43569380.00000000 27732436.00000000 69515280.00000000 15652.08496094  1610085.62500000 1281866.37500000 
0.09600    42519480.00000000 27073526.00000000 67852200.00000000 15102.52539062  1560700.62500000 1242654.12500000 
0.09700    41494188.00000000 26429596.00000000 66226688.00000000 14573.34375000  1512788.62500000 1204593.50000000 
0.09800    40493372.00000000 25800600.00000000 64639424.00000000 14063.93945312  1466332.12500000 1167681.75000000 
0.09900    39516548.00000000 25186598.00000000 63090548.00000000 13574.09082031  1421313.50000000 1131901.50000000 
0.10000    38564088.00000000 24587504.00000000 61579400.00000000 13103.49511719  1377712.62500000 1097236.87500000 
0.10100    37635480.00000000 24003150.00000000 60106052.00000000 12651.69335938  1335518.75000000 1063689.50000000 
0.10200    36730980.00000000 23433576.00000000 58670332.00000000 12218.46582031  1294724.62500000 1031246.43750000 
0.10300    35850068.00000000 22878522.00000000 57271908.00000000 11803.25488281  1255302.62500000 999874.68750000 
0.10400    34992816.00000000 22338222.00000000 55910400.00000000 11405.75781250  1217223.62500000 969572.37500000 
0.10500    34159064.00000000 21812348.00000000 54585900.00000000 11025.54882812  1180486.87500000 940320.75000000 
0.10600    33348486.00000000 21300674.00000000 53297596.00000000 10662.10156250  1145050.62500000 912100.37500000 
0.10700    32560788.00000000 20803304.00000000 52045936.00000000 10315.08398438  1110900.75000000 884892.37500000 
0.10800    31795552.00000000 20320042.00000000 50829204.00000000 9984.00292969   1078015.12500000 858684.75000000 
0.10900    31052738.00000000 19850384.00000000 49648132.00000000 9668.41503906   1046356.56250000 833452.62500000 
0.11000    30332018.00000000 19394522.00000000 48501576.00000000 9367.84570312   1015910.37500000 809172.68750000 
0.11100    29632962.00000000 18952146.00000000 47389380.00000000 9081.82714844   986636.12500000 785827.43750000 
0.11200    28955610.00000000 18523092.00000000 46310812.00000000 8809.80957031   958524.87500000 763388.43750000 
0.11300    28299096.00000000 18107116.00000000 45265360.00000000 8551.42578125   931532.75000000 741845.56250000 
0.11400    27663164.00000000 17703890.00000000 44252820.00000000 8306.13281250   905642.43750000 721172.06250000 
0.11500    27047748.00000000 17313330.00000000 43271992.00000000 8073.46289062   880810.12500000 701342.31250000 
0.11600    26452172.00000000 16935330.00000000 42323068.00000000 7852.85791016   857020.56250000 682331.37500000 
0.11700    25876142.00000000 16569444.00000000 41405048.00000000 7643.97753906   834234.62500000 664124.62500000 
0.11800    25319220.00000000 16215452.00000000 40516544.00000000 7446.15234375   812416.37500000 646676.93750000 
0.11900    24780950.00000000 15873198.00000000 39657928.00000000 7258.97900391   791543.31250000 629986.68750000 
0.12000    24260710.00000000 15542232.00000000 38828176.00000000 7082.03466797   771583.12500000 614016.31250000 
0.12100    23758696.00000000 15222532.00000000 38026892.00000000 6914.81982422   752512.62500000 598751.81250000 
0.12200    23273812.00000000 14913652.00000000 37252532.00000000 6756.79833984   734278.50000000 584161.68750000 
0.12300    22805868.00000000 14615381.00000000 36505104.00000000 6607.55419922   716869.31250000 570220.93750000 
0.12400    22354408.00000000 14327457.00000000 35783956.00000000 6466.57421875   700249.81250000 556905.18750000 
0.12500    21919038.00000000 14049553.00000000 35088120.00000000 6333.51513672   684380.62500000 544190.06250000 
0.12600    21499258.00000000 13781513.00000000 34417016.00000000 6207.86181641   669245.56250000 532055.81250000 
0.12700    21094342.00000000 13522815.00000000 33769584.00000000 6089.16943359   654795.81250000 520473.40625000 
0.12800    20704082.00000000 13273501.00000000 33145618.00000000 5977.01660156   641007.93750000 509419.21875000 
0.12900    20328092.00000000 13032989.00000000 32544090.00000000 5871.00830078   627855.18750000 498869.81250000 
0.13000    19965588.00000000 12801060.00000000 31964164.00000000 5770.67578125   615310.87500000 488801.00000000 
0.13100    19616404.00000000 12577465.00000000 31405248.00000000 5675.70263672   603330.87500000 479192.37500000 
0.13200    19279940.00000000 12361941.00000000 30866468.00000000 5585.64404297   591894.43750000 470016.00000000 
0.13300    18955714.00000000 12154360.00000000 30347436.00000000 5500.19824219   580982.06250000 461253.65625000 
0.13400    18643186.00000000 11954094.00000000 29846966.00000000 5418.91992188   570551.75000000 452882.43750000 
0.13500    18342034.00000000 11761062.00000000 29364838.00000000 5341.49218750   560582.56250000 444876.75000000 
0.13600    18051792.00000000 11574957.00000000 28899710.00000000 5267.60009766   551041.06250000 437218.78125000 
0.13700    17772030.00000000 11395434.00000000 28451564.00000000 5196.88134766   541911.12500000 429887.75000000 
0.13800    17502172.00000000 11222337.00000000 28019262.00000000 5129.03027344   533157.37500000 422860.84375000 
0.13900    17241868.00000000 11055316.00000000 27602146.00000000 5063.78369141   524757.50000000 416120.68750000 
0.14000    16990610.00000000 10894182.00000000 27199556.00000000 5000.85156250   516695.96875000 409646.56250000 
0.14100    16748163.00000000 10738540.00000000 26810932.00000000 4939.94091797   508936.78125000 403420.18750000 
0.14200    16513913.00000000 10588223.00000000 26435526.00000000 4880.76904297   501459.56250000 397421.12500000 
0.14300    16287496.00000000 10442941.00000000 26072800.00000000 4823.18896484   494247.12500000 391637.15625000 
0.14400    16068553.00000000 10302422.00000000 25721876.00000000 4766.83691406   487270.93750000 386044.96875000 
0.14500    15856699.00000000 10166522.00000000 25382248.00000000 4711.62890625   480515.90625000 380631.87500000 
0.14600    15651322.00000000 10034881.00000000 25053498.00000000 4657.28369141   473961.09375000 375380.71875000 
0.14700    15452490.00000000 9907341.00000000 24734842.00000000 4603.66748047   467592.59375000 370279.00000000 
0.14800    15259362.00000000 9783611.00000000 24425788.00000000 4550.56933594   461379.09375000 365306.65625000 
0.14900    15071815.00000000 9663530.00000000 24125464.00000000 4497.75390625   455310.15625000 360450.84375000 
0.15000    14889594.00000000 9546788.00000000 23833574.00000000 4445.20507812   449374.34375000 355703.25000000 
0.15100    14712090.00000000 9433277.00000000 23549576.00000000 4392.71582031   443545.53125000 351047.03125000 
0.15200    14539264.00000000 9322782.00000000 23273288.00000000 4340.22460938   437821.84375000 346475.00000000 
0.15300    14370655.00000000 9215029.00000000 23003510.00000000 4287.55810547   432176.50000000 341968.71875000 
0.15400    14205885.00000000 9109842.00000000 22740252.00000000 4234.60791016   426601.78125000 337522.37500000 
0.15500    14044811.00000000 9007084.00000000 22482836.00000000 4181.30957031   421085.31250000 333122.15625000 
0.15600    13887025.00000000 8906527.00000000 22230858.00000000 4127.59765625   415611.90625000 328762.43750000 
0.15700    13732461.00000000 8808033.00000000 21983956.00000000 4073.41040039   410179.50000000 324436.46875000 
0.15800    13580540.00000000 8711384.00000000 21741566.00000000 4018.69335938   404768.37500000 320128.31250000 
0.15900    13431356.00000000 8616523.00000000 21503618.00000000 3963.37817383   399375.28125000 315839.96875000 
0.16000    13284277.00000000 8523200.00000000 21269224.00000000 3907.45751953   393988.90625000 311554.56250000 
0.16100    13139431.00000000 8431326.00000000 21038620.00000000 3850.93017578   388602.40625000 307274.03125000 
0.16200    12996480.00000000 8340725.00000000 20811000.00000000 3793.73291016   383208.62500000 302989.71875000 
0.16300    12855302.00000000 8251341.00000000 20586142.00000000 3735.86303711   377801.71875000 298696.15625000 
0.16400    12715545.00000000 8162949.50000000 20363924.00000000 3677.36718750   372376.71875000 294388.31250000 
0.16500    12577116.00000000 8075546.00000000 20143688.00000000 3618.20336914   366927.37500000 290063.40625000 
0.16600    12439872.00000000 7988888.50000000 19925612.00000000 3558.42724609   361450.40625000 285717.78125000 
0.16700    12303592.00000000 7902963.50000000 19709114.00000000 3498.03002930   355941.09375000 281346.37500000 
0.16800    12168110.00000000 7817620.00000000 19493978.00000000 3437.07495117   350393.43750000 276947.71875000 
0.16900    12033391.00000000 7732843.00000000 19280288.00000000 3375.59863281   344817.28125000 272524.81250000 
0.17000    11899304.00000000 7648496.00000000 19067418.00000000 3313.64477539   339199.59375000 268068.50000000 
