# SAXS profile: number of points = 501, q_min = 0, q_max = 0.5, delta_q = 0.001
#    q    intensity 
0.00000    162234624.00000000 101202184.00000000 256271152.00000000 110926.20312500 8484499.00000000 6701018.00000000 
0.00100    162200992.00000000 101179224.00000000 256212480.00000000 110893.75781250 8482219.00000000 6699259.00000000 
0.00200    162094368.00000000 101110824.00000000 256041072.00000000 110794.64843750 8475494.00000000 6694010.00000000 
0.00300    161912896.00000000 100997480.00000000 255752208.00000000 110630.21875000 8464322.00000000 6685182.00000000 
0.00400    161654784.00000000 100839312.00000000 255347424.00000000 110401.32031250 8448702.00000000 6672926.50000000 
0.00500    161324256.00000000 100636240.00000000 254831280.00000000 110107.57031250 8428700.00000000 6657211.50000000 
0.00600    160919248.00000000 100387368.00000000 254197504.00000000 109749.63281250 8404328.00000000 6638010.50000000 
0.00700    160444912.00000000 100095304.00000000 253454864.00000000 109328.72656250 8375595.50000000 6615446.00000000 
0.00800    159898752.00000000 99760288.00000000 252601584.00000000 108844.75781250 8342622.00000000 6589511.50000000 
0.00900    159283440.00000000 99382776.00000000 251637040.00000000 108299.89062500 8305440.00000000 6560284.00000000 
0.01000    158601600.00000000 98962616.00000000 250564192.00000000 107694.30468750 8264085.00000000 6527771.50000000 
0.01100    157853664.00000000 98499528.00000000 249385760.00000000 107030.53125000 8218671.50000000 6492119.50000000 
0.01200    157036464.00000000 97995632.00000000 248102320.00000000 106308.23437500 8169314.50000000 6453296.00000000 
0.01300    156153040.00000000 97452304.00000000 246719392.00000000 105530.12500000 8116039.00000000 6411416.00000000 
0.01400    155206384.00000000 96868904.00000000 245233312.00000000 104697.21875000 8059026.00000000 6366539.00000000 
0.01500    154197872.00000000 96247544.00000000 243649664.00000000 103811.24218750 7998260.00000000 6318802.00000000 
0.01600    153130672.00000000 95589168.00000000 241972080.00000000 102874.41406250 7933956.00000000 6268225.00000000 
0.01700    152004208.00000000 94894848.00000000 240202976.00000000 101887.76562500 7866163.50000000 6214953.00000000 
0.01800    150819200.00000000 94165072.00000000 238343168.00000000 100854.62500000 7795070.50000000 6159064.50000000 
0.01900    149580320.00000000 93400320.00000000 236396736.00000000 99775.29687500  7720762.00000000 6100595.00000000 
0.02000    148289168.00000000 92603488.00000000 234367520.00000000 98652.81250000  7643352.50000000 6039698.50000000 
0.02100    146945296.00000000 91775728.00000000 232258576.00000000 97489.87500000  7563015.50000000 5976552.00000000 
0.02200    145554064.00000000 90916760.00000000 230071408.00000000 96287.44531250  7479884.00000000 5911170.50000000 
0.02300    144115088.00000000 90029152.00000000 227810496.00000000 95048.63281250  7394066.50000000 5843684.00000000 
0.02400    142631488.00000000 89113696.00000000 225480672.00000000 93775.57031250  7305759.50000000 5774195.50000000 
0.02500    141104592.00000000 88171944.00000000 223081584.00000000 92469.56250000  7215106.50000000 5702833.50000000 
0.02600    139540272.00000000 87205432.00000000 220622080.00000000 91135.48437500  7122185.50000000 5629773.50000000 
0.02700    137936816.00000000 86214776.00000000 218101968.00000000 89772.38281250  7027229.50000000 5555049.00000000 
0.02800    136298464.00000000 85202232.00000000 215526624.00000000 88385.78906250  6930415.00000000 5478804.50000000 
0.02900    134625552.00000000 84169552.00000000 212898048.00000000 86976.61718750  6831765.00000000 5401184.00000000 
0.03000    132923608.00000000 83118064.00000000 210221728.00000000 85547.14843750  6731589.00000000 5322315.00000000 
0.03100    131192880.00000000 82048136.00000000 207500160.00000000 84100.42968750  6629962.00000000 5242329.50000000 
0.03200    129437024.00000000 80962368.00000000 204739344.00000000 82638.00000000  6527034.00000000 5161275.00000000 
0.03300    127657504.00000000 79861384.00000000 201939872.00000000 81162.71093750  6422951.00000000 5079330.50000000 
0.03400    125856736.00000000 78747792.00000000 199106016.00000000 79677.02343750  6317986.00000000 4996620.00000000 
0.03500    124037512.00000000 77622976.00000000 196246464.00000000 78183.14843750  6212110.50000000 4913240.00000000 
0.03600    122202472.00000000 76487712.00000000 193359600.00000000 76683.41406250  6105546.00000000 4829359.50000000 
0.03700    120353424.00000000 75343576.00000000 190449264.00000000 75180.10937500  5998481.50000000 4745025.50000000 
0.03800    118492864.00000000 74191888.00000000 187520752.00000000 73675.32031250  5891088.00000000 4660385.50000000 
0.03900    116623448.00000000 73033656.00000000 184578928.00000000 72170.58593750  5783382.00000000 4575556.00000000 
0.04000    114746792.00000000 71870912.00000000 181624672.00000000 70668.62500000  5675612.00000000 4490604.00000000 
0.04100    112865648.00000000 70705160.00000000 178662896.00000000 69171.52343750  5567895.50000000 4405719.00000000 
0.04200    110982496.00000000 69537416.00000000 175696432.00000000 67680.30468750  5460336.00000000 4320926.00000000 
0.04300    109098328.00000000 68369016.00000000 172729520.00000000 66198.44531250  5353110.50000000 4236380.00000000 
0.04400    107215552.00000000 67202552.00000000 169765088.00000000 64725.88671875  5246217.50000000 4152167.50000000 
0.04500    105337904.00000000 66036888.00000000 166805184.00000000 63265.45312500  5139973.00000000 4068327.00000000 
0.04600    103465192.00000000 64874768.00000000 163855264.00000000 61818.37109375  5034323.00000000 3985024.75000000 
0.04700    101600496.00000000 63717160.00000000 160916688.00000000 60386.00390625  4929441.50000000 3902325.25000000 
0.04800    99744952.00000000 62564992.00000000 157990896.00000000 58970.03515625  4825501.50000000 3820286.75000000 
0.04900    97900280.00000000 61419624.00000000 155084848.00000000 57571.90625000  4722495.00000000 3739022.25000000 
0.05000    96069408.00000000 60281692.00000000 152197616.00000000 56192.68359375  4620533.50000000 3658587.00000000 
0.05100    94252288.00000000 59152748.00000000 149332576.00000000 54833.39062500  4519759.50000000 3579043.75000000 
0.05200    92451600.00000000 58033004.00000000 146492896.00000000 53495.42968750  4420230.50000000 3500461.00000000 
0.05300    90668384.00000000 56923976.00000000 143681472.00000000 52179.41406250  4322011.50000000 3422929.50000000 
0.05400    88904232.00000000 55826184.00000000 140898720.00000000 50886.41406250  4225180.50000000 3346470.75000000 
0.05500    87160208.00000000 54741024.00000000 138146608.00000000 49617.21875000  4129766.00000000 3271171.75000000 
0.05600    85437584.00000000 53668632.00000000 135428240.00000000 48372.35156250  4035935.75000000 3197033.50000000 
0.05700    83738464.00000000 52610008.00000000 132745640.00000000 47152.70703125  3943639.50000000 3124153.00000000 
0.05800    82061968.00000000 51566284.00000000 130099328.00000000 45958.71093750  3852970.75000000 3052531.00000000 
0.05900    80409840.00000000 50537136.00000000 127491880.00000000 44790.61328125  3763965.00000000 2982180.00000000 
0.06000    78783856.00000000 49523728.00000000 124924888.00000000 43648.69140625  3676661.75000000 2913219.25000000 
0.06100    77183936.00000000 48526972.00000000 122398832.00000000 42533.58984375  3591099.75000000 2845609.25000000 
0.06200    75611624.00000000 47546120.00000000 119915584.00000000 41445.42578125  3507317.25000000 2779375.75000000 
0.06300    74067112.00000000 46582624.00000000 117474776.00000000 40383.53125000  3425308.25000000 2714554.25000000 
0.06400    72550248.00000000 45636720.00000000 115078888.00000000 39348.82812500  3345079.00000000 2651163.75000000 
0.06500    71062680.00000000 44708196.00000000 112728928.00000000 38341.20312500  3266697.75000000 2589175.75000000 
0.06600    69604280.00000000 43797908.00000000 110424624.00000000 37360.30468750  3190135.00000000 2528634.75000000 
0.06700    68175776.00000000 42905804.00000000 108166464.00000000 36405.65234375  3115385.25000000 2469522.50000000 
0.06800    66776768.00000000 42032336.00000000 105955368.00000000 35477.29296875  3042481.00000000 2411847.75000000 
0.06900    65407860.00000000 41177168.00000000 103791816.00000000 34575.07421875  2971388.75000000 2355624.50000000 
0.07000    64068892.00000000 40340780.00000000 101674952.00000000 33698.53906250  2902101.50000000 2300810.25000000 
0.07100    62760660.00000000 39523288.00000000 99606144.00000000 32847.52734375  2834602.00000000 2247452.50000000 
0.07200    61482244.00000000 38724132.00000000 97585152.00000000 32020.90234375  2768869.00000000 2195446.00000000 
0.07300    60234724.00000000 37944184.00000000 95612736.00000000 31218.97851562  2704919.00000000 2144839.25000000 
0.07400    59016596.00000000 37183048.00000000 93686736.00000000 30440.56054688  2642697.50000000 2095623.00000000 
0.07500    57828860.00000000 36440276.00000000 91807736.00000000 29685.57617188  2582193.25000000 2047746.75000000 
0.07600    56670412.00000000 35716428.00000000 89976456.00000000 28953.18359375  2523366.75000000 2001216.87500000 
0.07700    55542308.00000000 35010624.00000000 88191608.00000000 28243.14843750  2466172.50000000 1955954.37500000 
0.07800    54442460.00000000 34323188.00000000 86452128.00000000 27554.34960938  2410611.50000000 1912001.37500000 
0.07900    53371272.00000000 33653364.00000000 84758424.00000000 26886.20117188  2356623.00000000 1869295.25000000 
0.08000    52328612.00000000 33001678.00000000 83109136.00000000 26238.41406250  2304155.75000000 1827789.00000000 
0.08100    51314252.00000000 32367506.00000000 81504624.00000000 25610.02734375  2253231.00000000 1787481.25000000 
0.08200    50326580.00000000 31750206.00000000 79943720.00000000 25000.47460938  2203743.25000000 1748335.50000000 
0.08300    49366284.00000000 31149860.00000000 78424648.00000000 24408.97656250  2155658.50000000 1710307.87500000 
0.08400    48432172.00000000 30566072.00000000 76947128.00000000 23834.70117188  2108987.00000000 1673376.00000000 
0.08500    47524224.00000000 29998444.00000000 75511688.00000000 23277.49414062  2063600.75000000 1637500.50000000 
0.08600    46640592.00000000 29446726.00000000 74114688.00000000 22736.04101562  2019524.12500000 1602645.75000000 
0.08700    45782140.00000000 28910442.00000000 72758296.00000000 22210.33398438  1976713.25000000 1568775.37500000 
0.08800    44947456.00000000 28389144.00000000 71438584.00000000 21699.13671875  1935095.75000000 1535860.62500000 
0.08900    44136104.00000000 27882824.00000000 70156840.00000000 21201.98046875  1894621.87500000 1503872.75000000 
0.09000    43347580.00000000 27390672.00000000 68910504.00000000 20718.46093750  1855275.37500000 1472757.37500000 
0.09100    42580444.00000000 26912412.00000000 67699240.00000000 20247.60937500  1816981.12500000 1442495.37500000 
0.09200    41834892.00000000 26447450.00000000 66521608.00000000 19789.09765625  1779732.25000000 1413049.12500000 
0.09300    41110028.00000000 25995674.00000000 65376800.00000000 19342.44335938  1743458.50000000 1384380.75000000 
0.09400    40404752.00000000 25556534.00000000 64263676.00000000 18906.80664062  1708113.62500000 1356457.12500000 
0.09500    39719112.00000000 25129406.00000000 63181112.00000000 18481.82226562  1673690.50000000 1329267.00000000 
0.09600    39051900.00000000 24714158.00000000 62128472.00000000 18066.91406250  1640123.25000000 1302742.87500000 
0.09700    38402212.00000000 24310278.00000000 61103988.00000000 17661.91796875  1607373.75000000 1276879.12500000 
0.09800    37769924.00000000 23917208.00000000 60106656.00000000 17265.67968750  1575416.12500000 1251632.62500000 
0.09900    37154256.00000000 23534596.00000000 59136144.00000000 16878.64453125  1544212.50000000 1226998.87500000 
0.10000    36554624.00000000 23162190.00000000 58190972.00000000 16499.79687500  1513720.50000000 1202893.25000000 
0.10100    35970104.00000000 22799282.00000000 57269052.00000000 16128.97949219  1483898.50000000 1179367.87500000 
0.10200    35399772.00000000 22445922.00000000 56371608.00000000 15765.71093750  1454729.62500000 1156339.25000000 
0.10300    34843980.00000000 22101250.00000000 55495596.00000000 15409.99121094  1426200.25000000 1133795.75000000 
0.10400    34301100.00000000 21765278.00000000 54641700.00000000 15061.13964844  1398231.50000000 1111733.00000000 
0.10500    33771228.00000000 21437390.00000000 53807892.00000000 14719.16406250  1370839.62500000 1090110.00000000 
0.10600    33253774.00000000 21117080.00000000 52993180.00000000 14383.56835938  1343985.75000000 1068912.87500000 
0.10700    32747866.00000000 20804234.00000000 52197112.00000000 14054.40917969  1317638.50000000 1048109.06250000 
0.10800    32253160.00000000 20498476.00000000 51419228.00000000 13731.29882812  1291785.62500000 1027693.06250000 
0.10900    31769026.00000000 20199272.00000000 50657996.00000000 13414.16894531  1266386.87500000 1007640.68750000 
0.11000    31294702.00000000 19906592.00000000 49912592.00000000 13102.70214844  1241445.87500000 987946.62500000 
0.11100    30830246.00000000 19620082.00000000 49182700.00000000 12796.88085938  1216937.87500000 968588.56250000 
0.11200    30375002.00000000 19339216.00000000 48467628.00000000 12496.60644531  1192830.25000000 949551.87500000 
0.11300    29928384.00000000 19063814.00000000 47765876.00000000 12201.55175781  1169131.50000000 930823.18750000 
0.11400    29490234.00000000 18793856.00000000 47077676.00000000 11911.97363281  1145796.50000000 912392.68750000 
0.11500    29060046.00000000 18528700.00000000 46402120.00000000 11627.59570312  1122844.75000000 894246.93750000 
0.11600    28637324.00000000 18268314.00000000 45738284.00000000 11348.28808594  1100243.37500000 876380.37500000 
0.11700    28221952.00000000 18012308.00000000 45085908.00000000 11074.04296875  1077983.87500000 858785.56250000 
0.11800    27813080.00000000 17760650.00000000 44444108.00000000 10804.89648438  1056067.12500000 841444.68750000 
0.11900    27410878.00000000 17512912.00000000 43812776.00000000 10540.79003906  1034478.00000000 824359.43750000 
0.12000    27015014.00000000 17269128.00000000 43190992.00000000 10281.64062500  1013202.75000000 807517.50000000 
0.12100    26625194.00000000 17029004.00000000 42578960.00000000 10027.46582031  992244.62500000 790927.56250000 
0.12200    26240788.00000000 16792270.00000000 41975544.00000000 9778.30468750   971588.81250000 774572.56250000 
0.12300    25862284.00000000 16559063.00000000 41380644.00000000 9534.09765625   951243.56250000 758443.50000000 
0.12400    25488512.00000000 16328947.00000000 40794056.00000000 9294.77246094   931188.93750000 742547.87500000 
0.12500    25119984.00000000 16101608.00000000 40214856.00000000 9060.37500000   911424.00000000 726875.00000000 
0.12600    24756222.00000000 15877449.00000000 39643224.00000000 8830.96484375   891965.06250000 711435.25000000 
0.12700    24397062.00000000 15655814.00000000 39078732.00000000 8606.41992188   872788.43750000 696212.25000000 
0.12800    24042556.00000000 15436981.00000000 38521596.00000000 8386.73242188   853897.87500000 681207.68750000 
0.12900    23692336.00000000 15220593.00000000 37970508.00000000 8172.11328125   835296.43750000 666429.00000000 
0.13000    23346066.00000000 15006739.00000000 37426252.00000000 7962.29248047   816970.37500000 651863.37500000 
0.13100    23003988.00000000 14795146.00000000 36888080.00000000 7757.27441406   798929.62500000 637518.06250000 
0.13200    22665722.00000000 14585957.00000000 36355932.00000000 7557.14111328   781177.31250000 623383.37500000 
0.13300    22331588.00000000 14378969.00000000 35829660.00000000 7361.87841797   763695.18750000 609470.43750000 
0.13400    22000844.00000000 14174058.00000000 35308772.00000000 7171.36865234   746500.43750000 595777.56250000 
0.13500    21674032.00000000 13971261.00000000 34793412.00000000 6985.64013672   729589.56250000 582290.62500000 
0.13600    21350686.00000000 13770527.00000000 34283792.00000000 6804.57958984   712949.43750000 569026.18750000 
0.13700    21030858.00000000 13571789.00000000 33779144.00000000 6628.22705078   696594.12500000 555973.12500000 
0.13800    20714310.00000000 13375024.00000000 33279842.00000000 6456.44726562   680513.12500000 543138.43750000 
0.13900    20401410.00000000 13180208.00000000 32785954.00000000 6289.27978516   664714.81250000 530525.43750000 
0.14000    20091838.00000000 12987241.00000000 32296798.00000000 6126.58642578   649193.81250000 518117.96875000 
0.14100    19785570.00000000 12796164.00000000 31812882.00000000 5968.30810547   633947.56250000 505931.78125000 
0.14200    19482686.00000000 12606941.00000000 31333828.00000000 5814.41113281   618983.37500000 493957.87500000 
0.14300    19182936.00000000 12419574.00000000 30859672.00000000 5664.78173828   604289.25000000 482199.28125000 
0.14400    18886352.00000000 12233959.00000000 30390102.00000000 5519.25732422   589860.93750000 470654.12500000 
0.14500    18593028.00000000 12050156.00000000 29925648.00000000 5377.82812500   575710.81250000 459322.53125000 
0.14600    18303044.00000000 11868288.00000000 29466060.00000000 5240.49560547   561835.18750000 448204.06250000 
0.14700    18016142.00000000 11688107.00000000 29011168.00000000 5107.02050781   548230.31250000 437295.90625000 
0.14800    17732342.00000000 11509620.00000000 28560984.00000000 4977.30273438   534885.43750000 426598.18750000 
0.14900    17451768.00000000 11333048.00000000 28115542.00000000 4851.28417969   521804.65625000 416108.12500000 
0.15000    17174282.00000000 11158203.00000000 27675040.00000000 4728.87548828   508988.96875000 405823.68750000 
0.15100    16899800.00000000 10985190.00000000 27239020.00000000 4609.83691406   496433.40625000 395742.87500000 
0.15200    16628838.00000000 10813961.00000000 26807838.00000000 4494.30175781   484133.81250000 385868.87500000 
0.15300    16360751.00000000 10644473.00000000 26381514.00000000 4381.90673828   472087.09375000 376192.43750000 
0.15400    16095687.00000000 10476750.00000000 25959824.00000000 4272.69580078   460289.46875000 366715.37500000 
0.15500    15833839.00000000 10310932.00000000 25542874.00000000 4166.48242188   448739.15625000 357435.12500000 
0.15600    15575080.00000000 10146824.00000000 25130468.00000000 4063.19018555   437429.96875000 348348.68750000 
0.15700    15319512.00000000 9984563.00000000 24723010.00000000 3962.71655273   426365.43750000 339453.28125000 
0.15800    15066808.00000000 9823983.00000000 24320322.00000000 3864.88330078   415529.96875000 330745.75000000 
0.15900    14817426.00000000 9665269.00000000 23922108.00000000 3769.67675781   404929.53125000 322224.84375000 
0.16000    14571027.00000000 9508344.00000000 23528946.00000000 3676.92993164   394555.09375000 313883.43750000 
0.16100    14327757.00000000 9353369.00000000 23140552.00000000 3586.59375000   384407.15625000 305726.18750000 
0.16200    14087436.00000000 9200101.00000000 22756808.00000000 3498.51611328   374481.87500000 297745.62500000 
0.16300    13850229.00000000 9048698.00000000 22377554.00000000 3412.62768555   364765.78125000 289936.12500000 
0.16400    13616242.00000000 8898997.00000000 22003178.00000000 3328.82348633   355266.43750000 282300.90625000 
0.16500    13385129.00000000 8751233.00000000 21633710.00000000 3247.08349609   345969.40625000 274830.96875000 
0.16600    13157126.00000000 8605374.00000000 21268660.00000000 3167.23828125   336881.68750000 267523.62500000 
0.16700    12932146.00000000 8461227.00000000 20908470.00000000 3089.24853516   327985.65625000 260374.78125000 
0.16800    12710143.00000000 8318850.50000000 20553070.00000000 3013.05249023   319284.18750000 253386.51562500 
0.16900    12491170.00000000 8178304.00000000 20202148.00000000 2938.60498047   310779.93750000 246555.21875000 
0.17000    12275222.00000000 8039660.50000000 19856078.00000000 2865.81713867   302457.68750000 239872.90625000 
