# SAXS profile: number of points = 501, q_min = 0, q_max = 0.5, delta_q = 0.001
#    q    intensity 
0.00000    162233872.00000000 101202104.00000000 256270976.00000000 110473.55468750 8467135.00000000 6687345.50000000 
0.00100    162187584.00000000 101171160.00000000 256192096.00000000 110432.07812500 8464228.00000000 6685032.00000000 
0.00200    162044496.00000000 101079552.00000000 255960368.00000000 110309.60937500 8455659.00000000 6678258.50000000 
0.00300    161800048.00000000 100926736.00000000 255573184.00000000 110105.60156250 8441279.00000000 6666951.50000000 
0.00400    161453728.00000000 100712600.00000000 255028896.00000000 109820.71875000 8421220.00000000 6651193.00000000 
0.00500    161008720.00000000 100437768.00000000 254330352.00000000 109455.50000000 8395526.00000000 6630935.00000000 
0.00600    160471440.00000000 100104352.00000000 253485408.00000000 109011.63281250 8364278.00000000 6606333.00000000 
0.00700    159831200.00000000 99711752.00000000 252488000.00000000 108490.14062500 8327577.00000000 6577361.00000000 
0.00800    159103680.00000000 99262264.00000000 251343504.00000000 107891.30468750 8285358.50000000 6544157.00000000 
0.00900    158286592.00000000 98756568.00000000 250054320.00000000 107217.87500000 8237948.50000000 6506786.00000000 
0.01000    157381328.00000000 98192320.00000000 248624720.00000000 106471.46093750 8185301.50000000 6465383.00000000 
0.01100    156383264.00000000 97575176.00000000 247053488.00000000 105653.79687500 8127612.50000000 6419885.50000000 
0.01200    155299488.00000000 96903672.00000000 245349088.00000000 104767.92968750 8065004.50000000 6370582.00000000 
0.01300    154132320.00000000 96181000.00000000 243513744.00000000 103815.38281250 7997704.50000000 6317554.50000000 
0.01400    152887168.00000000 95408648.00000000 241551376.00000000 102798.92187500 7925824.00000000 6260907.50000000 
0.01500    151562800.00000000 94589112.00000000 239467792.00000000 101722.02343750 7849458.00000000 6200788.00000000 
0.01600    150162576.00000000 93722056.00000000 237263936.00000000 100585.64843750 7768873.50000000 6137307.00000000 
0.01700    148692080.00000000 92809776.00000000 234948112.00000000 99394.19531250  7684310.50000000 6070654.50000000 
0.01800    147151136.00000000 91855512.00000000 232522128.00000000 98149.91406250  7595924.00000000 6000967.00000000 
0.01900    145546608.00000000 90860608.00000000 229994608.00000000 96856.92187500  7503866.50000000 5928476.00000000 
0.02000    143879568.00000000 89827704.00000000 227370256.00000000 95516.33593750  7408397.00000000 5853255.50000000 
0.02100    142154272.00000000 88757552.00000000 224650832.00000000 94134.57031250  7309815.00000000 5775517.00000000 
0.02200    140372960.00000000 87653960.00000000 221848560.00000000 92712.76562500  7208203.50000000 5695430.50000000 
0.02300    138542816.00000000 86517744.00000000 218963184.00000000 91254.52343750  7103830.00000000 5613203.00000000 
0.02400    136665424.00000000 85352408.00000000 216005312.00000000 89763.62500000  6997014.50000000 5528986.00000000 
0.02500    134741280.00000000 84159504.00000000 212976272.00000000 88244.57812500  6887858.50000000 5442994.50000000 
0.02600    132780608.00000000 82942128.00000000 209886448.00000000 86699.35156250  6776720.00000000 5355319.50000000 
0.02700    130783384.00000000 81702840.00000000 206739888.00000000 85131.21875000  6663782.00000000 5266292.50000000 
0.02800    128753728.00000000 80443184.00000000 203542656.00000000 83544.80468750  6549250.00000000 5175949.00000000 
0.02900    126696808.00000000 79165512.00000000 200300288.00000000 81943.21093750  6433389.00000000 5084601.50000000 
0.03000    124615080.00000000 77871808.00000000 197017072.00000000 80330.20312500  6316452.00000000 4992387.00000000 
0.03100    122513560.00000000 76567200.00000000 193704880.00000000 78707.69531250  6198632.00000000 4899479.00000000 
0.03200    120395584.00000000 75251576.00000000 190366800.00000000 77079.14062500  6080179.00000000 4806011.00000000 
0.03300    118264568.00000000 73928160.00000000 187008240.00000000 75450.47656250  5961282.50000000 4712283.00000000 
0.03400    116125256.00000000 72598824.00000000 183635056.00000000 73821.06250000  5842197.50000000 4618357.50000000 
0.03500    113980424.00000000 71265528.00000000 180251392.00000000 72196.19531250  5723110.00000000 4524391.50000000 
0.03600    111833280.00000000 69929704.00000000 176864704.00000000 70577.33593750  5604280.00000000 4430551.50000000 
0.03700    109688328.00000000 68595680.00000000 173481856.00000000 68968.50781250  5485776.50000000 4337094.50000000 
0.03800    107548192.00000000 67264088.00000000 170105360.00000000 67371.20312500  5367900.50000000 4244107.50000000 
0.03900    105416352.00000000 65937580.00000000 166742944.00000000 65788.53125000  5250842.50000000 4151668.50000000 
0.04000    103295704.00000000 64618076.00000000 163397504.00000000 64222.58984375  5134720.00000000 4059991.50000000 
0.04100    101190320.00000000 63307464.00000000 160074416.00000000 62676.46484375  5019744.00000000 3969247.50000000 
0.04200    99103008.00000000 62007328.00000000 156779968.00000000 61151.14843750  4905992.00000000 3879479.75000000 
0.04300    97035808.00000000 60719580.00000000 153513872.00000000 59649.23828125  4793743.00000000 3790824.50000000 
0.04400    94990736.00000000 59445860.00000000 150286960.00000000 58172.10156250  4683023.00000000 3703433.00000000 
0.04500    92970440.00000000 58187816.00000000 147099232.00000000 56721.44921875  4574034.50000000 3617376.50000000 
0.04600    90979712.00000000 56946692.00000000 143954864.00000000 55298.91796875  4466832.00000000 3532709.25000000 
0.04700    89017728.00000000 55724092.00000000 140855712.00000000 53905.81250000  4361611.00000000 3449615.75000000 
0.04800    87087512.00000000 54520636.00000000 137810256.00000000 52542.93750000  4258364.00000000 3368083.25000000 
0.04900    85191528.00000000 53338576.00000000 134815536.00000000 51212.45312500  4157286.25000000 3288234.25000000 
0.05000    83332416.00000000 52177744.00000000 131878192.00000000 49913.72656250  4058382.75000000 3210085.50000000 
0.05100    81508776.00000000 51040960.00000000 128997848.00000000 48647.87500000  3961729.75000000 3133746.25000000 
0.05200    79723648.00000000 49927312.00000000 126179128.00000000 47415.69140625  3867387.00000000 3059227.00000000 
0.05300    77978680.00000000 48838548.00000000 123422832.00000000 46217.49609375  3775436.25000000 2986599.75000000 
0.05400    76275288.00000000 47775380.00000000 120730072.00000000 45053.66015625  3685919.25000000 2915845.50000000 
0.05500    74613040.00000000 46738448.00000000 118104552.00000000 43923.94140625  3598831.00000000 2847020.50000000 
0.05600    72994064.00000000 45727268.00000000 115545232.00000000 42828.92968750  3514199.00000000 2780142.25000000 
0.05700    71417360.00000000 44743408.00000000 113055096.00000000 41768.01171875  3432020.50000000 2715200.00000000 
0.05800    69885576.00000000 43786768.00000000 110633456.00000000 40741.00781250  3352293.50000000 2652241.50000000 
0.05900    68397208.00000000 42857548.00000000 108280864.00000000 39747.48046875  3275068.00000000 2591189.50000000 
0.06000    66952268.00000000 41955820.00000000 105998424.00000000 38787.28906250  3200268.50000000 2532084.00000000 
0.06100    65552448.00000000 41082436.00000000 103786392.00000000 37859.94921875  3127918.25000000 2474946.00000000 
0.06200    64196292.00000000 40235476.00000000 101643960.00000000 36964.10156250  3057958.50000000 2419643.75000000 
0.06300    62884544.00000000 39416892.00000000 99570968.00000000 36099.99218750  2990361.50000000 2366256.25000000 
0.06400    61615832.00000000 38624944.00000000 97567352.00000000 35266.03515625  2925067.75000000 2314667.00000000 
0.06500    60391100.00000000 37860524.00000000 95631240.00000000 34461.26562500  2862068.25000000 2264889.25000000 
0.06600    59208252.00000000 37122596.00000000 93763240.00000000 33685.76953125  2801282.25000000 2216870.25000000 
0.06700    58067440.00000000 36411552.00000000 91961040.00000000 32938.01171875  2742660.25000000 2170582.50000000 
0.06800    56967748.00000000 35726144.00000000 90224752.00000000 32216.44140625  2686127.00000000 2125953.00000000 
0.06900    55908508.00000000 35065940.00000000 88552160.00000000 31520.66210938  2631652.00000000 2082938.25000000 
0.07000    54888380.00000000 34430508.00000000 86942176.00000000 30849.38085938  2579119.25000000 2041484.12500000 
0.07100    53907224.00000000 33819412.00000000 85394016.00000000 30201.42578125  2528512.50000000 2001508.50000000 
0.07200    52962652.00000000 33232222.00000000 83904096.00000000 29575.84765625  2479697.50000000 1962976.00000000 
0.07300    52055112.00000000 32667880.00000000 82471752.00000000 28971.37695312  2432616.00000000 1925865.25000000 
0.07400    51181840.00000000 32125252.00000000 81095984.00000000 28387.16992188  2387227.75000000 1890049.37500000 
0.07500    50342652.00000000 31604390.00000000 79772872.00000000 27821.79687500  2343393.50000000 1855487.87500000 
0.07600    49535584.00000000 31104052.00000000 78501896.00000000 27274.26171875  2301103.25000000 1822127.25000000 
0.07700    48760020.00000000 30623344.00000000 77280432.00000000 26743.35937500  2260194.75000000 1789900.87500000 
0.07800    48013876.00000000 30161824.00000000 76107512.00000000 26228.41796875  2220662.50000000 1758743.75000000 
0.07900    47296928.00000000 29718438.00000000 74979360.00000000 25727.92382812  2182390.75000000 1728602.87500000 
0.08000    46606564.00000000 29292050.00000000 73893784.00000000 25241.30859375  2145287.75000000 1699385.50000000 
0.08100    45941672.00000000 28882490.00000000 72850632.00000000 24767.28710938  2109343.50000000 1671068.50000000 
0.08200    45301664.00000000 28488362.00000000 71845480.00000000 24305.19921875  2074387.37500000 1643574.00000000 
0.08300    44684444.00000000 28108984.00000000 70877752.00000000 23853.92382812  2040419.12500000 1616844.62500000 
0.08400    44089200.00000000 27743472.00000000 69944016.00000000 23412.91210938  2007348.12500000 1590833.00000000 
0.08500    43513964.00000000 27391008.00000000 69043560.00000000 22981.00195312  1975117.00000000 1565468.62500000 
0.08600    42958144.00000000 27050432.00000000 68173432.00000000 22557.82617188  1943627.12500000 1540707.87500000 
0.08700    42419800.00000000 26721702.00000000 67330856.00000000 22142.61328125  1912853.37500000 1516510.50000000 
0.08800    41897356.00000000 26403210.00000000 66516152.00000000 21734.73046875  1882698.12500000 1492813.87500000 
0.08900    41391236.00000000 26094714.00000000 65725132.00000000 21333.46679688  1853143.12500000 1469587.62500000 
0.09000    40898928.00000000 25795224.00000000 64956416.00000000 20938.32031250  1824122.37500000 1446777.12500000 
0.09100    40419196.00000000 25503924.00000000 64208672.00000000 20548.95507812  1795564.50000000 1424343.12500000 
0.09200    39951296.00000000 25220298.00000000 63479888.00000000 20165.03515625  1767450.25000000 1402243.87500000 
0.09300    39494404.00000000 24943500.00000000 62768424.00000000 19785.70312500  1739740.25000000 1380462.75000000 
0.09400    39047296.00000000 24672868.00000000 62072236.00000000 19411.02734375  1712371.62500000 1358951.62500000 
0.09500    38608564.00000000 24408150.00000000 61390240.00000000 19040.77734375  1685321.12500000 1337685.00000000 
0.09600    38177660.00000000 24148000.00000000 60720160.00000000 18674.57617188  1658555.37500000 1316635.75000000 
0.09700    37754088.00000000 23892732.00000000 60062028.00000000 18312.17968750  1632038.62500000 1295802.62500000 
0.09800    37336624.00000000 23641024.00000000 59413164.00000000 17953.70507812  1605766.25000000 1275132.62500000 
0.09900    36924304.00000000 23393176.00000000 58773556.00000000 17598.51757812  1579684.87500000 1254621.62500000 
0.10000    36516976.00000000 23147850.00000000 58140980.00000000 17247.11132812  1553815.25000000 1234257.25000000 
0.10100    36113700.00000000 22905146.00000000 57514776.00000000 16899.23632812  1528098.87500000 1214012.50000000 
0.10200    35713864.00000000 22664550.00000000 56894224.00000000 16554.88476562  1502545.50000000 1193894.75000000 
0.10300    35316844.00000000 22425824.00000000 56277972.00000000 16214.04394531  1477151.00000000 1173876.50000000 
0.10400    34922376.00000000 22188470.00000000 55665436.00000000 15876.70312500  1451891.12500000 1153969.50000000 
0.10500    34529680.00000000 21952260.00000000 55056336.00000000 15543.02539062  1426777.75000000 1134172.87500000 
0.10600    34139228.00000000 21716740.00000000 54448948.00000000 15213.14843750  1401786.00000000 1114445.87500000 
0.10700    33749664.00000000 21481994.00000000 53843708.00000000 14887.05078125  1376931.37500000 1094839.62500000 
0.10800    33361122.00000000 21247512.00000000 53239812.00000000 14564.86230469  1352215.00000000 1075305.37500000 
0.10900    32973256.00000000 21013432.00000000 52636468.00000000 14246.73437500  1327633.12500000 1055886.62500000 
0.11000    32585942.00000000 20779530.00000000 52034076.00000000 13932.75781250  1303190.12500000 1036562.62500000 
0.11100    32199042.00000000 20545418.00000000 51431316.00000000 13623.12597656  1278909.87500000 1017357.50000000 
0.11200    31812166.00000000 20311144.00000000 50829008.00000000 13317.85156250  1254769.00000000 998255.75000000 
0.11300    31425580.00000000 20076530.00000000 50226668.00000000 13017.25976562  1230796.00000000 979272.18750000 
0.11400    31039128.00000000 19841808.00000000 49623736.00000000 12721.49804688  1207011.50000000 960426.75000000 
0.11500    30652724.00000000 19606950.00000000 49020648.00000000 12430.51367188  1183413.12500000 941698.62500000 
0.11600    30266590.00000000 19371532.00000000 48417200.00000000 12144.52148438  1160002.75000000 923130.25000000 
0.11700    29880410.00000000 19135882.00000000 47813960.00000000 11863.69042969  1136804.37500000 904724.06250000 
0.11800    29494388.00000000 18900048.00000000 47209824.00000000 11587.89941406  1113811.50000000 886470.56250000 
0.11900    29108586.00000000 18663896.00000000 46605384.00000000 11317.47753906  1091062.62500000 868389.43750000 
0.12000    28723032.00000000 18427564.00000000 46001228.00000000 11052.35546875  1068549.62500000 850488.43750000 
0.12100    28338328.00000000 18191038.00000000 45397824.00000000 10792.80566406  1046295.25000000 832790.93750000 
0.12200    27953854.00000000 17954472.00000000 44794408.00000000 10538.73339844  1024304.43750000 815288.50000000 
0.12300    27570432.00000000 17718100.00000000 44192044.00000000 10290.30273438  1002596.37500000 797997.75000000 
0.12400    27187792.00000000 17481828.00000000 43590120.00000000 10047.29882812  981173.12500000 780929.75000000 
0.12500    26806068.00000000 17246014.00000000 42989404.00000000 9809.88183594   960046.62500000 764082.56250000 
0.12600    26426038.00000000 17010212.00000000 42390792.00000000 9578.20703125   939225.68750000 747484.00000000 
0.12700    26047134.00000000 16775148.00000000 41793808.00000000 9352.02148438   918718.00000000 731123.50000000 
0.12800    25670080.00000000 16540607.00000000 41198264.00000000 9131.44140625   898543.56250000 715015.50000000 
0.12900    25294698.00000000 16306667.00000000 40605972.00000000 8916.25097656   878690.62500000 699166.43750000 
0.13000    24921280.00000000 16073735.00000000 40015940.00000000 8706.62304688   859177.00000000 683580.12500000 
0.13100    24549982.00000000 15841820.00000000 39428508.00000000 8502.28027344   840005.31250000 668259.12500000 
0.13200    24181400.00000000 15610830.00000000 38844764.00000000 8303.23730469   821181.25000000 653209.75000000 
0.13300    23815248.00000000 15381185.00000000 38264652.00000000 8109.36083984   802707.93750000 638438.37500000 
0.13400    23451648.00000000 15152958.00000000 37688296.00000000 7920.50292969   784583.81250000 623935.56250000 
0.13500    23090738.00000000 14926138.00000000 37115876.00000000 7736.79003906   766820.12500000 609724.31250000 
0.13600    22733242.00000000 14700766.00000000 36548248.00000000 7557.75000000   749408.62500000 595792.68750000 
0.13700    22378764.00000000 14477200.00000000 35985068.00000000 7383.40625000   732344.37500000 582139.12500000 
0.13800    22027622.00000000 14255350.00000000 35426824.00000000 7213.62744141   715644.56250000 568764.12500000 
0.13900    21679736.00000000 14035344.00000000 34873584.00000000 7048.31640625   699298.37500000 555671.31250000 
0.14000    21335878.00000000 13817430.00000000 34325492.00000000 6887.26074219   683303.75000000 542860.68750000 
0.14100    20995566.00000000 13601533.00000000 33783524.00000000 6730.21630859   667651.25000000 530332.75000000 
0.14200    20659020.00000000 13387723.00000000 33247028.00000000 6577.19091797   652335.68750000 518066.59375000 
0.14300    20326288.00000000 13176080.00000000 32716372.00000000 6427.94482422   637368.00000000 506080.65625000 
0.14400    19997598.00000000 12966761.00000000 32191486.00000000 6282.28369141   622717.87500000 494355.59375000 
0.14500    19672798.00000000 12759812.00000000 31673224.00000000 6140.17285156   608413.87500000 482898.15625000 
0.14600    19352258.00000000 12555281.00000000 31160952.00000000 6001.41015625   594422.56250000 471698.37500000 
0.14700    19035836.00000000 12353136.00000000 30655206.00000000 5865.78320312   580753.56250000 460751.09375000 
0.14800    18723750.00000000 12153440.00000000 30155598.00000000 5733.14892578   567385.25000000 450053.18750000 
0.14900    18415642.00000000 11956301.00000000 29662808.00000000 5603.42236328   554316.31250000 439597.65625000 
0.15000    18111892.00000000 11761693.00000000 29176534.00000000 5476.45068359   541533.62500000 429374.84375000 
0.15100    17812228.00000000 11569717.00000000 28696946.00000000 5352.13916016   529045.50000000 419387.28125000 
0.15200    17516942.00000000 11380149.00000000 28223978.00000000 5230.31103516   516834.56250000 409624.87500000 
0.15300    17226072.00000000 11193370.00000000 27757690.00000000 5110.86962891   504893.09375000 400080.87500000 
0.15400    16939204.00000000 11009101.00000000 27297802.00000000 4993.65527344   493209.40625000 390744.06250000 
0.15500    16656796.00000000 10827382.00000000 26844800.00000000 4878.72607422   481780.81250000 381616.65625000 
0.15600    16378259.00000000 10648270.00000000 26398302.00000000 4765.81298828   470595.09375000 372685.90625000 
0.15700    16104045.00000000 10471803.00000000 25958222.00000000 4654.91503906   459646.59375000 363952.53125000 
0.15800    15833850.00000000 10297879.00000000 25524692.00000000 4545.94335938   448926.84375000 355399.75000000 
0.15900    15567866.00000000 10126429.00000000 25097660.00000000 4438.84863281   438432.43750000 347029.71875000 
0.16000    15305739.00000000 9957502.00000000 24677108.00000000 4333.51904297   428152.50000000 338836.96875000 
0.16100    15047724.00000000 9791186.00000000 24262812.00000000 4230.00097656   418082.78125000 330813.87500000 
0.16200    14793521.00000000 9627363.00000000 23854750.00000000 4128.19580078   408212.06250000 322953.00000000 
0.16300    14543276.00000000 9465944.00000000 23452848.00000000 4028.03344727   398534.90625000 315245.56250000 
0.16400    14296769.00000000 9306952.00000000 23056890.00000000 3929.57324219   389045.46875000 307695.25000000 
0.16500    14054051.00000000 9150417.00000000 22667290.00000000 3832.70385742   379741.40625000 300293.90625000 
0.16600    13815168.00000000 8996102.00000000 22283314.00000000 3737.46679688   370616.96875000 293034.71875000 
0.16700    13579691.00000000 8844160.00000000 21905166.00000000 3643.82177734   361661.71875000 285915.21875000 
0.16800    13347890.00000000 8694551.00000000 21532638.00000000 3551.77246094   352875.37500000 278926.25000000 
0.16900    13119614.00000000 8547164.00000000 21166188.00000000 3461.38891602   344251.56250000 272077.62500000 
0.17000    12894804.00000000 8402037.00000000 20804694.00000000 3372.60986328   335789.43750000 265348.37500000 
