# SAXS profile: number of points = 501, q_min = 0, q_max = 0.5, delta_q = 0.001
#    q    intensity 
0.00000    162234928.00000000 101201448.00000000 256271408.00000000 100544.00781250 8077697.00000000 6379682.50000000 
0.00100    162203216.00000000 101180960.00000000 256218272.00000000 100516.54687500 8075694.00000000 6378182.00000000 
0.00200    162105360.00000000 101118536.00000000 256060288.00000000 100432.50781250 8069793.00000000 6373522.00000000 
0.00300    161940704.00000000 101014640.00000000 255795520.00000000 100293.62500000 8059948.50000000 6365788.50000000 
0.00400    161704896.00000000 100869384.00000000 255427024.00000000 100099.66406250 8046167.50000000 6354892.50000000 
0.00500    161402976.00000000 100682680.00000000 254952064.00000000 99851.03906250  8028568.50000000 6341040.50000000 
0.00600    161033648.00000000 100454640.00000000 254372288.00000000 99547.62500000  8007025.00000000 6324074.00000000 
0.00700    160601120.00000000 100186616.00000000 253691552.00000000 99190.41406250  7981705.00000000 6304126.00000000 
0.00800    160099936.00000000 99878592.00000000 252907888.00000000 98780.14062500  7952575.00000000 6281210.00000000 
0.00900    159535456.00000000 99530744.00000000 252023568.00000000 98317.78906250  7919723.00000000 6255325.50000000 
0.01000    158910672.00000000 99144056.00000000 251038656.00000000 97804.17187500  7883229.00000000 6226563.50000000 
0.01100    158223312.00000000 98719088.00000000 249956544.00000000 97239.53125000  7843029.50000000 6194950.50000000 
0.01200    157475376.00000000 98254600.00000000 248778160.00000000 96626.21093750  7799371.50000000 6160541.00000000 
0.01300    156665200.00000000 97753464.00000000 247503008.00000000 95963.42968750  7752246.00000000 6123366.50000000 
0.01400    155795680.00000000 97215880.00000000 246136880.00000000 95254.05468750  7701699.00000000 6083546.50000000 
0.01500    154868928.00000000 96641672.00000000 244679120.00000000 94498.48437500  7647798.00000000 6041135.50000000 
0.01600    153885472.00000000 96033112.00000000 243130912.00000000 93699.28906250  7590689.00000000 5996153.00000000 
0.01700    152847984.00000000 95390448.00000000 241495872.00000000 92856.98437500  7530485.50000000 5948733.00000000 
0.01800    151755712.00000000 94714696.00000000 239778128.00000000 91972.73437500  7467226.00000000 5898873.00000000 
0.01900    150610240.00000000 94006352.00000000 237978000.00000000 91049.77343750  7401045.00000000 5846724.50000000 
0.02000    149415648.00000000 93266576.00000000 236097856.00000000 90087.56250000  7332032.50000000 5792353.50000000 
0.02100    148173328.00000000 92496776.00000000 234139648.00000000 89088.50781250  7260290.00000000 5735860.00000000 
0.02200    146882080.00000000 91697832.00000000 232108832.00000000 88055.75000000  7185998.50000000 5677272.50000000 
0.02300    145546064.00000000 90870368.00000000 230008576.00000000 86989.29687500  7109166.00000000 5616760.50000000 
0.02400    144166896.00000000 90016256.00000000 227836736.00000000 85891.71875000  7030037.50000000 5554373.50000000 
0.02500    142746416.00000000 89136456.00000000 225599696.00000000 84765.61718750  6948610.50000000 5490226.50000000 
0.02600    141287680.00000000 88231280.00000000 223300960.00000000 83611.25000000  6865050.00000000 5424409.00000000 
0.02700    139788976.00000000 87302856.00000000 220943776.00000000 82431.12500000  6779538.50000000 5356993.00000000 
0.02800    138256096.00000000 86352376.00000000 218527952.00000000 81228.14062500  6692136.50000000 5288162.50000000 
0.02900    136688464.00000000 85380960.00000000 216060368.00000000 80003.52343750  6603033.50000000 5217885.50000000 
0.03000    135090656.00000000 84389696.00000000 213542736.00000000 78759.44531250  6512312.50000000 5146385.50000000 
0.03100    133461976.00000000 83380088.00000000 210979056.00000000 77497.88281250  6420114.50000000 5073716.00000000 
0.03200    131806120.00000000 82353512.00000000 208371472.00000000 76219.14062500  6326555.50000000 4999986.00000000 
0.03300    130124968.00000000 81311080.00000000 205723408.00000000 74928.21093750  6231812.00000000 4925275.00000000 
0.03400    128420872.00000000 80253752.00000000 203038496.00000000 73624.41406250  6136013.50000000 4849733.00000000 
0.03500    126695320.00000000 79182656.00000000 200320192.00000000 72312.02343750  6039227.50000000 4773416.00000000 
0.03600    124950936.00000000 78100112.00000000 197571008.00000000 70990.17968750  5941639.00000000 4696450.50000000 
0.03700    123189096.00000000 77007000.00000000 194796256.00000000 69663.09375000  5843362.00000000 4618956.50000000 
0.03800    121413248.00000000 75904320.00000000 191998016.00000000 68331.78906250  5744522.00000000 4540996.00000000 
0.03900    119623936.00000000 74793960.00000000 189177088.00000000 66998.07812500  5645247.00000000 4462732.50000000 
0.04000    117823024.00000000 73676272.00000000 186340016.00000000 65663.61718750  5545603.00000000 4384182.00000000 
0.04100    116014776.00000000 72552304.00000000 183488464.00000000 64330.19140625  5445840.00000000 4305490.00000000 
0.04200    114198768.00000000 71423936.00000000 180624560.00000000 62999.47656250  5345959.50000000 4226726.00000000 
0.04300    112378512.00000000 70291904.00000000 177754288.00000000 61673.16406250  5246174.00000000 4147953.75000000 
0.04400    110554552.00000000 69158888.00000000 174879312.00000000 60353.26171875  5146459.00000000 4069341.00000000 
0.04500    108729616.00000000 68024088.00000000 172001680.00000000 59040.45703125  5047099.00000000 3990914.50000000 
0.04600    106905632.00000000 66889884.00000000 169124640.00000000 57736.42187500  4948053.00000000 3912783.00000000 
0.04700    105084616.00000000 65757092.00000000 166252032.00000000 56442.79687500  4849486.50000000 3835018.00000000 
0.04800    103267528.00000000 64626712.00000000 163385024.00000000 55161.05078125  4751490.00000000 3757715.25000000 
0.04900    101457064.00000000 63499776.00000000 160528624.00000000 53892.88281250  4654208.00000000 3680919.75000000 
0.05000    99653272.00000000 62377364.00000000 157683904.00000000 52638.28906250  4557688.00000000 3604713.25000000 
0.05100    97859520.00000000 61260904.00000000 154851824.00000000 51399.42578125  4461995.50000000 3529200.00000000 
0.05200    96076016.00000000 60150632.00000000 152037312.00000000 50176.66796875  4367204.00000000 3454387.25000000 
0.05300    94305272.00000000 59047676.00000000 149242896.00000000 48971.37890625  4273468.50000000 3380383.75000000 
0.05400    92547984.00000000 57953344.00000000 146469376.00000000 47784.57031250  4180800.75000000 3307244.00000000 
0.05500    90805888.00000000 56867660.00000000 143718768.00000000 46616.94140625  4089307.75000000 3235011.25000000 
0.05600    89079648.00000000 55792396.00000000 140993216.00000000 45469.57812500  3999042.75000000 3163718.25000000 
0.05700    87372088.00000000 54727776.00000000 138297632.00000000 44342.62109375  3910056.50000000 3093460.25000000 
0.05800    85682656.00000000 53674900.00000000 135629568.00000000 43237.19531250  3822404.25000000 3024237.50000000 
0.05900    84012784.00000000 52633640.00000000 132993672.00000000 42153.49218750  3736148.50000000 2956118.00000000 
0.06000    82364544.00000000 51605724.00000000 130389768.00000000 41092.52734375  3651341.75000000 2889141.50000000 
0.06100    80738000.00000000 50591076.00000000 127820528.00000000 40054.03906250  3568013.50000000 2823309.50000000 
0.06200    79133936.00000000 49590620.00000000 125286984.00000000 39039.01953125  3486212.50000000 2758697.75000000 
0.06300    77553864.00000000 48604460.00000000 122790840.00000000 38047.24218750  3405956.50000000 2695315.75000000 
0.06400    75997760.00000000 47633652.00000000 120332184.00000000 37079.21875000  3327293.75000000 2633172.00000000 
0.06500    74467224.00000000 46678468.00000000 117914840.00000000 36135.17187500  3250239.50000000 2572290.00000000 
0.06600    72962184.00000000 45739116.00000000 115536968.00000000 35215.26562500  3174830.25000000 2512709.75000000 
0.06700    71484176.00000000 44815800.00000000 113199992.00000000 34318.65234375  3101046.75000000 2454424.75000000 
0.06800    70032160.00000000 43909312.00000000 110905184.00000000 33446.35546875  3028939.25000000 2397433.50000000 
0.06900    68608176.00000000 43020012.00000000 108653408.00000000 32598.05078125  2958500.75000000 2341759.00000000 
0.07000    67210928.00000000 42147528.00000000 106446400.00000000 31773.24414062  2889738.50000000 2287412.00000000 
0.07100    65842460.00000000 41292040.00000000 104282280.00000000 30971.93164062  2822635.00000000 2234398.00000000 
0.07200    64501076.00000000 40454744.00000000 102163424.00000000 30193.89257812  2757213.75000000 2182707.25000000 
0.07300    63189532.00000000 39634956.00000000 100088048.00000000 29438.94531250  2693474.25000000 2132318.75000000 
0.07400    61905292.00000000 38832824.00000000 98058576.00000000 28706.66406250  2631370.25000000 2083240.87500000 
0.07500    60650384.00000000 38048700.00000000 96074656.00000000 27996.64648438  2570916.75000000 2035443.50000000 
0.07600    59423824.00000000 37282072.00000000 94135488.00000000 27308.28906250  2512049.00000000 1988927.62500000 
0.07700    58225760.00000000 36533708.00000000 92241224.00000000 26641.59375000  2454827.50000000 1943693.50000000 
0.07800    57056660.00000000 35803008.00000000 90392912.00000000 25995.77539062  2399197.75000000 1899725.00000000 
0.07900    55915040.00000000 35090020.00000000 88588712.00000000 25370.49414062  2345088.50000000 1856969.00000000 
0.08000    54802420.00000000 34394920.00000000 86829632.00000000 24765.06835938  2292541.50000000 1815441.62500000 
0.08100    53717512.00000000 33716868.00000000 85114328.00000000 24179.04296875  2241514.50000000 1775106.50000000 
0.08200    52659952.00000000 33056994.00000000 83443304.00000000 23611.60742188  2191937.75000000 1735925.37500000 
0.08300    51630204.00000000 32413392.00000000 81815256.00000000 23062.69335938  2143832.00000000 1697896.62500000 
0.08400    50627476.00000000 31787374.00000000 80230320.00000000 22531.27929688  2097122.62500000 1660976.87500000 
0.08500    49651204.00000000 31178058.00000000 78687792.00000000 22016.95312500  2051795.87500000 1625148.75000000 
0.08600    48701236.00000000 30585002.00000000 77186768.00000000 21519.02734375  2007795.75000000 1590386.25000000 
0.08700    47777160.00000000 30008560.00000000 75726864.00000000 21036.85742188  1965116.50000000 1556637.50000000 
0.08800    46878416.00000000 29447924.00000000 74306360.00000000 20569.80664062  1923683.00000000 1523911.12500000 
0.08900    46004636.00000000 28902864.00000000 72926368.00000000 20117.24023438  1883461.50000000 1492135.12500000 
0.09000    45155064.00000000 28373296.00000000 71584696.00000000 19678.72851562  1844425.87500000 1461297.50000000 
0.09100    44329432.00000000 27858718.00000000 70280576.00000000 19253.47656250  1806561.37500000 1431366.37500000 
0.09200    43526580.00000000 27358682.00000000 69013272.00000000 18840.69140625  1769760.87500000 1402305.75000000 
0.09300    42746776.00000000 26873028.00000000 67782760.00000000 18439.97460938  1734046.37500000 1374091.37500000 
0.09400    41988576.00000000 26401338.00000000 66586372.00000000 18050.86328125  1699347.62500000 1346680.50000000 
0.09500    41252032.00000000 25943228.00000000 65424612.00000000 17672.59570312  1665620.75000000 1320040.87500000 
0.09600    40536068.00000000 25498240.00000000 64295588.00000000 17304.62500000  1632833.62500000 1294139.37500000 
0.09700    39840816.00000000 25066166.00000000 63199100.00000000 16946.48632812  1600946.87500000 1268957.87500000 
0.09800    39164296.00000000 24646446.00000000 62133364.00000000 16597.51953125  1569919.00000000 1244473.62500000 
0.09900    38507520.00000000 24238816.00000000 61098196.00000000 16257.28320312  1539713.00000000 1220631.25000000 
0.10000    37868508.00000000 23842562.00000000 60091840.00000000 15925.21777344  1510277.50000000 1197399.37500000 
0.10100    37247664.00000000 23457658.00000000 59113280.00000000 15600.95800781  1481596.75000000 1174753.75000000 
0.10200    36643488.00000000 23083570.00000000 58162380.00000000 15283.96582031  1453626.00000000 1152678.25000000 
0.10300    36055544.00000000 22719718.00000000 57236980.00000000 14973.83886719  1426320.62500000 1131121.37500000 
0.10400    35483252.00000000 22366070.00000000 56337072.00000000 14670.09570312  1399663.25000000 1110091.12500000 
0.10500    34926412.00000000 22021948.00000000 55461372.00000000 14372.38378906  1373607.62500000 1089525.12500000 
0.10600    34383688.00000000 21686976.00000000 54608612.00000000 14080.38769531  1348116.62500000 1069410.62500000 
0.10700    33855112.00000000 21360930.00000000 53777688.00000000 13793.80761719  1323183.87500000 1049728.00000000 
0.10800    33339722.00000000 21043318.00000000 52968176.00000000 13512.07031250  1298734.25000000 1030453.56250000 
0.10900    32837046.00000000 20733606.00000000 52178924.00000000 13235.19140625  1274792.50000000 1011556.68750000 
0.11000    32346256.00000000 20431806.00000000 51409004.00000000 12962.67285156  1251303.12500000 993028.93750000 
0.11100    31867196.00000000 20137152.00000000 50657296.00000000 12694.41992188  1228243.62500000 974836.06250000 
0.11200    31399194.00000000 19849746.00000000 49923296.00000000 12430.03417969  1205592.62500000 956964.18750000 
0.11300    30941638.00000000 19568812.00000000 49205796.00000000 12169.49902344  1183321.50000000 939391.31250000 
0.11400    30494136.00000000 19294312.00000000 48504196.00000000 11912.59765625  1161418.50000000 922111.43750000 
0.11500    30055676.00000000 19025540.00000000 47817408.00000000 11659.00976562  1139854.75000000 905101.68750000 
0.11600    29626326.00000000 18762664.00000000 47145192.00000000 11408.72363281  1118631.25000000 888345.43750000 
0.11700    29205960.00000000 18505144.00000000 46486652.00000000 11161.56933594  1097703.37500000 871834.93750000 
0.11800    28793014.00000000 18252422.00000000 45840500.00000000 10917.48339844  1077060.25000000 855544.06250000 
0.11900    28387994.00000000 18004650.00000000 45206416.00000000 10676.30566406  1056706.75000000 839472.25000000 
0.12000    27990286.00000000 17761420.00000000 44584340.00000000 10437.93554688  1036612.00000000 823602.25000000 
0.12100    27599160.00000000 17522562.00000000 43972444.00000000 10202.46289062  1016776.68750000 807936.18750000 
0.12200    27214652.00000000 17287498.00000000 43370568.00000000 9969.86914062   997167.87500000 792463.87500000 
0.12300    26836158.00000000 17056388.00000000 42778960.00000000 9739.87500000   977804.56250000 777160.93750000 
0.12400    26463150.00000000 16828596.00000000 42195980.00000000 9512.72265625   958658.12500000 762037.06250000 
0.12500    26095844.00000000 16604369.00000000 41621436.00000000 9288.23535156   939727.37500000 747077.37500000 
0.12600    25733774.00000000 16383130.00000000 41054880.00000000 9066.57324219   921007.43750000 732277.25000000 
0.12700    25376302.00000000 16164933.00000000 40496108.00000000 8847.61523438   902497.93750000 717643.62500000 
0.12800    25023554.00000000 15949605.00000000 39944556.00000000 8631.45996094   884180.56250000 703158.75000000 
0.12900    24675000.00000000 15736762.00000000 39399688.00000000 8418.15234375   866062.31250000 688827.37500000 
0.13000    24330856.00000000 15526315.00000000 38860852.00000000 8207.66015625   848143.68750000 674640.00000000 
0.13100    23990212.00000000 15318265.00000000 38327932.00000000 8000.09082031   830410.68750000 660609.87500000 
0.13200    23653280.00000000 15112354.00000000 37801256.00000000 7795.43750000   812862.37500000 646718.37500000 
0.13300    23320118.00000000 14908583.00000000 37279536.00000000 7593.82080078   795521.37500000 632980.62500000 
0.13400    22990274.00000000 14706611.00000000 36763060.00000000 7395.22314453   778355.12500000 619382.93750000 
0.13500    22663458.00000000 14506554.00000000 36251344.00000000 7199.72363281   761385.75000000 605930.93750000 
0.13600    22339920.00000000 14308258.00000000 35744276.00000000 7007.39794922   744606.31250000 592623.12500000 
0.13700    22019204.00000000 14111511.00000000 35241688.00000000 6818.33593750   728026.00000000 579471.00000000 
0.13800    21701362.00000000 13916385.00000000 34743244.00000000 6632.50439453   711630.68750000 566470.25000000 
0.13900    21386208.00000000 13722800.00000000 34249020.00000000 6450.02832031   695437.81250000 553618.50000000 
0.14000    21073648.00000000 13530641.00000000 33758824.00000000 6270.91503906   679446.00000000 540918.87500000 
0.14100    20763886.00000000 13339943.00000000 33271970.00000000 6095.27832031   663655.62500000 528377.31250000 
0.14200    20456460.00000000 13150512.00000000 32789474.00000000 5923.07568359   648064.00000000 515990.93750000 
0.14300    20151562.00000000 12962456.00000000 32310238.00000000 5754.39746094   632685.37500000 503766.46875000 
0.14400    19848872.00000000 12775622.00000000 31834472.00000000 5589.25976562   617514.62500000 491703.87500000 
0.14500    19549018.00000000 12590126.00000000 31362404.00000000 5427.71630859   602563.37500000 479808.31250000 
0.14600    19251262.00000000 12405891.00000000 30893930.00000000 5269.79687500   587820.18750000 468076.34375000 
0.14700    18955944.00000000 12222869.00000000 30428734.00000000 5115.53564453   573300.37500000 456517.31250000 
0.14800    18663024.00000000 12041037.00000000 29966886.00000000 4964.90185547   559006.43750000 445133.31250000 
0.14900    18372314.00000000 11860394.00000000 29508634.00000000 4817.89746094   544929.06250000 433922.15625000 
0.15000    18083860.00000000 11681057.00000000 29053476.00000000 4674.61279297   531082.93750000 422885.65625000 
0.15100    17798040.00000000 11502861.00000000 28601986.00000000 4534.94433594   517463.21875000 412029.06250000 
0.15200    17514432.00000000 11325969.00000000 28154064.00000000 4399.01757812   504081.37500000 401355.18750000 
0.15300    17233324.00000000 11150428.00000000 27709404.00000000 4266.71728516   490927.43750000 390866.34375000 
0.15400    16954430.00000000 10975907.00000000 27268116.00000000 4138.01855469   478006.00000000 380552.37500000 
0.15500    16678070.00000000 10802889.00000000 26830580.00000000 4012.92236328   465331.53125000 370431.81250000 
0.15600    16404056.00000000 10630960.00000000 26396618.00000000 3891.44091797   452886.37500000 360492.21875000 
0.15700    16132663.00000000 10460526.00000000 25966214.00000000 3773.48608398   440682.81250000 350745.18750000 
0.15800    15863671.00000000 10291288.00000000 25539528.00000000 3659.02758789   428718.87500000 341180.43750000 
0.15900    15597254.00000000 10123514.00000000 25116542.00000000 3548.07275391   416996.15625000 331808.81250000 
0.16000    15333400.00000000 9957090.00000000 24697416.00000000 3440.49194336   405509.90625000 322623.93750000 
0.16100    15072182.00000000 9792109.00000000 24282310.00000000 3336.33740234   394266.96875000 313628.12500000 
0.16200    14813708.00000000 9628570.00000000 23870994.00000000 3235.45141602   383264.12500000 304823.62500000 
0.16300    14557769.00000000 9466543.00000000 23463668.00000000 3137.78320312   372496.00000000 296206.18750000 
0.16400    14304754.00000000 9306026.00000000 23060466.00000000 3043.36694336   361966.87500000 287776.93750000 
0.16500    14054224.00000000 9146968.00000000 22661292.00000000 2952.04028320   351674.96875000 279535.28125000 
0.16600    13806598.00000000 8989535.00000000 22266404.00000000 2863.77099609   341616.25000000 271476.78125000 
0.16700    13561786.00000000 8833671.00000000 21875790.00000000 2778.44091797   331792.56250000 263602.75000000 
0.16800    13319796.00000000 8679426.00000000 21489326.00000000 2696.06201172   322194.37500000 255911.00000000 
0.16900    13080805.00000000 8526789.00000000 21107446.00000000 2616.51269531   312830.28125000 248404.03125000 
0.17000    12844642.00000000 8375913.00000000 20729800.00000000 2539.69702148   303690.43750000 241072.79687500 
