# SAXS profile: number of points = 501, q_min = 0, q_max = 0.5, delta_q = 0.001
#    q    intensity 
0.00000    162236464.00000000 101201312.00000000 256271136.00000000 103803.15625000 8207522.00000000 6482281.00000000 
0.00100    162201936.00000000 101179504.00000000 256213712.00000000 103773.13281250 8205432.50000000 6480616.00000000 
0.00200    162094688.00000000 101112704.00000000 256043712.00000000 103684.33593750 8199115.50000000 6475627.00000000 
0.00300    161915952.00000000 101000680.00000000 255759232.00000000 103536.53125000 8188556.00000000 6467332.50000000 
0.00400    161662448.00000000 100844776.00000000 255362336.00000000 103329.15625000 8173816.00000000 6455802.50000000 
0.00500    161336512.00000000 100644728.00000000 254851664.00000000 103063.65625000 8154884.50000000 6440915.00000000 
0.00600    160940544.00000000 100399432.00000000 254229680.00000000 102740.62500000 8131844.00000000 6422803.00000000 
0.00700    160472960.00000000 100111680.00000000 253496688.00000000 102359.57031250 8104731.50000000 6401471.00000000 
0.00800    159935424.00000000 99781336.00000000 252654320.00000000 101922.60937500 8073558.00000000 6376959.00000000 
0.00900    159328336.00000000 99408384.00000000 251703968.00000000 101429.03125000 8038342.00000000 6349313.00000000 
0.01000    158654672.00000000 98993032.00000000 250646080.00000000 100880.60156250 7999207.00000000 6318545.00000000 
0.01100    157915872.00000000 98536888.00000000 249482512.00000000 100279.06250000 7956222.00000000 6284760.00000000 
0.01200    157110032.00000000 98039328.00000000 248216864.00000000 99623.78906250  7909471.50000000 6247960.00000000 
0.01300    156237952.00000000 97502296.00000000 246846816.00000000 98917.90625000  7858955.00000000 6208306.50000000 
0.01400    155303200.00000000 96925984.00000000 245379696.00000000 98160.78906250  7804837.00000000 6165725.00000000 
0.01500    154306128.00000000 96310864.00000000 243814896.00000000 97355.47656250  7747149.50000000 6120367.50000000 
0.01600    153249232.00000000 95658992.00000000 242154016.00000000 96501.96875000  7686045.00000000 6072320.50000000 
0.01700    152134256.00000000 94970928.00000000 240402208.00000000 95602.50781250  7621605.00000000 6021642.50000000 
0.01800    150960784.00000000 94247520.00000000 238557808.00000000 94659.07031250  7553895.50000000 5968398.50000000 
0.01900    149731504.00000000 93488872.00000000 236627792.00000000 93672.81250000  7483050.50000000 5912731.00000000 
0.02000    148449696.00000000 92697480.00000000 234613008.00000000 92645.97656250  7409265.00000000 5854649.00000000 
0.02100    147115088.00000000 91874136.00000000 232517984.00000000 91579.70312500  7332512.00000000 5794298.50000000 
0.02200    145730528.00000000 91020504.00000000 230342320.00000000 90475.95312500  7253039.50000000 5731783.50000000 
0.02300    144299152.00000000 90136112.00000000 228093104.00000000 89337.20312500  7170915.50000000 5667205.00000000 
0.02400    142821232.00000000 89224008.00000000 225770128.00000000 88164.70312500  7086292.50000000 5600608.50000000 
0.02500    141299232.00000000 88284632.00000000 223378560.00000000 86960.84375000  6999253.00000000 5532160.00000000 
0.02600    139736896.00000000 87319256.00000000 220922336.00000000 85727.99218750  6910027.00000000 5461958.00000000 
0.02700    138135088.00000000 86329560.00000000 218403952.00000000 84467.38281250  6818662.00000000 5390087.50000000 
0.02800    136494304.00000000 85316840.00000000 215826608.00000000 83181.06250000  6725336.00000000 5316665.00000000 
0.02900    134819680.00000000 84282552.00000000 213193888.00000000 81871.91406250  6630213.50000000 5241787.50000000 
0.03000    133112928.00000000 83227840.00000000 210510016.00000000 80541.75781250  6533381.00000000 5165562.00000000 
0.03100    131375488.00000000 82154064.00000000 207778336.00000000 79192.50000000  6435013.00000000 5088200.00000000 
0.03200    129610760.00000000 81062512.00000000 205004208.00000000 77826.00781250  6335270.50000000 5009692.00000000 
0.03300    127819552.00000000 79955840.00000000 202186928.00000000 76444.94531250  6234252.00000000 4930164.00000000 
0.03400    126005080.00000000 78833880.00000000 199332800.00000000 75050.96093750  6132159.00000000 4849747.50000000 
0.03500    124169528.00000000 77698808.00000000 196445920.00000000 73647.21875000  6029074.00000000 4768608.50000000 
0.03600    122315944.00000000 76551664.00000000 193530224.00000000 72233.89843750  5925151.00000000 4686812.50000000 
0.03700    120445912.00000000 75394600.00000000 190586832.00000000 70813.96093750  5820590.50000000 4604458.00000000 
0.03800    118560880.00000000 74229144.00000000 187622704.00000000 69390.03125000  5715501.50000000 4521675.50000000 
0.03900    116665240.00000000 73055656.00000000 184640080.00000000 67963.57031250  5609966.00000000 4438615.00000000 
0.04000    114759504.00000000 71876072.00000000 181641360.00000000 66536.14843750  5504165.00000000 4355244.50000000 
0.04100    112847016.00000000 70692120.00000000 178630768.00000000 65110.32421875  5398268.00000000 4271817.50000000 
0.04200    110929016.00000000 69503872.00000000 175611808.00000000 63687.46484375  5292340.00000000 4188334.25000000 
0.04300    109008448.00000000 68313896.00000000 172588432.00000000 62269.33203125  5186536.50000000 4104996.00000000 
0.04400    107087656.00000000 67122816.00000000 169563456.00000000 60858.07031250  5080970.50000000 4021809.00000000 
0.04500    105167840.00000000 65933076.00000000 166540160.00000000 59455.14843750  4975784.50000000 3938896.50000000 
0.04600    103251072.00000000 64744472.00000000 163521808.00000000 58062.25781250  4871112.00000000 3856357.25000000 
0.04700    101339744.00000000 63559472.00000000 160512160.00000000 56680.56640625  4767023.00000000 3774300.25000000 
0.04800    99436488.00000000 62378568.00000000 157512368.00000000 55311.91796875  4663632.50000000 3692772.50000000 
0.04900    97541744.00000000 61203104.00000000 154528784.00000000 53957.99609375  4561054.50000000 3611907.50000000 
0.05000    95658624.00000000 60034216.00000000 151561024.00000000 52619.73046875  4459422.50000000 3531730.50000000 
0.05100    93788544.00000000 58873064.00000000 148612272.00000000 51298.98046875  4358822.50000000 3452355.75000000 
0.05200    91932792.00000000 57720508.00000000 145687920.00000000 49995.76562500  4259284.50000000 3373830.75000000 
0.05300    90093296.00000000 56577684.00000000 142787920.00000000 48712.30078125  4160945.75000000 3296251.00000000 
0.05400    88271552.00000000 55445276.00000000 139915472.00000000 47449.29296875  4063919.00000000 3219644.25000000 
0.05500    86469072.00000000 54325000.00000000 137073280.00000000 46207.89453125  3968217.00000000 3144137.25000000 
0.05600    84686768.00000000 53216828.00000000 134262992.00000000 44989.00781250  3873955.25000000 3069727.75000000 
0.05700    82926720.00000000 52122236.00000000 131487080.00000000 43793.03125000  3781200.75000000 2996487.50000000 
0.05800    81190248.00000000 51041604.00000000 128746584.00000000 42621.04687500  3689983.00000000 2924464.00000000 
0.05900    79477656.00000000 49975912.00000000 126045264.00000000 41473.73046875  3600396.00000000 2853691.25000000 
0.06000    77791456.00000000 48925756.00000000 123382880.00000000 40351.52734375  3512480.50000000 2784255.00000000 
0.06100    76131360.00000000 47892112.00000000 120763120.00000000 39255.28125000  3426288.75000000 2716138.50000000 
0.06200    74498264.00000000 46874744.00000000 118186016.00000000 38185.25000000  3341829.50000000 2649418.25000000 
0.06300    72895016.00000000 45875380.00000000 115653232.00000000 37141.33203125  3259192.50000000 2584104.00000000 
0.06400    71320504.00000000 44893920.00000000 113166576.00000000 36124.10546875  3178356.75000000 2520200.25000000 
0.06500    69775440.00000000 43930528.00000000 110726992.00000000 35134.62109375  3099380.50000000 2457768.75000000 
0.06600    68261720.00000000 42985928.00000000 108334976.00000000 34171.57031250  3022292.75000000 2396808.00000000 
0.06700    66778356.00000000 42060688.00000000 105992336.00000000 33235.94140625  2947103.75000000 2337331.25000000 
0.06800    65327300.00000000 41155000.00000000 103699104.00000000 32327.39648438  2873812.50000000 2279349.25000000 
0.06900    63908544.00000000 40268724.00000000 101456264.00000000 31446.32031250  2802457.50000000 2222882.00000000 
0.07000    62521828.00000000 39402784.00000000 99264440.00000000 30592.19335938  2732998.00000000 2167923.75000000 
0.07100    61168408.00000000 38556788.00000000 97123784.00000000 29764.87304688  2665457.75000000 2114453.25000000 
0.07200    59846912.00000000 37730872.00000000 95034984.00000000 28964.05664062  2599816.75000000 2062502.62500000 
0.07300    58559560.00000000 36925752.00000000 92998184.00000000 28189.81054688  2536101.50000000 2012043.75000000 
0.07400    57304532.00000000 36140732.00000000 91013360.00000000 27441.03906250  2474271.50000000 1963067.12500000 
0.07500    56083072.00000000 35376660.00000000 89080880.00000000 26718.15625000  2414305.50000000 1915576.87500000 
0.07600    54894188.00000000 34632696.00000000 87199392.00000000 26020.37890625  2356204.25000000 1869527.00000000 
0.07700    53738588.00000000 33909084.00000000 85370352.00000000 25347.21679688  2299923.75000000 1824945.37500000 
0.07800    52615556.00000000 33205682.00000000 83593080.00000000 24698.21484375  2245453.25000000 1781769.75000000 
0.07900    51524752.00000000 32522458.00000000 81866920.00000000 24072.67382812  2192746.75000000 1740000.87500000 
0.08000    50466616.00000000 31859332.00000000 80191088.00000000 23470.01367188  2141787.50000000 1699603.62500000 
0.08100    49440176.00000000 31216024.00000000 78565632.00000000 22889.80859375  2092535.50000000 1660549.37500000 
0.08200    48444780.00000000 30592142.00000000 76989816.00000000 22331.33007812  2044958.25000000 1622807.75000000 
0.08300    47480780.00000000 29987526.00000000 75462408.00000000 21793.80273438  1999015.75000000 1586352.75000000 
0.08400    46546524.00000000 29401986.00000000 73983416.00000000 21276.59765625  1954653.12500000 1551156.75000000 
0.08500    45642844.00000000 28835030.00000000 72550960.00000000 20779.04296875  1911827.75000000 1517194.75000000 
0.08600    44768376.00000000 28286290.00000000 71165880.00000000 20300.34570312  1870513.62500000 1484407.87500000 
0.08700    43922740.00000000 27755652.00000000 69825432.00000000 19839.90234375  1830643.62500000 1452768.37500000 
0.08800    43104568.00000000 27242338.00000000 68529664.00000000 19396.75585938  1792182.62500000 1422244.62500000 
0.08900    42314356.00000000 26746432.00000000 67277640.00000000 18970.33007812  1755098.25000000 1392790.75000000 
0.09000    41550628.00000000 26267152.00000000 66067360.00000000 18559.83789062  1719289.12500000 1364388.50000000 
0.09100    40812964.00000000 25804198.00000000 64898348.00000000 18164.52929688  1684767.75000000 1336967.50000000 
0.09200    40100724.00000000 25357062.00000000 63769432.00000000 17783.54882812  1651436.25000000 1310502.37500000 
0.09300    39412736.00000000 24925196.00000000 62679564.00000000 17416.54882812  1619282.00000000 1284966.50000000 
0.09400    38748380.00000000 24508172.00000000 61626212.00000000 17062.24218750  1588218.62500000 1260308.50000000 
0.09500    38106908.00000000 24105668.00000000 60610204.00000000 16720.11132812  1558206.25000000 1236486.37500000 
0.09600    37487620.00000000 23716978.00000000 59628640.00000000 16389.69140625  1529217.37500000 1213466.87500000 
0.09700    36889232.00000000 23341938.00000000 58681240.00000000 16070.07714844  1501178.62500000 1191200.87500000 
0.09800    36311404.00000000 22979686.00000000 57766364.00000000 15760.57031250  1474058.75000000 1169667.37500000 
0.09900    35753248.00000000 22629944.00000000 56882236.00000000 15460.65820312  1447783.12500000 1148819.37500000 
0.10000    35214028.00000000 22292080.00000000 56028424.00000000 15169.83203125  1422329.25000000 1128610.75000000 
0.10100    34692728.00000000 21965372.00000000 55203176.00000000 14886.96777344  1397635.12500000 1109010.62500000 
0.10200    34188780.00000000 21649910.00000000 54405320.00000000 14611.90429688  1373672.62500000 1089988.62500000 
0.10300    33700812.00000000 21344488.00000000 53633344.00000000 14343.90722656  1350366.75000000 1071510.87500000 
0.10400    33228512.00000000 21049268.00000000 52886396.00000000 14082.48925781  1327705.87500000 1053525.75000000 
0.10500    32771324.00000000 20763402.00000000 52163048.00000000 13827.28027344  1305635.87500000 1036020.93750000 
0.10600    32327802.00000000 20486314.00000000 51461844.00000000 13577.44238281  1284114.50000000 1018943.93750000 
0.10700    31897394.00000000 20217796.00000000 50781984.00000000 13332.76953125  1263101.75000000 1002282.87500000 
0.10800    31479732.00000000 19957134.00000000 50121600.00000000 13092.73339844  1242554.25000000 986007.25000000 
0.10900    31073620.00000000 19703998.00000000 49480060.00000000 12856.96484375  1222461.50000000 970071.93750000 
0.11000    30678556.00000000 19458014.00000000 48856664.00000000 12625.21679688  1202753.75000000 954464.81250000 
0.11100    30293864.00000000 19218672.00000000 48249520.00000000 12396.84863281  1183435.87500000 939153.06250000 
0.11200    29918820.00000000 18985394.00000000 47657740.00000000 12171.74804688  1164456.25000000 924115.50000000 
0.11300    29552556.00000000 18758070.00000000 47080696.00000000 11949.51464844  1145789.37500000 909326.56250000 
0.11400    29194950.00000000 18535946.00000000 46516952.00000000 11729.92187500  1127408.25000000 894781.43750000 
0.11500    28844888.00000000 18318882.00000000 45965460.00000000 11512.81152344  1109275.50000000 880436.18750000 
0.11600    28502148.00000000 18106610.00000000 45425360.00000000 11297.88183594  1091396.87500000 866278.43750000 
0.11700    28165982.00000000 17898400.00000000 44896468.00000000 11084.95312500  1073731.75000000 852296.87500000 
0.11800    27835742.00000000 17694122.00000000 44376800.00000000 10873.78808594  1056257.12500000 838473.12500000 
0.11900    27511204.00000000 17493526.00000000 43866392.00000000 10664.27832031  1038967.37500000 824791.25000000 
0.12000    27191572.00000000 17296136.00000000 43363660.00000000 10456.46093750  1021831.62500000 811237.50000000 
0.12100    26876660.00000000 17101790.00000000 42868888.00000000 10250.18847656  1004855.06250000 797804.75000000 
0.12200    26565810.00000000 16910160.00000000 42380580.00000000 10045.18066406  988006.62500000 784481.31250000 
0.12300    26258796.00000000 16720876.00000000 41898324.00000000 9841.69726562   971279.50000000 771253.93750000 
0.12400    25955208.00000000 16533835.00000000 41421712.00000000 9639.43945312   954663.93750000 758111.06250000 
0.12500    25654714.00000000 16348774.00000000 40949732.00000000 9438.49414062   938157.87500000 745055.18750000 
0.12600    25356926.00000000 16165495.00000000 40482660.00000000 9239.01562500   921755.56250000 732081.56250000 
0.12700    25061672.00000000 15983735.00000000 40018884.00000000 9040.72558594   905437.81250000 719174.93750000 
0.12800    24768254.00000000 15803373.00000000 39558944.00000000 8843.84765625   889208.37500000 706342.12500000 
0.12900    24476928.00000000 15624229.00000000 39101720.00000000 8648.42089844   873071.93750000 693574.87500000 
0.13000    24187258.00000000 15446075.00000000 38647100.00000000 8454.45898438   857012.75000000 680871.18750000 
0.13100    23899126.00000000 15268806.00000000 38194908.00000000 8261.89257812   841038.00000000 668232.68750000 
0.13200    23612198.00000000 15092266.00000000 37744772.00000000 8071.13085938   825144.50000000 655656.06250000 
0.13300    23326270.00000000 14916474.00000000 37296252.00000000 7881.97119141   809341.12500000 643144.18750000 
0.13400    23041326.00000000 14741287.00000000 36849056.00000000 7694.64453125   793617.43750000 630701.12500000 
0.13500    22757424.00000000 14566534.00000000 36403472.00000000 7509.15332031   777988.68750000 618324.25000000 
0.13600    22474050.00000000 14392127.00000000 35958632.00000000 7325.65087891   762454.12500000 606021.75000000 
0.13700    22191578.00000000 14218079.00000000 35514940.00000000 7144.25390625   747016.68750000 593789.25000000 
0.13800    21909542.00000000 14044382.00000000 35072104.00000000 6965.00146484   731679.12500000 581637.75000000 
0.13900    21627980.00000000 13870960.00000000 34629908.00000000 6788.11035156   716450.56250000 569568.31250000 
0.14000    21347276.00000000 13697651.00000000 34188760.00000000 6613.62060547   701336.18750000 557584.50000000 
0.14100    21066774.00000000 13524611.00000000 33747896.00000000 6441.62158203   686342.56250000 545692.68750000 
0.14200    20787048.00000000 13351723.00000000 33307676.00000000 6272.23779297   671473.43750000 533898.50000000 
0.14300    20507832.00000000 13179095.00000000 32868526.00000000 6105.53906250   656741.06250000 522208.50000000 
0.14400    20228916.00000000 13006653.00000000 32429650.00000000 5941.63232422   642143.06250000 510617.96875000 
0.14500    19950722.00000000 12834344.00000000 31991658.00000000 5780.69531250   627694.18750000 499145.00000000 
0.14600    19673234.00000000 12662365.00000000 31554546.00000000 5622.72216797   613403.62500000 487791.56250000 
0.14700    19396328.00000000 12490640.00000000 31118356.00000000 5467.81396484   599271.06250000 476560.87500000 
0.14800    19120152.00000000 12319184.00000000 30683098.00000000 5316.01904297   585309.75000000 465457.28125000 
0.14900    18844842.00000000 12148098.00000000 30248772.00000000 5167.46337891   571513.12500000 454488.34375000 
0.15000    18570538.00000000 11977379.00000000 29815724.00000000 5022.16650391   557901.50000000 443655.62500000 
0.15100    18297044.00000000 11807062.00000000 29383980.00000000 4880.18457031   544476.81250000 432974.81250000 
0.15200    18024644.00000000 11637235.00000000 28953726.00000000 4741.61279297   531252.62500000 422439.81250000 
0.15300    17753488.00000000 11467980.00000000 28525120.00000000 4606.44970703   518219.46875000 412057.12500000 
0.15400    17483522.00000000 11299242.00000000 28098140.00000000 4474.74072266   505387.59375000 401830.43750000 
0.15500    17214908.00000000 11131198.00000000 27673236.00000000 4346.47314453   492773.65625000 391772.43750000 
0.15600    16947578.00000000 10963859.00000000 27249954.00000000 4221.70166016   480364.96875000 381874.43750000 
0.15700    16682129.00000000 10797332.00000000 26829278.00000000 4100.41162109   468179.00000000 372152.31250000 
0.15800    16418069.00000000 10631516.00000000 26410734.00000000 3982.58740234   456211.06250000 362597.28125000 
0.15900    16155778.00000000 10466703.00000000 25994760.00000000 3868.24926758   444472.59375000 353219.96875000 
0.16000    15895331.00000000 10302755.00000000 25581474.00000000 3757.36059570   432957.43750000 344020.37500000 
0.16100    15636920.00000000 10139923.00000000 25171096.00000000 3649.94848633   421678.65625000 335004.28125000 
0.16200    15380487.00000000 9978157.00000000 24763666.00000000 3545.91235352   410626.93750000 326165.65625000 
0.16300    15126193.00000000 9817430.00000000 24359202.00000000 3445.18383789   399808.93750000 317513.21875000 
0.16400    14874070.00000000 9658074.00000000 23958206.00000000 3347.82519531   389229.65625000 309045.87500000 
0.16500    14624262.00000000 9499841.00000000 23560542.00000000 3253.70703125   378881.25000000 300764.56250000 
0.16600    14376976.00000000 9343048.00000000 23166536.00000000 3162.79321289   368772.65625000 292663.50000000 
0.16700    14131962.00000000 9187553.00000000 22775974.00000000 3074.98046875   358890.90625000 284748.68750000 
0.16800    13889529.00000000 9033453.00000000 22389434.00000000 2990.23754883   349248.00000000 277018.62500000 
0.16900    13649742.00000000 8880841.00000000 22007024.00000000 2908.50683594   339837.50000000 269473.18750000 
0.17000    13412661.00000000 8729800.00000000 21628416.00000000 2829.67041016   330657.18750000 262110.79687500 
