# SAXS profile: number of points = 501, q_min = 0, q_max = 0.5, delta_q = 0.001
#    q    intensity 
0.00000    162232816.00000000 101202280.00000000 256272256.00000000 107737.14843750 8361596.50000000 6604014.50000000 
0.00100    162192160.00000000 101174216.00000000 256200544.00000000 107700.06250000 8359057.00000000 6601961.50000000 
0.00200    162061744.00000000 101090936.00000000 255989056.00000000 107591.84375000 8351339.50000000 6595882.00000000 
0.00300    161840544.00000000 100951528.00000000 255637184.00000000 107410.33593750 8338478.50000000 6585771.00000000 
0.00400    161526832.00000000 100758208.00000000 255144256.00000000 107157.28906250 8320575.00000000 6571597.50000000 
0.00500    161123712.00000000 100509712.00000000 254512224.00000000 106833.57031250 8297572.00000000 6553570.50000000 
0.00600    160633600.00000000 100205800.00000000 253741328.00000000 106438.41406250 8269535.50000000 6531504.00000000 
0.00700    160054544.00000000 99849768.00000000 252837712.00000000 105975.01562500 8236628.50000000 6505531.00000000 
0.00800    159391248.00000000 99441232.00000000 251796384.00000000 105441.90625000 8198816.00000000 6475773.00000000 
0.00900    158645584.00000000 98980600.00000000 250623296.00000000 104842.09375000 8156214.50000000 6442254.50000000 
0.01000    157819888.00000000 98468656.00000000 249320080.00000000 104177.28906250 8108920.00000000 6405057.00000000 
0.01100    156912544.00000000 97905096.00000000 247890400.00000000 103447.69531250 8057049.00000000 6364150.00000000 
0.01200    155922752.00000000 97293728.00000000 246335648.00000000 102655.85937500 8000668.50000000 6319830.50000000 
0.01300    154854144.00000000 96634160.00000000 244658016.00000000 101803.83593750 7939963.50000000 6271978.00000000 
0.01400    153714704.00000000 95927504.00000000 242862400.00000000 100893.21875000 7875030.50000000 6220858.00000000 
0.01500    152502240.00000000 95176680.00000000 240952336.00000000 99925.96875000  7806025.50000000 6166496.00000000 
0.01600    151216816.00000000 94381616.00000000 238932576.00000000 98904.61718750  7733050.50000000 6109054.50000000 
0.01700    149865088.00000000 93544680.00000000 236804320.00000000 97831.22656250  7656313.50000000 6048628.00000000 
0.01800    148447504.00000000 92666568.00000000 234572336.00000000 96708.34375000  7575942.00000000 5985338.00000000 
0.01900    146966336.00000000 91750072.00000000 232241712.00000000 95538.70312500  7492169.50000000 5919279.00000000 
0.02000    145425824.00000000 90796136.00000000 229817088.00000000 94324.42968750  7405079.00000000 5850671.50000000 
0.02100    143829008.00000000 89806168.00000000 227302048.00000000 93069.79687500  7314850.50000000 5779650.00000000 
0.02200    142176304.00000000 88782368.00000000 224700768.00000000 91774.72656250  7221718.00000000 5706261.00000000 
0.02300    140473344.00000000 87727576.00000000 222019440.00000000 90444.08593750  7125833.50000000 5630734.50000000 
0.02400    138722400.00000000 86642224.00000000 219262384.00000000 89080.18750000  7027417.50000000 5553200.50000000 
0.02500    136925888.00000000 85528896.00000000 216434368.00000000 87685.49218750  6926658.50000000 5473818.00000000 
0.02600    135089648.00000000 84388992.00000000 213540096.00000000 86263.57031250  6823705.50000000 5392683.50000000 
0.02700    133212408.00000000 83225776.00000000 210586096.00000000 84816.64843750  6718824.00000000 5310009.50000000 
0.02800    131301208.00000000 82040424.00000000 207575936.00000000 83347.88281250  6612161.00000000 5225941.00000000 
0.02900    129358336.00000000 80834896.00000000 204514944.00000000 81860.07812500  6503883.00000000 5140599.00000000 
0.03000    127386248.00000000 79611616.00000000 201408416.00000000 80356.18750000  6394253.50000000 5054205.50000000 
0.03100    125389336.00000000 78371976.00000000 198261184.00000000 78837.94531250  6283397.50000000 4966802.50000000 
0.03200    123369736.00000000 77118552.00000000 195078704.00000000 77310.04687500  6171576.50000000 4878662.50000000 
0.03300    121332088.00000000 75853648.00000000 191868192.00000000 75774.14062500  6058966.50000000 4789850.00000000 
0.03400    119278000.00000000 74579136.00000000 188631760.00000000 74233.15625000  5945761.50000000 4700586.00000000 
0.03500    117211384.00000000 73295832.00000000 185373856.00000000 72689.77343750  5832070.00000000 4610939.50000000 
0.03600    115135776.00000000 72006320.00000000 182100480.00000000 71146.73437500  5718163.50000000 4521092.00000000 
0.03700    113054072.00000000 70712136.00000000 178818928.00000000 69605.48437500  5604179.50000000 4431194.50000000 
0.03800    110968560.00000000 69415832.00000000 175530624.00000000 68069.07812500  5490278.00000000 4341347.50000000 
0.03900    108884272.00000000 68119368.00000000 172243040.00000000 66540.05468750  5376610.00000000 4251690.00000000 
0.04000    106800696.00000000 66823952.00000000 168957024.00000000 65019.90625000  5263413.00000000 4162370.25000000 
0.04100    104723240.00000000 65531924.00000000 165681360.00000000 63511.48828125  5150775.50000000 4073493.75000000 
0.04200    102654264.00000000 64244212.00000000 162416688.00000000 62016.74609375  5038869.50000000 3985183.00000000 
0.04300    100595544.00000000 62963480.00000000 159169552.00000000 60537.29687500  4927863.50000000 3897555.00000000 
0.04400    98550904.00000000 61690384.00000000 155941712.00000000 59075.12500000  4817867.50000000 3810730.50000000 
0.04500    96521472.00000000 60426700.00000000 152737520.00000000 57632.08593750  4709001.50000000 3724790.50000000 
0.04600    94509760.00000000 59173972.00000000 149562512.00000000 56209.22656250  4601349.50000000 3639800.50000000 
0.04700    92518800.00000000 57933396.00000000 146420224.00000000 54808.07421875  4495110.00000000 3555952.75000000 
0.04800    90549552.00000000 56706716.00000000 143311232.00000000 53429.98437500  4390369.00000000 3473220.00000000 
0.04900    88604992.00000000 55495228.00000000 140241824.00000000 52076.92968750  4287127.50000000 3391750.25000000 
0.05000    86686568.00000000 54299348.00000000 137211952.00000000 50748.80859375  4185646.75000000 3311561.75000000 
0.05100    84796352.00000000 53120232.00000000 134228128.00000000 49447.32031250  4085899.00000000 3232782.25000000 
0.05200    82934512.00000000 51960036.00000000 131287872.00000000 48173.44921875  3987998.25000000 3155437.75000000 
0.05300    81104952.00000000 50818176.00000000 128397680.00000000 46927.56250000  3891985.75000000 3079593.50000000 
0.05400    79307880.00000000 49696816.00000000 125558352.00000000 45710.14453125  3797932.25000000 3005273.25000000 
0.05500    77543888.00000000 48596520.00000000 122771520.00000000 44521.57812500  3705874.75000000 2932538.75000000 
0.05600    75815144.00000000 47517480.00000000 120039968.00000000 43363.17578125  3615874.25000000 2861460.00000000 
0.05700    74122136.00000000 46460868.00000000 117365208.00000000 42234.58203125  3527968.75000000 2791989.50000000 
0.05800    72465104.00000000 45426912.00000000 114747384.00000000 41135.50390625  3442201.75000000 2724185.50000000 
0.05900    70847296.00000000 44415960.00000000 112189168.00000000 40066.51953125  3358570.50000000 2658111.75000000 
0.06000    69266112.00000000 43428824.00000000 109690896.00000000 39028.31640625  3277129.25000000 2593738.25000000 
0.06100    67724496.00000000 42465636.00000000 107253096.00000000 38019.58203125  3197818.75000000 2531066.50000000 
0.06200    66221736.00000000 41527156.00000000 104878064.00000000 37040.71875000  3120710.75000000 2470109.75000000 
0.06300    64758044.00000000 40613148.00000000 102565232.00000000 36091.16796875  3045769.50000000 2410885.50000000 
0.06400    63333460.00000000 39723828.00000000 100313872.00000000 35170.88281250  2973006.75000000 2353349.75000000 
0.06500    61949760.00000000 38859020.00000000 98126256.00000000 34279.45703125  2902352.50000000 2297514.00000000 
0.06600    60604872.00000000 38019304.00000000 96000944.00000000 33416.29296875  2833849.50000000 2243359.50000000 
0.06700    59299864.00000000 37204212.00000000 93937640.00000000 32580.61718750  2767446.50000000 2190878.75000000 
0.06800    58034164.00000000 36413664.00000000 91937472.00000000 31772.08984375  2703148.75000000 2140047.75000000 
0.06900    56807644.00000000 35647596.00000000 89998552.00000000 30990.03710938  2640840.50000000 2090823.75000000 
0.07000    55619732.00000000 34906448.00000000 88122040.00000000 30234.05859375  2580557.00000000 2043179.25000000 
0.07100    54470160.00000000 34188936.00000000 86305840.00000000 29502.50585938  2522234.00000000 1997117.87500000 
0.07200    53358176.00000000 33495234.00000000 84549064.00000000 28795.36718750  2465829.75000000 1952511.25000000 
0.07300    52283372.00000000 32824904.00000000 82851664.00000000 28112.15820312  2411277.75000000 1909428.37500000 
0.07400    51245268.00000000 32177772.00000000 81212112.00000000 27451.12109375  2358533.25000000 1867763.87500000 
0.07500    50242896.00000000 31553268.00000000 79629520.00000000 26812.05078125  2307577.00000000 1827512.50000000 
0.07600    49275552.00000000 30950440.00000000 78101768.00000000 26193.75000000  2258324.25000000 1788612.50000000 
0.07700    48342420.00000000 30369688.00000000 76629384.00000000 25595.74414062  2210694.25000000 1751020.12500000 
0.07800    47442512.00000000 29809746.00000000 75209528.00000000 25016.95312500  2164701.50000000 1714681.12500000 
0.07900    46575028.00000000 29270388.00000000 73841608.00000000 24456.44726562  2120215.00000000 1679571.62500000 
0.08000    45739252.00000000 28750902.00000000 72523896.00000000 23913.52929688  2077209.12500000 1645623.75000000 
0.08100    44933844.00000000 28250994.00000000 71254904.00000000 23387.53320312  2035601.25000000 1612813.25000000 
0.08200    44157940.00000000 27769696.00000000 70032448.00000000 22877.36328125  1995351.62500000 1581061.75000000 
0.08300    43410112.00000000 27306790.00000000 68855880.00000000 22382.21875000  1956401.00000000 1550339.12500000 
0.08400    42690056.00000000 26861038.00000000 67722528.00000000 21901.25976562  1918670.37500000 1520596.62500000 
0.08500    41996280.00000000 26432416.00000000 66631248.00000000 21433.95507812  1882121.87500000 1491788.50000000 
0.08600    41327676.00000000 26019652.00000000 65580460.00000000 20979.51757812  1846687.12500000 1463861.00000000 
0.08700    40683696.00000000 25622444.00000000 64569224.00000000 20537.18359375  1812310.37500000 1436778.25000000 
0.08800    40063048.00000000 25240120.00000000 63594600.00000000 20106.33007812  1778927.62500000 1410484.87500000 
0.08900    39464076.00000000 24871946.00000000 62654892.00000000 19686.10546875  1746501.00000000 1384956.00000000 
0.09000    38886664.00000000 24517170.00000000 61749456.00000000 19276.05273438  1714961.62500000 1360124.37500000 
0.09100    38329224.00000000 24175382.00000000 60876392.00000000 18875.71093750  1684263.37500000 1335964.75000000 
0.09200    37790748.00000000 23845572.00000000 60033068.00000000 18484.35546875  1654355.75000000 1312437.50000000 
0.09300    37270360.00000000 23527354.00000000 59219480.00000000 18101.41406250  1625200.62500000 1289505.25000000 
0.09400    36766784.00000000 23220184.00000000 58432372.00000000 17726.36132812  1596737.87500000 1267106.50000000 
0.09500    36279540.00000000 22923072.00000000 57670744.00000000 17359.16796875  1568927.00000000 1245247.00000000 
0.09600    35807320.00000000 22635788.00000000 56934196.00000000 16999.12695312  1541738.25000000 1223874.25000000 
0.09700    35349092.00000000 22357604.00000000 56219768.00000000 16645.96679688  1515120.12500000 1202944.62500000 
0.09800    34904460.00000000 22087814.00000000 55526600.00000000 16299.26367188  1489049.25000000 1182455.87500000 
0.09900    34472512.00000000 21826116.00000000 54853420.00000000 15958.81347656  1463481.37500000 1162360.75000000 
0.10000    34051612.00000000 21571818.00000000 54199188.00000000 15624.19042969  1438379.87500000 1142633.50000000 
0.10100    33641964.00000000 21324322.00000000 53561592.00000000 15295.21093750  1413696.62500000 1123243.87500000 
0.10200    33241942.00000000 21083246.00000000 52940420.00000000 14971.88867188  1389470.12500000 1104193.62500000 
0.10300    32851412.00000000 20847980.00000000 52333912.00000000 14653.62402344  1365607.25000000 1085447.12500000 
0.10400    32469786.00000000 20618206.00000000 51741048.00000000 14340.45410156  1342119.50000000 1066977.75000000 
0.10500    32096024.00000000 20393386.00000000 51161000.00000000 14032.41406250  1318981.75000000 1048788.75000000 
0.10600    31729114.00000000 20173186.00000000 50592208.00000000 13729.31640625  1296160.25000000 1030848.37500000 
0.10700    31369250.00000000 19957102.00000000 50034312.00000000 13430.95019531  1273655.25000000 1013142.06250000 
0.10800    31015614.00000000 19744992.00000000 49485700.00000000 13137.30175781  1251431.12500000 995660.50000000 
0.10900    30667676.00000000 19535904.00000000 48946188.00000000 12848.30957031  1229501.37500000 978400.81250000 
0.11000    30324512.00000000 19330442.00000000 48414324.00000000 12564.03808594  1207845.50000000 961344.93750000 
0.11100    29986350.00000000 19127576.00000000 47890460.00000000 12284.30078125  1186427.50000000 944490.43750000 
0.11200    29652180.00000000 18927248.00000000 47372516.00000000 12009.14062500  1165269.00000000 927828.68750000 
0.11300    29321996.00000000 18728894.00000000 46860372.00000000 11738.70996094  1144367.87500000 911347.06250000 
0.11400    28995504.00000000 18532918.00000000 46353820.00000000 11472.83105469  1123683.37500000 895051.50000000 
0.11500    28671680.00000000 18338620.00000000 45852088.00000000 11211.64257812  1103257.62500000 878927.31250000 
0.11600    28351142.00000000 18145956.00000000 45354272.00000000 10955.14648438  1083035.75000000 862975.87500000 
0.11700    28033218.00000000 17954554.00000000 44860676.00000000 10703.27832031  1063061.25000000 847204.12500000 
0.11800    27717410.00000000 17764402.00000000 44369928.00000000 10456.17968750  1043305.25000000 831596.81250000 
0.11900    27403940.00000000 17575228.00000000 43882600.00000000 10213.78710938  1023772.43750000 816163.43750000 
0.12000    27092126.00000000 17386990.00000000 43397684.00000000 9976.12792969   1004473.12500000 800895.62500000 
0.12100    26782302.00000000 17199694.00000000 42915336.00000000 9743.28906250   985406.06250000 785810.18750000 
0.12200    26474066.00000000 17012844.00000000 42435036.00000000 9515.25390625   966561.31250000 770891.87500000 
0.12300    26167260.00000000 16826572.00000000 41956488.00000000 9291.99023438   947953.75000000 756145.56250000 
0.12400    25861920.00000000 16640966.00000000 41480284.00000000 9073.65234375   929575.12500000 741580.18750000 
0.12500    25557898.00000000 16455755.00000000 41005392.00000000 8860.06054688   911424.81250000 727186.56250000 
0.12600    25255068.00000000 16270886.00000000 40532040.00000000 8651.45703125   893520.75000000 712977.75000000 
0.12700    24953584.00000000 16086521.00000000 40060040.00000000 8447.53515625   875859.87500000 698945.75000000 
0.12800    24652828.00000000 15902331.00000000 39589524.00000000 8248.36718750   858434.87500000 685102.00000000 
0.12900    24353610.00000000 15718587.00000000 39120024.00000000 8054.14257812   841264.25000000 671446.00000000 
0.13000    24055448.00000000 15535131.00000000 38652148.00000000 7864.67041016   824341.62500000 657980.75000000 
0.13100    23758098.00000000 15351875.00000000 38184964.00000000 7679.77246094   807663.00000000 644704.68750000 
0.13200    23462118.00000000 15168917.00000000 37719588.00000000 7499.65234375   791231.68750000 631617.31250000 
0.13300    23167132.00000000 14986322.00000000 37255048.00000000 7324.09912109   775064.00000000 618730.43750000 
0.13400    22873578.00000000 14803955.00000000 36792100.00000000 7153.07177734   759157.81250000 606039.68750000 
0.13500    22581106.00000000 14622171.00000000 36330524.00000000 6986.54785156   743497.43750000 593548.75000000 
0.13600    22289850.00000000 14440646.00000000 35870752.00000000 6824.39892578   728104.62500000 581252.06250000 
0.13700    21999842.00000000 14259459.00000000 35412052.00000000 6666.56445312   712970.25000000 569160.31250000 
0.13800    21711076.00000000 14078760.00000000 34955040.00000000 6512.92675781   698086.68750000 557268.87500000 
0.13900    21423774.00000000 13898547.00000000 34499852.00000000 6363.42675781   683474.37500000 545582.68750000 
0.14000    21137980.00000000 13718967.00000000 34046880.00000000 6217.94384766   669112.06250000 534094.50000000 
0.14100    20853542.00000000 13539962.00000000 33595344.00000000 6076.35791016   655021.43750000 522803.62500000 
0.14200    20570854.00000000 13361341.00000000 33145874.00000000 5938.55859375   641178.68750000 511721.87500000 
0.14300    20289878.00000000 13183654.00000000 32698740.00000000 5804.45996094   627593.75000000 500834.59375000 
0.14400    20010136.00000000 13006623.00000000 32253790.00000000 5673.87011719   614261.43750000 490147.09375000 
0.14500    19732314.00000000 12830243.00000000 31811280.00000000 5546.75195312   601187.75000000 479662.56250000 
0.14600    19456468.00000000 12654830.00000000 31370974.00000000 5422.98144531   588358.50000000 469372.12500000 
0.14700    19182434.00000000 12480233.00000000 30933498.00000000 5302.48681641   575776.25000000 459278.50000000 
0.14800    18910190.00000000 12306504.00000000 30498712.00000000 5184.99121094   563444.62500000 449372.09375000 
0.14900    18640060.00000000 12133812.00000000 30066646.00000000 5070.50195312   551346.87500000 439662.46875000 
0.15000    18371902.00000000 11962081.00000000 29637600.00000000 4958.85498047   539489.00000000 430134.56250000 
0.15100    18105604.00000000 11791532.00000000 29211260.00000000 4849.91113281   527863.81250000 420796.03125000 
0.15200    17841872.00000000 11622011.00000000 28788174.00000000 4743.67285156   516465.09375000 411641.28125000 
0.15300    17580042.00000000 11453569.00000000 28368346.00000000 4639.91406250   505297.40625000 402661.93750000 
0.15400    17320378.00000000 11286293.00000000 27951714.00000000 4538.54736328   494347.40625000 393862.31250000 
0.15500    17063102.00000000 11120326.00000000 27538352.00000000 4439.55615234   483614.62500000 385232.00000000 
0.15600    16807922.00000000 10955658.00000000 27128436.00000000 4342.71289062   473094.84375000 376776.12500000 
0.15700    16555476.00000000 10792341.00000000 26722352.00000000 4248.07177734   462784.50000000 368486.75000000 
0.15800    16305017.00000000 10630246.00000000 26319454.00000000 4155.41552734   452672.21875000 360356.90625000 
0.15900    16057110.00000000 10469531.00000000 25920382.00000000 4064.72705078   442761.96875000 352388.93750000 
0.16000    15811577.00000000 10310319.00000000 25524742.00000000 3975.93701172   433045.90625000 344574.87500000 
0.16100    15568620.00000000 10152542.00000000 25133168.00000000 3888.98632812   423521.65625000 336921.68750000 
0.16200    15327994.00000000 9996166.00000000 24745224.00000000 3803.72998047   414181.28125000 329409.15625000 
0.16300    15089894.00000000 9841357.00000000 24361308.00000000 3720.20239258   405019.09375000 322049.12500000 
0.16400    14854339.00000000 9688098.00000000 23981528.00000000 3638.33935547   396036.28125000 314829.78125000 
0.16500    14621297.00000000 9536224.00000000 23605198.00000000 3558.02758789   387226.15625000 307748.00000000 
0.16600    14390787.00000000 9385935.00000000 23233228.00000000 3479.27490234   378583.81250000 300803.84375000 
0.16700    14162780.00000000 9237305.00000000 22865024.00000000 3402.02221680   370105.81250000 293992.62500000 
0.16800    13937450.00000000 9090250.00000000 22500926.00000000 3326.24267578   361785.93750000 287310.03125000 
0.16900    13714618.00000000 8944778.00000000 22141052.00000000 3251.96777344   353626.75000000 280758.96875000 
0.17000    13494383.00000000 8800986.00000000 21784998.00000000 3179.08789062   345620.50000000 274326.31250000 
