# SAXS profile: number of points = 501, q_min = 0, q_max = 0.5, delta_q = 0.001
#    q    intensity 
0.00000    162238544.00000000 101202048.00000000 256272336.00000000 93997.90625000  7810298.50000000 6168559.00000000 
0.00100    162218880.00000000 101189576.00000000 256239600.00000000 93981.21093750  7809075.50000000 6167591.50000000 
0.00200    162157968.00000000 101151552.00000000 256143456.00000000 93929.53906250  7805450.50000000 6164739.00000000 
0.00300    162056656.00000000 101088408.00000000 255983216.00000000 93844.14843750  7799377.00000000 6159986.00000000 
0.00400    161912464.00000000 101000536.00000000 255757936.00000000 93724.03125000  7790898.00000000 6153334.00000000 
0.00500    161729296.00000000 100887008.00000000 255469536.00000000 93570.15625000  7779987.00000000 6144750.00000000 
0.00600    161504032.00000000 100749112.00000000 255117408.00000000 93382.87500000  7766700.50000000 6134315.00000000 
0.00700    161238672.00000000 100585928.00000000 254701568.00000000 93161.06250000  7751005.00000000 6121989.00000000 
0.00800    160932608.00000000 100398528.00000000 254222304.00000000 92906.49218750  7732927.50000000 6107800.00000000 
0.00900    160587344.00000000 100185256.00000000 253680560.00000000 92618.40625000  7712516.50000000 6091761.00000000 
0.01000    160201616.00000000 99948880.00000000 253076544.00000000 92297.25000000  7689763.00000000 6073877.00000000 
0.01100    159775536.00000000 99687736.00000000 252410336.00000000 91943.90625000  7664656.00000000 6054180.00000000 
0.01200    159311584.00000000 99403072.00000000 251683632.00000000 91558.21093750  7637275.50000000 6032663.00000000 
0.01300    158808816.00000000 99093936.00000000 250895264.00000000 91140.58593750  7607630.00000000 6009360.50000000 
0.01400    158267360.00000000 98761424.00000000 250046656.00000000 90691.66406250  7575694.00000000 5984314.50000000 
0.01500    157689408.00000000 98405760.00000000 249137488.00000000 90211.63281250  7541575.00000000 5957486.50000000 
0.01600    157073648.00000000 98026496.00000000 248170608.00000000 89701.24218750  7505230.50000000 5928939.50000000 
0.01700    156418624.00000000 97624512.00000000 247145360.00000000 89161.01562500  7466734.00000000 5898699.00000000 
0.01800    155728000.00000000 97200032.00000000 246062528.00000000 88591.42187500  7426107.00000000 5866802.50000000 
0.01900    155000704.00000000 96753152.00000000 244922896.00000000 87993.10156250  7383407.50000000 5833274.00000000 
0.02000    154239328.00000000 96284256.00000000 243726880.00000000 87366.10937500  7338637.50000000 5798059.00000000 
0.02100    153442032.00000000 95793512.00000000 242476336.00000000 86711.89062500  7291887.50000000 5761345.50000000 
0.02200    152609808.00000000 95282088.00000000 241172064.00000000 86030.37500000  7243124.00000000 5723019.50000000 
0.02300    151744112.00000000 94750144.00000000 239814368.00000000 85322.91406250  7192421.50000000 5683197.50000000 
0.02400    150844960.00000000 94197152.00000000 238403632.00000000 84589.33593750  7139857.00000000 5641876.00000000 
0.02500    149913984.00000000 93624072.00000000 236943760.00000000 83831.28906250  7085417.50000000 5599093.00000000 
0.02600    148950608.00000000 93031504.00000000 235431824.00000000 83048.97656250  7029184.00000000 5554904.00000000 
0.02700    147955680.00000000 92420016.00000000 233871536.00000000 82243.82812500  6971207.00000000 5509355.00000000 
0.02800    146930528.00000000 91789160.00000000 232263328.00000000 81415.61718750  6911503.00000000 5462446.00000000 
0.02900    145876208.00000000 91140192.00000000 230608640.00000000 80564.91406250  6850180.50000000 5414218.00000000 
0.03000    144792064.00000000 90472896.00000000 228908704.00000000 79694.00000000  6787212.00000000 5364755.00000000 
0.03100    143680192.00000000 89788976.00000000 227163760.00000000 78802.42187500  6722728.50000000 5314066.00000000 
0.03200    142540912.00000000 89087760.00000000 225375488.00000000 77891.78906250  6656713.50000000 5262191.50000000 
0.03300    141375440.00000000 88369848.00000000 223546192.00000000 76962.73437500  6589290.00000000 5209170.00000000 
0.03400    140183200.00000000 87636096.00000000 221675776.00000000 76016.17187500  6520486.00000000 5155057.00000000 
0.03500    138966480.00000000 86886792.00000000 219766016.00000000 75052.40625000  6450297.50000000 5099887.50000000 
0.03600    137725536.00000000 86122536.00000000 217818336.00000000 74073.29687500  6378877.00000000 5043729.50000000 
0.03700    136461680.00000000 85344488.00000000 215834352.00000000 73079.12500000  6306196.00000000 4986591.50000000 
0.03800    135175056.00000000 84551984.00000000 213814528.00000000 72070.64843750  6232377.50000000 4928544.00000000 
0.03900    133867424.00000000 83745624.00000000 211761024.00000000 71049.10937500  6157458.50000000 4869598.50000000 
0.04000    132538152.00000000 82927184.00000000 209675008.00000000 70015.32031250  6081490.50000000 4809866.50000000 
0.04100    131189680.00000000 82096192.00000000 207557472.00000000 68970.30468750  6004528.00000000 4749327.50000000 
0.04200    129822504.00000000 81253104.00000000 205410560.00000000 67914.89062500  5926636.00000000 4688041.00000000 
0.04300    128437352.00000000 80399152.00000000 203235072.00000000 66849.92187500  5847874.50000000 4626112.50000000 
0.04400    127034784.00000000 79534712.00000000 201033120.00000000 65776.32031250  5768336.50000000 4563503.50000000 
0.04500    125616648.00000000 78660248.00000000 198805648.00000000 64695.17578125  5688021.50000000 4500320.00000000 
0.04600    124182752.00000000 77775992.00000000 196553568.00000000 63607.37109375  5607007.50000000 4436596.50000000 
0.04700    122734912.00000000 76883320.00000000 194279296.00000000 62513.39453125  5525410.00000000 4372376.50000000 
0.04800    121273832.00000000 75981560.00000000 191983360.00000000 61414.73437500  5443221.50000000 4307691.50000000 
0.04900    119800064.00000000 75071928.00000000 189668144.00000000 60312.00781250  5360513.00000000 4242590.50000000 
0.05000    118315600.00000000 74155288.00000000 187335008.00000000 59206.11328125  5277360.50000000 4177151.00000000 
0.05100    116819496.00000000 73232376.00000000 184984512.00000000 58097.96484375  5193816.50000000 4111383.00000000 
0.05200    115313816.00000000 72302960.00000000 182618704.00000000 56988.56250000  5109969.00000000 4045349.00000000 
0.05300    113800344.00000000 71368008.00000000 180238768.00000000 55878.42578125  5025846.00000000 3979105.00000000 
0.05400    112277920.00000000 70428016.00000000 177846928.00000000 54768.64062500  4941486.50000000 3912672.50000000 
0.05500    110749472.00000000 69483872.00000000 175443264.00000000 53660.13281250  4856993.00000000 3846120.25000000 
0.05600    109214240.00000000 68535728.00000000 173030432.00000000 52553.41406250  4772393.00000000 3779473.75000000 
0.05700    107674448.00000000 67584056.00000000 170608816.00000000 51449.83593750  4687752.50000000 3712794.25000000 
0.05800    106130672.00000000 66629012.00000000 168180672.00000000 50349.57812500  4603089.00000000 3646108.50000000 
0.05900    104583280.00000000 65672200.00000000 165746800.00000000 49253.69531250  4518492.00000000 3579474.00000000 
0.06000    103032776.00000000 64713756.00000000 163309280.00000000 48162.83203125  4434041.50000000 3512918.75000000 
0.06100    101482008.00000000 63754020.00000000 160868576.00000000 47077.84375000  4349766.50000000 3446486.50000000 
0.06200    99929104.00000000 62793624.00000000 158426608.00000000 45999.46093750  4265699.00000000 3380230.50000000 
0.06300    98377640.00000000 61833168.00000000 155984240.00000000 44928.70703125  4181896.50000000 3314178.25000000 
0.06400    96826104.00000000 60872668.00000000 153543280.00000000 43865.38671875  4098420.00000000 3248364.25000000 
0.06500    95276432.00000000 59913144.00000000 151104128.00000000 42810.87109375  4015333.25000000 3182839.75000000 
0.06600    93729912.00000000 58955184.00000000 148669632.00000000 41765.67578125  3932661.00000000 3117638.25000000 
0.06700    92185944.00000000 57998740.00000000 146239872.00000000 40730.47656250  3850443.00000000 3052813.75000000 
0.06800    90646416.00000000 57044920.00000000 143815792.00000000 39705.42187500  3768755.50000000 2988361.50000000 
0.06900    89111696.00000000 56093760.00000000 141399344.00000000 38691.75000000  3687605.00000000 2924336.50000000 
0.07000    87582880.00000000 55145668.00000000 138990832.00000000 37689.50781250  3607054.00000000 2860775.50000000 
0.07100    86060376.00000000 54201336.00000000 136592960.00000000 36699.46093750  3527137.50000000 2797729.25000000 
0.07200    84544544.00000000 53261212.00000000 134204608.00000000 35721.58984375  3447915.25000000 2735188.25000000 
0.07300    83037240.00000000 52325592.00000000 131829528.00000000 34757.34765625  3369396.75000000 2673186.25000000 
0.07400    81537352.00000000 51394816.00000000 129466952.00000000 33806.44531250  3291648.25000000 2611804.25000000 
0.07500    80047312.00000000 50469476.00000000 127117688.00000000 32869.40234375  3214691.25000000 2551015.50000000 
0.07600    78566184.00000000 49549900.00000000 124783896.00000000 31946.98632812  3138526.25000000 2490876.00000000 
0.07700    77095768.00000000 48636428.00000000 122465488.00000000 31039.21875000  3063247.00000000 2431399.75000000 
0.07800    75636712.00000000 47729476.00000000 120165016.00000000 30146.51562500  2988838.00000000 2372621.25000000 
0.07900    74188776.00000000 46829328.00000000 117881184.00000000 29269.24414062  2915349.25000000 2314560.75000000 
0.08000    72752664.00000000 45936628.00000000 115616768.00000000 28407.75585938  2842812.25000000 2257218.25000000 
0.08100    71329528.00000000 45051292.00000000 113372024.00000000 27562.27343750  2771240.75000000 2200650.00000000 
0.08200    69919536.00000000 44173948.00000000 111146808.00000000 26732.86718750  2700667.50000000 2144856.25000000 
0.08300    68523152.00000000 43304548.00000000 108942720.00000000 25920.08203125  2631130.75000000 2089864.50000000 
0.08400    67140264.00000000 42443740.00000000 106761712.00000000 25123.99414062  2562621.00000000 2035673.62500000 
0.08500    65772816.00000000 41591696.00000000 104602392.00000000 24344.62109375  2495182.50000000 1982325.12500000 
0.08600    64420184.00000000 40748868.00000000 102466616.00000000 23582.32031250  2428830.75000000 1929822.37500000 
0.08700    63082868.00000000 39915324.00000000 100354840.00000000 22837.23632812  2363566.25000000 1878187.50000000 
0.08800    61761356.00000000 39091468.00000000 98267672.00000000 22109.25390625  2299435.00000000 1827418.37500000 
0.08900    60455960.00000000 38276892.00000000 96205624.00000000 21398.59960938  2236435.25000000 1777538.12500000 
0.09000    59167268.00000000 37472848.00000000 94169640.00000000 20705.21679688  2174561.00000000 1728555.50000000 
0.09100    57895304.00000000 36678752.00000000 92159184.00000000 20029.39062500  2113868.25000000 1680483.25000000 
0.09200    56640704.00000000 35895388.00000000 90176016.00000000 19370.86328125  2054336.12500000 1633314.62500000 
0.09300    55403564.00000000 35122472.00000000 88220216.00000000 18729.87500000  1995981.12500000 1587073.62500000 
0.09400    54183844.00000000 34360256.00000000 86291752.00000000 18106.04882812  1938792.37500000 1541763.25000000 
0.09500    52982180.00000000 33608944.00000000 84391320.00000000 17499.58593750  1882808.12500000 1497376.75000000 
0.09600    51798728.00000000 32868746.00000000 82519384.00000000 16910.38281250  1828020.37500000 1453932.50000000 
0.09700    50633980.00000000 32139678.00000000 80676328.00000000 16338.33007812  1774418.00000000 1411426.37500000 
0.09800    49487552.00000000 31422234.00000000 78862232.00000000 15783.25390625  1722029.37500000 1369863.75000000 
0.09900    48359840.00000000 30716106.00000000 77077200.00000000 15245.24902344  1670831.37500000 1329245.00000000 
0.10000    47251092.00000000 30021332.00000000 75321968.00000000 14723.86035156  1620832.00000000 1289568.37500000 
0.10100    46161396.00000000 29338386.00000000 73596224.00000000 14219.10644531  1572024.87500000 1250822.75000000 
0.10200    45090812.00000000 28667100.00000000 71900752.00000000 13730.75292969  1524415.25000000 1213029.75000000 
0.10300    44039204.00000000 28007374.00000000 70234976.00000000 13258.53906250  1477995.87500000 1176161.00000000 
0.10400    43007380.00000000 27359686.00000000 68599592.00000000 12802.39550781  1432759.00000000 1140218.87500000 
0.10500    41994504.00000000 26723914.00000000 66994584.00000000 12362.06054688  1388702.87500000 1105220.37500000 
0.10600    41000884.00000000 26099690.00000000 65419312.00000000 11937.11425781  1345813.87500000 1071125.00000000 
0.10700    40026764.00000000 25487502.00000000 63874892.00000000 11527.60253906  1304085.50000000 1037955.31250000 
0.10800    39071816.00000000 24887244.00000000 62360656.00000000 11133.04589844  1263503.50000000 1005684.68750000 
0.10900    38136436.00000000 24298764.00000000 60876568.00000000 10753.17578125  1224071.50000000 974318.43750000 
0.11000    37220340.00000000 23722250.00000000 59422820.00000000 10387.77441406  1185760.25000000 943837.12500000 
0.11100    36323132.00000000 23157502.00000000 57999404.00000000 10036.61816406  1148560.62500000 914232.87500000 
0.11200    35445608.00000000 22604642.00000000 56605816.00000000 9699.21679688   1112468.00000000 885501.12500000 
0.11300    34586724.00000000 22063458.00000000 55242432.00000000 9375.36621094   1077461.25000000 857627.43750000 
0.11400    33746936.00000000 21534058.00000000 53908612.00000000 9064.75195312   1043533.43750000 830599.56250000 
0.11500    32926160.00000000 21016214.00000000 52604428.00000000 8766.99511719   1010655.93750000 804407.87500000 
0.11600    32124092.00000000 20509860.00000000 51330000.00000000 8481.80664062   978824.31250000 779038.56250000 
0.11700    31340424.00000000 20015298.00000000 50084636.00000000 8208.87402344   948016.25000000 754478.87500000 
0.11800    30575216.00000000 19531808.00000000 48868148.00000000 7947.74023438   918209.06250000 730707.37500000 
0.11900    29828296.00000000 19059658.00000000 47680176.00000000 7698.11230469   889383.50000000 707717.75000000 
0.12000    29099356.00000000 18598744.00000000 46521064.00000000 7459.67382812   861527.43750000 685498.56250000 
0.12100    28388568.00000000 18149036.00000000 45389904.00000000 7232.08886719   834625.25000000 664028.93750000 
0.12200    27695198.00000000 17710210.00000000 44286720.00000000 7014.91406250   808654.81250000 643294.93750000 
0.12300    27019286.00000000 17282296.00000000 43210948.00000000 6807.87402344   783584.37500000 623280.12500000 
0.12400    26360852.00000000 16865018.00000000 42162336.00000000 6610.50390625   759409.31250000 603968.62500000 
0.12500    25719176.00000000 16458217.00000000 41140732.00000000 6422.55908203   736098.93750000 585343.93750000 
0.12600    25094408.00000000 16062083.00000000 40145504.00000000 6243.75976562   713635.75000000 567397.12500000 
0.12700    24486150.00000000 15676074.00000000 39176368.00000000 6073.53271484   691997.50000000 550099.06250000 
0.12800    23894136.00000000 15300249.00000000 38233008.00000000 5911.61132812   671155.62500000 533436.25000000 
0.12900    23318164.00000000 14934465.00000000 37314808.00000000 5757.70849609   651105.06250000 517401.18750000 
0.13000    22757896.00000000 14578479.00000000 36421540.00000000 5611.45312500   631812.31250000 501965.96875000 
0.13100    22213026.00000000 14232118.00000000 35552584.00000000 5472.43408203   613248.50000000 487114.78125000 
0.13200    21683358.00000000 13895316.00000000 34707712.00000000 5340.35449219   595410.93750000 472834.28125000 
0.13300    21168798.00000000 13567850.00000000 33886640.00000000 5214.95996094   578260.18750000 459106.09375000 
0.13400    20668614.00000000 13249383.00000000 33088326.00000000 5095.78125000   561781.31250000 445912.62500000 
0.13500    20182844.00000000 12939963.00000000 32312824.00000000 4982.58349609   545949.87500000 433238.46875000 
0.13600    19711034.00000000 12639472.00000000 31559562.00000000 4875.01269531   530749.06250000 421060.18750000 
0.13700    19252918.00000000 12347508.00000000 30828052.00000000 4772.77832031   516148.68750000 409368.28125000 
0.13800    18808292.00000000 12063871.00000000 30117704.00000000 4675.60693359   502137.90625000 398137.78125000 
0.13900    18376774.00000000 11788517.00000000 29428242.00000000 4583.13281250   488685.96875000 387360.00000000 
0.14000    17958000.00000000 11521260.00000000 28758950.00000000 4495.13769531   475776.53125000 377014.65625000 
0.14100    17551764.00000000 11261942.00000000 28109794.00000000 4411.28369141   463387.46875000 367085.21875000 
0.14200    17157500.00000000 11010194.00000000 27479734.00000000 4331.28759766   451496.03125000 357553.90625000 
0.14300    16775309.00000000 10766048.00000000 26868568.00000000 4254.95214844   440081.50000000 348406.34375000 
0.14400    16404547.00000000 10529069.00000000 26275812.00000000 4181.92968750   429124.75000000 339620.43750000 
0.14500    16045046.00000000 10299319.00000000 25700890.00000000 4112.07421875   418607.75000000 331191.90625000 
0.14600    15696607.00000000 10076495.00000000 25143542.00000000 4045.06323242   408511.78125000 323098.56250000 
0.14700    15358781.00000000 9860430.00000000 24603180.00000000 3980.75122070   398813.56250000 315328.56250000 
0.14800    15031213.00000000 9650816.00000000 24079102.00000000 3918.80151367   389493.28125000 307861.25000000 
0.14900    14713572.00000000 9447642.00000000 23571010.00000000 3859.04760742   380534.96875000 300681.71875000 
0.15000    14405889.00000000 9250634.00000000 23078406.00000000 3801.33837891   371921.84375000 293782.87500000 
0.15100    14107394.00000000 9059615.00000000 22600766.00000000 3745.44311523   363636.21875000 287146.03125000 
0.15200    13818220.00000000 8874500.00000000 22138034.00000000 3691.19580078   355661.62500000 280761.50000000 
0.15300    13537882.00000000 8695031.00000000 21689176.00000000 3638.40551758   347974.71875000 274608.93750000 
0.15400    13265856.00000000 8520889.00000000 21254024.00000000 3586.86914062   340565.15625000 268681.65625000 
0.15500    13002267.00000000 8352159.50000000 20832176.00000000 3536.48583984   333419.09375000 262965.15625000 
0.15600    12746557.00000000 8188457.50000000 20422984.00000000 3487.08959961   326514.06250000 257446.35937500 
0.15700    12498760.00000000 8029781.00000000 20026232.00000000 3438.56396484   319845.18750000 252116.39062500 
0.15800    12258145.00000000 7875775.50000000 19641178.00000000 3390.73315430   313386.28125000 246959.31250000 
0.15900    12024880.00000000 7726427.00000000 19267962.00000000 3343.54516602   307133.68750000 241968.56250000 
0.16000    11798366.00000000 7581483.00000000 18905544.00000000 3296.80419922   301068.71875000 237128.57812500 
0.16100    11578633.00000000 7440847.50000000 18553948.00000000 3250.48168945   295181.03125000 232437.48437500 
0.16200    11365214.00000000 7304394.00000000 18212540.00000000 3204.47998047   289459.93750000 227876.18750000 
0.16300    11157932.00000000 7171870.50000000 17880910.00000000 3158.67382812   283886.81250000 223442.06250000 
0.16400    10956575.00000000 7043138.50000000 17559004.00000000 3113.03344727   278460.06250000 219123.53125000 
0.16500    10760888.00000000 6918082.50000000 17246132.00000000 3067.45288086   273163.12500000 214911.45312500 
0.16600    10570725.00000000 6796609.00000000 16942086.00000000 3021.88574219   267987.15625000 210799.10937500 
0.16700    10385684.00000000 6678426.50000000 16646277.00000000 2976.26293945   262919.87500000 206776.20312500 
0.16800    10205566.00000000 6563515.50000000 16358595.00000000 2930.56127930   257954.42187500 202837.62500000 
0.16900    10030396.00000000 6451776.00000000 16078752.00000000 2884.75976562   253088.92187500 198978.51562500 
0.17000    9859736.00000000 6342970.00000000 15806186.00000000 2838.81567383   248303.18750000 195188.76562500 
