# SAXS profile: number of points = 501, q_min = 0, q_max = 0.5, delta_q = 0.001
#    q    intensity 
0.00000    162233664.00000000 101201760.00000000 256270464.00000000 107080.65625000 8336114.50000000 6583849.00000000 
0.00100    162188000.00000000 101171000.00000000 256192352.00000000 107042.60156250 8333340.00000000 6581670.50000000 
0.00200    162044752.00000000 101078736.00000000 255959136.00000000 106928.76562500 8325071.00000000 6575174.50000000 
0.00300    161798848.00000000 100925904.00000000 255571136.00000000 106739.82031250 8311330.50000000 6564334.00000000 
0.00400    161451248.00000000 100711480.00000000 255026832.00000000 106475.23437500 8292077.50000000 6549200.50000000 
0.00500    161006624.00000000 100436440.00000000 254328368.00000000 106136.23437500 8267473.50000000 6529806.50000000 
0.00600    160467328.00000000 100102432.00000000 253479392.00000000 105724.26562500 8237432.00000000 6506164.50000000 
0.00700    159826256.00000000 99709512.00000000 252480832.00000000 105239.51562500 8202201.50000000 6478417.50000000 
0.00800    159098240.00000000 99258888.00000000 251333776.00000000 104682.51562500 8161751.50000000 6446590.50000000 
0.00900    158278416.00000000 98751408.00000000 250043552.00000000 104057.39843750 8116176.50000000 6410687.00000000 
0.01000    157369504.00000000 98187424.00000000 248608272.00000000 103363.19531250 8065595.50000000 6370898.00000000 
0.01100    156370752.00000000 97568552.00000000 247035600.00000000 102602.42187500 8010173.50000000 6327266.00000000 
0.01200    155282192.00000000 96896520.00000000 245328880.00000000 101777.42187500 7950051.00000000 6279865.00000000 
0.01300    154113808.00000000 96172088.00000000 243487648.00000000 100890.44531250 7885320.00000000 6228934.00000000 
0.01400    152864768.00000000 95397856.00000000 241520720.00000000 99942.91406250  7816112.00000000 6174435.50000000 
0.01500    151535664.00000000 94575792.00000000 239429312.00000000 98937.42187500  7742666.50000000 6116590.50000000 
0.01600    150131952.00000000 93706344.00000000 237220016.00000000 97876.75000000  7665129.50000000 6055538.50000000 
0.01700    148657088.00000000 92791600.00000000 234895664.00000000 96762.91406250  7583607.00000000 5991357.50000000 
0.01800    147110544.00000000 91835096.00000000 232464240.00000000 95599.78906250  7498375.00000000 5924205.50000000 
0.01900    145498960.00000000 90836464.00000000 229928160.00000000 94388.19531250  7409613.00000000 5854315.50000000 
0.02000    143826224.00000000 89800496.00000000 227293488.00000000 93132.88281250  7317473.50000000 5781730.50000000 
0.02100    142093392.00000000 88725784.00000000 224564400.00000000 91835.59375000  7222225.50000000 5706697.50000000 
0.02200    140305392.00000000 87617440.00000000 221750032.00000000 90500.37500000  7124005.00000000 5629334.00000000 
0.02300    138466256.00000000 86477608.00000000 218852208.00000000 89128.85937500  7023090.00000000 5549846.00000000 
0.02400    136579232.00000000 85307152.00000000 215880208.00000000 87725.88281250  6919678.00000000 5468372.50000000 
0.02500    134647440.00000000 84108768.00000000 212838352.00000000 86293.60156250  6813976.50000000 5385033.50000000 
0.02600    132674864.00000000 82886296.00000000 209731456.00000000 84834.10937500  6706143.00000000 5300158.00000000 
0.02700    130666936.00000000 81640024.00000000 206569024.00000000 83352.50781250  6596565.00000000 5213746.00000000 
0.02800    128625296.00000000 80374320.00000000 203352912.00000000 81850.32031250  6485349.00000000 5126047.50000000 
0.02900    126555432.00000000 79089720.00000000 200091664.00000000 80331.69531250  6372612.50000000 5037277.50000000 
0.03000    124460872.00000000 77789128.00000000 196792096.00000000 78799.08593750  6258833.50000000 4947559.50000000 
0.03100    122345568.00000000 76476240.00000000 193456464.00000000 77255.77343750  6144065.00000000 4857097.50000000 
0.03200    120213496.00000000 75152048.00000000 190096480.00000000 75704.92968750  6028513.50000000 4766027.50000000 
0.03300    118066960.00000000 73820320.00000000 186715792.00000000 74150.59375000  5912474.50000000 4674547.50000000 
0.03400    115911272.00000000 72481584.00000000 183317536.00000000 72592.56250000  5796076.50000000 4582807.00000000 
0.03500    113749792.00000000 71138584.00000000 179909408.00000000 71036.52343750  5679553.00000000 4490901.00000000 
0.03600    111585312.00000000 69793464.00000000 176497808.00000000 69482.66406250  5563129.50000000 4399069.50000000 
0.03700    109422616.00000000 68448960.00000000 173087296.00000000 67935.72656250  5446940.00000000 4307422.50000000 
0.03800    107264680.00000000 67107132.00000000 169682640.00000000 66397.54687500  5331205.00000000 4216114.00000000 
0.03900    105113992.00000000 65769896.00000000 166291488.00000000 64869.43359375  5216122.50000000 4125342.00000000 
0.04000    102974672.00000000 64439232.00000000 162917840.00000000 63355.37500000  5101808.50000000 4035168.50000000 
0.04100    100848864.00000000 63117340.00000000 159565360.00000000 61856.71093750  4988487.00000000 3945785.00000000 
0.04200    98741976.00000000 61805424.00000000 156239424.00000000 60375.40234375  4876316.00000000 3857242.00000000 
0.04300    96653736.00000000 60506032.00000000 152944192.00000000 58913.25390625  4765371.00000000 3769693.00000000 
0.04400    94588248.00000000 59220408.00000000 149685744.00000000 57472.59765625  4655819.00000000 3683265.25000000 
0.04500    92547720.00000000 57949932.00000000 146465488.00000000 56054.56640625  4547866.00000000 3598046.50000000 
0.04600    90535768.00000000 56696716.00000000 143288672.00000000 54661.66796875  4441559.50000000 3514141.50000000 
0.04700    88552408.00000000 55461940.00000000 140158384.00000000 53293.66015625  4337073.50000000 3431628.00000000 
0.04800    86602472.00000000 54246820.00000000 137079424.00000000 51952.77343750  4234437.50000000 3350581.25000000 
0.04900    84685152.00000000 53052548.00000000 134054984.00000000 50639.87109375  4133751.50000000 3271107.75000000 
0.05000    82804320.00000000 51879888.00000000 131085928.00000000 49356.46484375  4035128.00000000 3193242.50000000 
0.05100    80960832.00000000 50730768.00000000 128173968.00000000 48102.82812500  3938683.75000000 3117070.75000000 
0.05200    79156328.00000000 49605484.00000000 125323896.00000000 46879.71093750  3844399.50000000 3042609.75000000 
0.05300    77392720.00000000 48505492.00000000 122538248.00000000 45687.53515625  3752395.75000000 2969927.00000000 
0.05400    75669504.00000000 47430996.00000000 119816784.00000000 44526.98437500  3662688.50000000 2899085.25000000 
0.05500    73989344.00000000 46382888.00000000 117162064.00000000 43398.44921875  3575323.00000000 2830087.25000000 
0.05600    72353184.00000000 45361592.00000000 114576912.00000000 42302.37109375  3490328.75000000 2762950.50000000 
0.05700    70759376.00000000 44367608.00000000 112060456.00000000 41238.57421875  3407768.75000000 2697713.50000000 
0.05800    69211768.00000000 43402128.00000000 109614128.00000000 40206.54296875  3327574.25000000 2634364.75000000 
0.05900    67707896.00000000 42463524.00000000 107239160.00000000 39206.55859375  3249768.00000000 2572897.00000000 
0.06000    66250276.00000000 41553716.00000000 104935384.00000000 38238.43750000  3174408.25000000 2513363.75000000 
0.06100    64837616.00000000 40672216.00000000 102703016.00000000 37302.01953125  3101451.50000000 2455716.50000000 
0.06200    63470064.00000000 39818744.00000000 100542536.00000000 36396.38281250  3030872.75000000 2399928.00000000 
0.06300    62147884.00000000 38993464.00000000 98453920.00000000 35521.52343750  2962628.00000000 2346040.50000000 
0.06400    60870500.00000000 38196520.00000000 96435840.00000000 34676.25000000  2896697.00000000 2293929.50000000 
0.06500    59637836.00000000 37427124.00000000 94488208.00000000 33860.78125000  2833081.25000000 2243678.25000000 
0.06600    58448964.00000000 36685296.00000000 92610136.00000000 33073.39453125  2771700.75000000 2195170.50000000 
0.06700    57303908.00000000 35971180.00000000 90801392.00000000 32314.29296875  2712479.50000000 2148397.25000000 
0.06800    56201152.00000000 35283384.00000000 89060536.00000000 31581.94335938  2655436.00000000 2103343.75000000 
0.06900    55141024.00000000 34622416.00000000 87385920.00000000 30875.86914062  2600477.25000000 2059934.25000000 
0.07000    54121304.00000000 33986756.00000000 85776312.00000000 30195.03906250  2547534.00000000 2018111.87500000 
0.07100    53141940.00000000 33377034.00000000 84229576.00000000 29538.44335938  2496573.75000000 1977885.75000000 
0.07200    52201564.00000000 32791198.00000000 82745304.00000000 28905.08789062  2447484.00000000 1939142.12500000 
0.07300    51299180.00000000 32229938.00000000 81321208.00000000 28294.06054688  2400235.50000000 1901832.37500000 
0.07400    50433424.00000000 31691462.00000000 79956728.00000000 27704.25195312  2354727.75000000 1865921.25000000 
0.07500    49603640.00000000 31175428.00000000 78647336.00000000 27134.95117188  2310895.50000000 1831338.12500000 
0.07600    48807608.00000000 30681222.00000000 77392424.00000000 26584.87109375  2268693.75000000 1798019.50000000 
0.07700    48045220.00000000 30207784.00000000 76190696.00000000 26053.17187500  2227997.50000000 1765940.50000000 
0.07800    47314076.00000000 29754286.00000000 75038536.00000000 25538.49023438  2188758.75000000 1734995.87500000 
0.07900    46613192.00000000 29319924.00000000 73935552.00000000 25040.45703125  2150914.50000000 1705150.37500000 
0.08000    45940840.00000000 28904238.00000000 72877928.00000000 24557.78710938  2114328.25000000 1676328.12500000 
0.08100    45296144.00000000 28505832.00000000 71863912.00000000 24089.29296875  2079037.25000000 1648489.50000000 
0.08200    44677816.00000000 28124168.00000000 70892328.00000000 23634.62109375  2044850.75000000 1621577.62500000 
0.08300    44083800.00000000 27757944.00000000 69959688.00000000 23192.31640625  2011765.50000000 1595506.75000000 
0.08400    43513200.00000000 27406632.00000000 69063792.00000000 22761.74414062  1979667.87500000 1570233.62500000 
0.08500    42964564.00000000 27069230.00000000 68203496.00000000 22342.12304688  1948526.87500000 1545720.37500000 
0.08600    42436624.00000000 26744940.00000000 67375912.00000000 21932.82421875  1918260.75000000 1521892.87500000 
0.08700    41927464.00000000 26432988.00000000 66578144.00000000 21532.90234375  1888780.37500000 1498693.75000000 
0.08800    41436044.00000000 26132556.00000000 65810032.00000000 21141.73632812  1860045.87500000 1476098.62500000 
0.08900    40961880.00000000 25842290.00000000 65067620.00000000 20758.55859375  1832002.87500000 1454028.87500000 
0.09000    40502388.00000000 25562086.00000000 64349660.00000000 20382.79101562  1804573.62500000 1432454.25000000 
0.09100    40057028.00000000 25290872.00000000 63654896.00000000 20014.01953125  1777723.25000000 1411334.75000000 
0.09200    39624788.00000000 25027870.00000000 62979752.00000000 19651.47265625  1751374.00000000 1390613.37500000 
0.09300    39204096.00000000 24772338.00000000 62323668.00000000 19294.72070312  1725496.25000000 1370274.00000000 
0.09400    38793748.00000000 24523540.00000000 61684084.00000000 18943.24414062  1700040.37500000 1350247.12500000 
0.09500    38393252.00000000 24280654.00000000 61060164.00000000 18596.90625000  1674963.12500000 1330522.75000000 
0.09600    38001040.00000000 24043346.00000000 60449896.00000000 18255.39648438  1650201.50000000 1311068.00000000 
0.09700    37615968.00000000 23810984.00000000 59851388.00000000 17917.84765625  1625768.62500000 1291841.00000000 
0.09800    37238172.00000000 23582934.00000000 59263368.00000000 17584.67578125  1601600.37500000 1272819.12500000 
0.09900    36866192.00000000 23358266.00000000 58685240.00000000 17255.13476562  1577662.50000000 1253995.12500000 
0.10000    36498768.00000000 23136650.00000000 58114028.00000000 16929.33203125  1553927.12500000 1235323.75000000 
0.10100    36135476.00000000 22917792.00000000 57549888.00000000 16606.83789062  1530384.50000000 1216783.62500000 
0.10200    35776040.00000000 22701066.00000000 56991172.00000000 16287.84277344  1507008.37500000 1198374.87500000 
0.10300    35419456.00000000 22486184.00000000 56437204.00000000 15971.76562500  1483783.00000000 1180063.75000000 
0.10400    35064832.00000000 22272502.00000000 55886476.00000000 15659.06347656  1460678.37500000 1161865.87500000 
0.10500    34712608.00000000 22060062.00000000 55338440.00000000 15349.36914062  1437694.37500000 1143740.50000000 
0.10600    34360784.00000000 21847918.00000000 54792224.00000000 15042.64062500  1414805.25000000 1125698.12500000 
0.10700    34010204.00000000 21636462.00000000 54247280.00000000 14739.11718750  1392020.50000000 1107717.50000000 
0.10800    33660048.00000000 21425012.00000000 53702500.00000000 14438.65039062  1369327.87500000 1089802.50000000 
0.10900    33309938.00000000 21213332.00000000 53157656.00000000 14141.17578125  1346731.00000000 1071942.37500000 
0.11000    32959614.00000000 21001334.00000000 52612072.00000000 13846.94140625  1324199.25000000 1054144.75000000 
0.11100    32608584.00000000 20788840.00000000 52065808.00000000 13555.93164062  1301778.75000000 1036407.93750000 
0.11200    32257030.00000000 20575662.00000000 51517292.00000000 13268.23925781  1279422.37500000 1018730.68750000 
0.11300    31904538.00000000 20361652.00000000 50967800.00000000 12983.87695312  1257168.12500000 1001113.87500000 
0.11400    31550976.00000000 20146724.00000000 50416264.00000000 12703.05371094  1235008.00000000 983562.68750000 
0.11500    31196518.00000000 19931002.00000000 49862696.00000000 12425.68261719  1212951.75000000 966082.31250000 
0.11600    30840694.00000000 19714058.00000000 49306744.00000000 12152.04394531  1190999.50000000 948670.87500000 
0.11700    30483930.00000000 19496222.00000000 48748520.00000000 11882.11718750  1169149.50000000 931352.12500000 
0.11800    30125686.00000000 19277328.00000000 48187868.00000000 11616.05859375  1147428.37500000 914113.18750000 
0.11900    29766560.00000000 19057218.00000000 47625272.00000000 11353.72851562  1125844.87500000 896969.87500000 
0.12000    29406146.00000000 18836156.00000000 47060808.00000000 11095.59277344  1104404.12500000 879930.31250000 
0.12100    29045034.00000000 18614192.00000000 46493900.00000000 10841.56347656  1083109.00000000 863000.25000000 
0.12200    28682766.00000000 18391172.00000000 45924892.00000000 10591.62207031  1061970.37500000 846192.18750000 
0.12300    28319660.00000000 18167390.00000000 45354452.00000000 10345.89062500  1041015.00000000 829507.18750000 
0.12400    27955848.00000000 17942660.00000000 44782452.00000000 10104.39550781  1020228.81250000 812958.56250000 
0.12500    27591384.00000000 17717400.00000000 44209636.00000000 9867.28027344   999627.68750000 796555.43750000 
0.12600    27226896.00000000 17491518.00000000 43635084.00000000 9634.58496094   979239.62500000 780302.81250000 
0.12700    26862202.00000000 17265154.00000000 43059952.00000000 9406.22265625   959060.31250000 764218.87500000 
0.12800    26497338.00000000 17038276.00000000 42484672.00000000 9182.22460938   939100.43750000 748291.93750000 
0.12900    26132748.00000000 16811388.00000000 41908952.00000000 8962.73535156   919367.00000000 732543.25000000 
0.13000    25768634.00000000 16584190.00000000 41333500.00000000 8747.68554688   899872.00000000 716983.37500000 
0.13100    25404864.00000000 16357083.00000000 40758320.00000000 8537.02050781   880617.06250000 701606.06250000 
0.13200    25041896.00000000 16130127.00000000 40184144.00000000 8330.60156250   861616.68750000 686424.81250000 
0.13300    24679852.00000000 15903454.00000000 39611128.00000000 8128.67382812   842877.37500000 671451.93750000 
0.13400    24319106.00000000 15677182.00000000 39039484.00000000 7931.04492188   824401.43750000 656680.43750000 
0.13500    23959786.00000000 15451467.00000000 38469568.00000000 7737.70947266   806193.75000000 642126.00000000 
0.13600    23601728.00000000 15226323.00000000 37901304.00000000 7548.58300781   788261.00000000 627779.18750000 
0.13700    23245626.00000000 15002040.00000000 37336280.00000000 7363.54589844   770612.50000000 613657.12500000 
0.13800    22891222.00000000 14778631.00000000 36773420.00000000 7182.59912109   753239.37500000 599757.43750000 
0.13900    22539002.00000000 14556297.00000000 36213612.00000000 7005.68896484   736153.87500000 586087.93750000 
0.14000    22189106.00000000 14335149.00000000 35657484.00000000 6832.72167969   719361.50000000 572643.18750000 
0.14100    21841848.00000000 14115217.00000000 35104656.00000000 6663.57617188   702847.75000000 559431.87500000 
0.14200    21496942.00000000 13896712.00000000 34555068.00000000 6498.13183594   686628.62500000 546440.81250000 
0.14300    21154754.00000000 13679725.00000000 34010304.00000000 6336.34716797   670702.18750000 533691.00000000 
0.14400    20815522.00000000 13464333.00000000 33469242.00000000 6178.11132812   655051.93750000 521166.90625000 
0.14500    20479140.00000000 13250644.00000000 32933154.00000000 6023.38964844   639703.87500000 508874.62500000 
0.14600    20146146.00000000 13038684.00000000 32401596.00000000 5871.98583984   624631.56250000 496814.75000000 
0.14700    19816402.00000000 12828647.00000000 31875258.00000000 5723.93798828   609854.56250000 484983.78125000 
0.14800    19489594.00000000 12620531.00000000 31353744.00000000 5578.94580078   595356.93750000 473378.46875000 
0.14900    19166622.00000000 12414508.00000000 30837614.00000000 5437.10449219   581138.06250000 461997.53125000 
0.15000    18846870.00000000 12210349.00000000 30326878.00000000 5298.22119141   567192.43750000 450842.31250000 
0.15100    18530962.00000000 12008492.00000000 29821856.00000000 5162.26171875   553527.43750000 439905.59375000 
0.15200    18218596.00000000 11808915.00000000 29322242.00000000 5029.15722656   540133.56250000 429188.34375000 
0.15300    17910252.00000000 11611496.00000000 28828870.00000000 4898.72753906   526996.25000000 418689.18750000 
0.15400    17605348.00000000 11416394.00000000 28341082.00000000 4770.96777344   514127.37500000 408398.21875000 
0.15500    17304290.00000000 11223599.00000000 27859342.00000000 4645.83837891   501515.78125000 398318.03125000 
0.15600    17007144.00000000 11033226.00000000 27383652.00000000 4523.19140625   489155.65625000 388439.50000000 
0.15700    16714227.00000000 10845213.00000000 26914424.00000000 4403.01757812   477046.18750000 378765.37500000 
0.15800    16424921.00000000 10659591.00000000 26450956.00000000 4285.22607422   465177.00000000 369287.40625000 
0.15900    16139606.00000000 10476573.00000000 25993686.00000000 4169.85644531   453553.09375000 360004.90625000 
0.16000    15858136.00000000 10295916.00000000 25543090.00000000 4056.75683594   442162.34375000 350912.43750000 
0.16100    15580847.00000000 10117781.00000000 25098434.00000000 3945.93286133   431003.84375000 342009.84375000 
0.16200    15307353.00000000 9942121.00000000 24660224.00000000 3837.33447266   420071.59375000 333286.96875000 
0.16300    15037974.00000000 9768872.00000000 24228188.00000000 3730.96655273   409361.96875000 324747.68750000 
0.16400    14772487.00000000 9598152.00000000 23802638.00000000 3626.81494141   398871.53125000 316383.37500000 
0.16500    14510883.00000000 9429973.00000000 23383066.00000000 3524.76000977   388595.62500000 308189.34375000 
0.16600    14253290.00000000 9264251.00000000 22970148.00000000 3424.90112305   378527.75000000 300170.21875000 
0.16700    13999589.00000000 9101049.00000000 22563050.00000000 3327.16577148   368663.75000000 292310.18750000 
0.16800    13749787.00000000 8940208.00000000 22162318.00000000 3231.54833984   359007.25000000 284616.81250000 
0.16900    13503891.00000000 8781859.00000000 21767862.00000000 3138.11279297   349545.81250000 277084.15625000 
0.17000    13261704.00000000 8625957.00000000 21379268.00000000 3046.76831055   340281.53125000 269705.34375000 
