# SAXS profile: number of points = 501, q_min = 0, q_max = 0.5, delta_q = 0.001
#    q    intensity 
0.00000    162230912.00000000 101201784.00000000 256270736.00000000 108255.28906250 8381710.50000000 6619807.00000000 
0.00100    162194864.00000000 101176120.00000000 256206496.00000000 108219.38281250 8379280.00000000 6617901.50000000 
0.00200    162079792.00000000 101102160.00000000 256017088.00000000 108111.73437500 8371867.00000000 6612129.50000000 
0.00300    161881328.00000000 100977888.00000000 255699056.00000000 107932.79687500 8359589.00000000 6602449.50000000 
0.00400    161595872.00000000 100803544.00000000 255256384.00000000 107683.32031250 8342412.00000000 6589033.50000000 
0.00500    161231072.00000000 100579200.00000000 254684112.00000000 107363.45312500 8320469.50000000 6571731.00000000 
0.00600    160788208.00000000 100306480.00000000 253991296.00000000 106973.85937500 8293667.50000000 6550674.00000000 
0.00700    160260416.00000000 99986432.00000000 253173360.00000000 106516.32812500 8262134.00000000 6525894.50000000 
0.00800    159660304.00000000 99618416.00000000 252235296.00000000 105991.27343750 8225999.00000000 6497507.50000000 
0.00900    158985888.00000000 99205072.00000000 251176336.00000000 105398.62500000 8185175.50000000 6465498.50000000 
0.01000    158237424.00000000 98743440.00000000 249998000.00000000 104742.11718750 8139950.50000000 6429918.00000000 
0.01100    157413248.00000000 98236056.00000000 248703808.00000000 104021.43750000 8090277.50000000 6390879.00000000 
0.01200    156514448.00000000 97684296.00000000 247297760.00000000 103240.03906250 8036332.00000000 6348450.50000000 
0.01300    155546048.00000000 97088160.00000000 245779376.00000000 102398.60156250 7978126.50000000 6302783.50000000 
0.01400    154509888.00000000 96450608.00000000 244152736.00000000 101498.98437500 7915890.00000000 6253842.50000000 
0.01500    153406880.00000000 95772608.00000000 242420464.00000000 100542.93750000 7849739.50000000 6201860.50000000 
0.01600    152236704.00000000 95052432.00000000 240586640.00000000 99533.79687500  7779734.00000000 6146856.50000000 
0.01700    151004560.00000000 94293608.00000000 238652416.00000000 98472.47656250  7706124.50000000 6088950.50000000 
0.01800    149709552.00000000 93497496.00000000 236621376.00000000 97363.52343750  7628923.50000000 6028252.00000000 
0.01900    148357920.00000000 92664728.00000000 234499712.00000000 96206.12500000  7548389.00000000 5964978.50000000 
0.02000    146949792.00000000 91798536.00000000 232289584.00000000 95005.64843750  7464688.50000000 5899163.50000000 
0.02100    145486208.00000000 90897704.00000000 229991760.00000000 93763.13281250  7377916.50000000 5830920.00000000 
0.02200    143971808.00000000 89964616.00000000 227614416.00000000 92481.33593750  7288255.50000000 5760459.00000000 
0.02300    142409408.00000000 89001304.00000000 225160528.00000000 91163.67187500  7195947.00000000 5687818.50000000 
0.02400    140798464.00000000 88008584.00000000 222633584.00000000 89812.91406250  7101047.00000000 5613210.50000000 
0.02500    139145600.00000000 86988896.00000000 220037376.00000000 88431.30468750  7003800.50000000 5536725.00000000 
0.02600    137450608.00000000 85943544.00000000 217373792.00000000 87020.70312500  6904467.50000000 5458559.50000000 
0.02700    135716704.00000000 84874200.00000000 214652272.00000000 85586.00781250  6803087.50000000 5378797.50000000 
0.02800    133948856.00000000 83783152.00000000 211872848.00000000 84128.02343750  6699872.50000000 5297592.50000000 
0.02900    132147496.00000000 82671104.00000000 209042000.00000000 82650.32031250  6595022.00000000 5215095.50000000 
0.03000    130315576.00000000 81539552.00000000 206163040.00000000 81156.28906250  6488744.50000000 5131448.00000000 
0.03100    128456184.00000000 80390944.00000000 203239792.00000000 79646.75000000  6381187.00000000 5046811.00000000 
0.03200    126572152.00000000 79226640.00000000 200277776.00000000 78127.12500000  6272583.50000000 4961281.00000000 
0.03300    124667296.00000000 78049776.00000000 197282960.00000000 76598.81250000  6163017.50000000 4875038.00000000 
0.03400    122742416.00000000 76859680.00000000 194254832.00000000 75063.71875000  6052715.50000000 4788181.50000000 
0.03500    120801712.00000000 75658768.00000000 191199744.00000000 73524.68750000  5941868.00000000 4700873.50000000 
0.03600    118846216.00000000 74448568.00000000 188123984.00000000 71984.58593750  5830588.00000000 4613227.00000000 
0.03700    116880528.00000000 73231008.00000000 185031024.00000000 70445.89843750  5719051.00000000 4525390.50000000 
0.03800    114906088.00000000 72007912.00000000 181923408.00000000 68910.88281250  5607446.50000000 4437418.50000000 
0.03900    112925656.00000000 70780856.00000000 178804416.00000000 67380.53125000  5495938.00000000 4349523.50000000 
0.04000    110941680.00000000 69550960.00000000 175680112.00000000 65858.18750000  5384626.50000000 4261822.00000000 
0.04100    108956760.00000000 68320352.00000000 172553696.00000000 64346.91796875  5273686.00000000 4174347.00000000 
0.04200    106973248.00000000 67089296.00000000 169428896.00000000 62846.43750000  5163267.50000000 4087301.25000000 
0.04300    104993872.00000000 65860192.00000000 166309840.00000000 61360.21875000  5053461.50000000 4000683.75000000 
0.04400    103019888.00000000 64634508.00000000 163197280.00000000 59889.62890625  4944465.00000000 3914718.75000000 
0.04500    101054200.00000000 63413404.00000000 160098656.00000000 58435.90234375  4836335.00000000 3829424.25000000 
0.04600    99098304.00000000 62197804.00000000 157016160.00000000 57000.98046875  4729231.00000000 3744923.75000000 
0.04700    97154760.00000000 60989312.00000000 153950672.00000000 55586.26953125  4623228.50000000 3661274.75000000 
0.04800    95225360.00000000 59789096.00000000 150906400.00000000 54192.79296875  4518473.00000000 3578590.00000000 
0.04900    93311152.00000000 58598504.00000000 147889024.00000000 52821.73046875  4414977.00000000 3496928.25000000 
0.05000    91415664.00000000 57418216.00000000 144896112.00000000 51475.06250000  4312949.00000000 3416353.00000000 
0.05100    89539680.00000000 56249008.00000000 141934384.00000000 50152.74218750  4212347.00000000 3336930.00000000 
0.05200    87683912.00000000 55092804.00000000 139005120.00000000 48856.14453125  4113365.50000000 3258744.25000000 
0.05300    85850152.00000000 53949872.00000000 136109648.00000000 47585.91015625  4015995.75000000 3181809.00000000 
0.05400    84040320.00000000 52821296.00000000 133251104.00000000 46342.22656250  3920290.00000000 3106214.00000000 
0.05500    82255144.00000000 51707912.00000000 130431656.00000000 45126.89062500  3826365.50000000 3031991.50000000 
0.05600    80497568.00000000 50610272.00000000 127653328.00000000 43938.98046875  3734228.25000000 2959181.25000000 
0.05700    78766024.00000000 49529508.00000000 124917864.00000000 42779.31250000  3643944.50000000 2887793.25000000 
0.05800    77063096.00000000 48465848.00000000 122225200.00000000 41649.08203125  3555500.00000000 2817896.25000000 
0.05900    75389264.00000000 47419780.00000000 119578992.00000000 40546.90625000  3468985.25000000 2749485.75000000 
0.06000    73745568.00000000 46392728.00000000 116979656.00000000 39473.51171875  3384385.50000000 2682567.50000000 
0.06100    72131592.00000000 45383916.00000000 114427928.00000000 38429.64843750  3301736.75000000 2617200.75000000 
0.06200    70549704.00000000 44394432.00000000 111925208.00000000 37413.87890625  3221054.50000000 2553353.25000000 
0.06300    68999704.00000000 43424460.00000000 109473952.00000000 36426.77734375  3142332.00000000 2491080.25000000 
0.06400    67482864.00000000 42474744.00000000 107072056.00000000 35468.00781250  3065580.50000000 2430331.25000000 
0.06500    65997272.00000000 41545088.00000000 104722320.00000000 34537.26171875  2990788.50000000 2371130.25000000 
0.06600    64544912.00000000 40635680.00000000 102425448.00000000 33634.04687500  2917955.50000000 2313467.25000000 
0.06700    63126288.00000000 39747456.00000000 100178848.00000000 32758.13281250  2847030.75000000 2257353.75000000 
0.06800    61740796.00000000 38880088.00000000 97986600.00000000 31908.83789062  2778097.75000000 2202747.25000000 
0.06900    60389408.00000000 38033144.00000000 95846384.00000000 31086.04492188  2711024.75000000 2149657.25000000 
0.07000    59071096.00000000 37207368.00000000 93760328.00000000 30288.75585938  2645843.50000000 2098017.00000000 
0.07100    57786512.00000000 36402568.00000000 91725720.00000000 29516.73632812  2582553.50000000 2047893.87500000 
0.07200    56534752.00000000 35618188.00000000 89744664.00000000 28768.58007812  2521056.50000000 1999206.12500000 
0.07300    55316836.00000000 34854864.00000000 87815792.00000000 28044.76757812  2461385.50000000 1951916.25000000 
0.07400    54131508.00000000 34112016.00000000 85939592.00000000 27344.10351562  2403454.50000000 1906034.25000000 
0.07500    52978840.00000000 33390384.00000000 84114568.00000000 26665.68554688  2347260.75000000 1861509.37500000 
0.07600    51858928.00000000 32688260.00000000 82341632.00000000 26009.00781250  2292729.25000000 1818326.62500000 
0.07700    50770608.00000000 32006692.00000000 80618280.00000000 25373.34960938  2239884.75000000 1776443.75000000 
0.07800    49714044.00000000 31344702.00000000 78946000.00000000 24757.95898438  2188610.75000000 1735826.75000000 
0.07900    48688488.00000000 30702784.00000000 77322240.00000000 24162.23242188  2138919.75000000 1696454.50000000 
0.08000    47693980.00000000 30079894.00000000 75748192.00000000 23585.07617188  2090747.50000000 1658284.12500000 
0.08100    46728896.00000000 29476332.00000000 74221480.00000000 23026.24218750  2044045.75000000 1621277.87500000 
0.08200    45793876.00000000 28891328.00000000 72742088.00000000 22484.83789062  1998756.25000000 1585410.50000000 
0.08300    44887776.00000000 28324650.00000000 71308496.00000000 21960.17382812  1954867.62500000 1550635.12500000 
0.08400    44009752.00000000 27776106.00000000 69920912.00000000 21451.54296875  1912309.62500000 1516930.62500000 
0.08500    43159724.00000000 27245142.00000000 68576664.00000000 20957.98632812  1871045.37500000 1484238.87500000 
0.08600    42336580.00000000 26731438.00000000 67275856.00000000 20479.57421875  1831025.75000000 1452550.25000000 
0.08700    41540204.00000000 26234434.00000000 66017856.00000000 20015.26171875  1792230.37500000 1421825.75000000 
0.08800    40769448.00000000 25753772.00000000 64800732.00000000 19564.21289062  1754583.37500000 1392016.62500000 
0.08900    40023532.00000000 25289130.00000000 63622868.00000000 19126.20312500  1718059.00000000 1363092.25000000 
0.09000    39302712.00000000 24840172.00000000 62484392.00000000 18700.54101562  1682614.25000000 1335034.37500000 
0.09100    38605040.00000000 24406424.00000000 61384784.00000000 18286.67578125  1648187.12500000 1307787.12500000 
0.09200    37930596.00000000 23987146.00000000 60320300.00000000 17884.06250000  1614772.50000000 1281323.12500000 
0.09300    37278376.00000000 23582252.00000000 59292328.00000000 17492.37695312  1582311.87500000 1255649.12500000 
0.09400    36648248.00000000 23191028.00000000 58298708.00000000 17110.80664062  1550771.25000000 1230678.25000000 
0.09500    36037848.00000000 22813106.00000000 57338104.00000000 16739.48437500  1520098.00000000 1206422.37500000 
0.09600    35448756.00000000 22448288.00000000 56410476.00000000 16377.54101562  1490287.25000000 1182828.25000000 
0.09700    34878808.00000000 22095562.00000000 55513900.00000000 16024.73828125  1461286.87500000 1159882.87500000 
0.09800    34327440.00000000 21755102.00000000 54647128.00000000 15680.60546875  1433048.75000000 1137569.62500000 
0.09900    33794824.00000000 21426416.00000000 53809480.00000000 15344.97558594  1405577.75000000 1115841.87500000 
0.10000    33279080.00000000 21108338.00000000 52999452.00000000 15017.29785156  1378804.50000000 1094672.75000000 
0.10100    32780072.00000000 20801212.00000000 52216368.00000000 14697.50781250  1352733.87500000 1074061.00000000 
0.10200    32297350.00000000 20504200.00000000 51458332.00000000 14385.26757812  1327318.12500000 1053959.75000000 
0.10300    31830018.00000000 20217180.00000000 50726064.00000000 14080.28222656  1302522.75000000 1034370.43750000 
0.10400    31377832.00000000 19939434.00000000 50016268.00000000 13782.25781250  1278350.00000000 1015262.06250000 
0.10500    30939484.00000000 19670916.00000000 49329936.00000000 13491.08496094  1254757.00000000 996619.37500000 
0.10600    30514664.00000000 19410654.00000000 48664980.00000000 13206.43847656  1231729.62500000 978409.93750000 
0.10700    30103066.00000000 19158838.00000000 48020328.00000000 12928.28906250  1209244.50000000 960639.93750000 
0.10800    29703600.00000000 18914738.00000000 47395784.00000000 12656.41406250  1187259.37500000 943272.93750000 
0.10900    29316060.00000000 18677998.00000000 46789392.00000000 12390.47656250  1165782.00000000 926290.93750000 
0.11000    28939872.00000000 18448348.00000000 46201436.00000000 12130.51171875  1144781.50000000 909709.18750000 
0.11100    28573928.00000000 18225580.00000000 45629996.00000000 11876.21386719  1124251.87500000 893474.81250000 
0.11200    28218764.00000000 18008850.00000000 45075104.00000000 11627.63183594  1104159.00000000 877597.06250000 
0.11300    27872788.00000000 17798180.00000000 44534648.00000000 11384.62890625  1084493.50000000 862062.00000000 
0.11400    27535980.00000000 17593220.00000000 44008932.00000000 11146.80566406  1065244.50000000 846838.12500000 
0.11500    27207818.00000000 17393648.00000000 43496428.00000000 10914.26660156  1046391.06250000 831934.00000000 
0.11600    26887724.00000000 17199078.00000000 42997108.00000000 10686.91015625  1027930.75000000 817337.62500000 
0.11700    26575498.00000000 17009208.00000000 42510044.00000000 10464.62011719  1009835.31250000 803029.43750000 
0.11800    26270282.00000000 16823728.00000000 42034232.00000000 10247.10058594  992103.12500000 789005.62500000 
0.11900    25971880.00000000 16642450.00000000 41567972.00000000 10034.40234375  974709.62500000 775243.00000000 
0.12000    25680038.00000000 16464804.00000000 41112472.00000000 9826.42285156   957648.93750000 761750.37500000 
0.12100    25393978.00000000 16290774.00000000 40666176.00000000 9623.16601562   940919.00000000 748513.25000000 
0.12200    25113424.00000000 16120094.00000000 40228352.00000000 9424.22949219   924501.50000000 735514.00000000 
0.12300    24838300.00000000 15952468.00000000 39798440.00000000 9229.70312500   908373.68750000 722753.50000000 
0.12400    24567690.00000000 15787575.00000000 39375492.00000000 9039.50878906   892544.56250000 710217.62500000 
0.12500    24301708.00000000 15625292.00000000 38960124.00000000 8853.30175781   876994.93750000 697900.00000000 
0.12600    24039878.00000000 15465386.00000000 38550812.00000000 8671.28906250   861725.12500000 685794.43750000 
0.12700    23781762.00000000 15307567.00000000 38146824.00000000 8493.26562500   846706.87500000 673899.56250000 
0.12800    23527176.00000000 15151786.00000000 37748308.00000000 8318.95214844   831943.31250000 662199.06250000 
0.12900    23275750.00000000 14997761.00000000 37354604.00000000 8148.38574219   817432.31250000 650685.25000000 
0.13000    23027080.00000000 14845254.00000000 36965000.00000000 7981.53173828   803145.43750000 639360.56250000 
0.13100    22781260.00000000 14694157.00000000 36579148.00000000 7818.04638672   789089.56250000 628208.37500000 
0.13200    22537698.00000000 14544243.00000000 36197156.00000000 7657.99511719   775252.87500000 617226.68750000 
0.13300    22296360.00000000 14395478.00000000 35818044.00000000 7501.26953125   761626.87500000 606404.93750000 
0.13400    22056870.00000000 14247510.00000000 35441344.00000000 7347.65185547   748197.31250000 595745.25000000 
0.13500    21818920.00000000 14100378.00000000 35067108.00000000 7197.07324219   734968.18750000 585241.12500000 
0.13600    21582700.00000000 13953961.00000000 34694808.00000000 7049.46972656   721929.68750000 574879.18750000 
0.13700    21347452.00000000 13808067.00000000 34324348.00000000 6904.71142578   709065.31250000 564658.62500000 
0.13800    21113502.00000000 13662458.00000000 33954940.00000000 6762.65087891   696381.12500000 554572.00000000 
0.13900    20880548.00000000 13517311.00000000 33587332.00000000 6623.24755859   683859.50000000 544616.62500000 
0.14000    20648320.00000000 13372386.00000000 33220564.00000000 6486.38330078   671500.37500000 534795.12500000 
0.14100    20416610.00000000 13227568.00000000 32854200.00000000 6351.95800781   659297.06250000 525088.06250000 
0.14200    20185602.00000000 13082863.00000000 32488356.00000000 6219.82958984   647248.43750000 515495.96875000 
0.14300    19954770.00000000 12938155.00000000 32123000.00000000 6089.98876953   635339.68750000 506019.43750000 
0.14400    19724414.00000000 12793350.00000000 31757516.00000000 5962.29003906   623562.87500000 496648.28125000 
0.14500    19494336.00000000 12648492.00000000 31392476.00000000 5836.67675781   611932.62500000 487385.34375000 
0.14600    19264394.00000000 12503441.00000000 31027252.00000000 5713.12548828   600426.12500000 478220.84375000 
0.14700    19034320.00000000 12358223.00000000 30661790.00000000 5591.46679688   589043.25000000 469159.56250000 
0.14800    18804260.00000000 12212715.00000000 30295984.00000000 5471.73339844   577785.87500000 460186.56250000 
0.14900    18574254.00000000 12067026.00000000 29929860.00000000 5353.73925781   566644.12500000 451305.56250000 
0.15000    18344404.00000000 11921003.00000000 29563514.00000000 5237.62207031   555612.75000000 442521.06250000 
0.15100    18114218.00000000 11774829.00000000 29196674.00000000 5123.16992188   544700.81250000 433818.65625000 
0.15200    17884054.00000000 11628357.00000000 28829404.00000000 5010.40917969   533902.93750000 425204.56250000 
0.15300    17653556.00000000 11481674.00000000 28461662.00000000 4899.34912109   523206.31250000 416676.75000000 
0.15400    17423186.00000000 11334688.00000000 28093618.00000000 4789.90576172   512618.25000000 408227.46875000 
0.15500    17192694.00000000 11187546.00000000 27725558.00000000 4682.04150391   502135.68750000 399865.28125000 
0.15600    16962014.00000000 11040060.00000000 27356740.00000000 4575.73388672   491754.59375000 391581.68750000 
0.15700    16731525.00000000 10892541.00000000 26988052.00000000 4471.05029297   481480.65625000 383384.75000000 
0.15800    16501009.00000000 10744863.00000000 26618958.00000000 4367.90722656   471302.81250000 375259.78125000 
0.15900    16270554.00000000 10597011.00000000 26249778.00000000 4266.38818359   461235.50000000 367219.71875000 
0.16000    16040161.00000000 10449155.00000000 25880684.00000000 4166.38769531   451268.78125000 359261.50000000 
0.16100    15810059.00000000 10301293.00000000 25511816.00000000 4067.95947266   441411.34375000 351387.25000000 
0.16200    15580063.00000000 10153497.00000000 25143278.00000000 3971.19702148   431657.65625000 343593.25000000 
0.16300    15350588.00000000 10005848.00000000 24775060.00000000 3875.99877930   422006.50000000 335882.53125000 
0.16400    15121438.00000000 9858333.00000000 24407394.00000000 3782.46655273   412467.93750000 328255.31250000 
0.16500    14892930.00000000 9711001.00000000 24040450.00000000 3690.57397461   403038.03125000 320716.43750000 
0.16600    14664896.00000000 9563877.00000000 23674512.00000000 3600.35937500   393718.93750000 313265.09375000 
0.16700    14437587.00000000 9417211.00000000 23309224.00000000 3511.82348633   384513.21875000 305902.43750000 
0.16800    14211186.00000000 9270868.00000000 22945284.00000000 3425.02807617   375420.81250000 298626.81250000 
0.16900    13985540.00000000 9125102.00000000 22582610.00000000 3339.99316406   366450.81250000 291447.56250000 
0.17000    13761112.00000000 8979865.00000000 22221546.00000000 3256.75927734   357600.59375000 284360.96875000 
