# SAXS profile: number of points = 501, q_min = 0, q_max = 0.5, delta_q = 0.001
#    q    intensity 
0.00000    162236304.00000000 101201696.00000000 256271424.00000000 97657.88281250  7960848.50000000 6287487.50000000 
0.00100    162207152.00000000 101182944.00000000 256224688.00000000 97635.46093750  7959220.00000000 6286158.00000000 
0.00200    162119952.00000000 101128144.00000000 256085360.00000000 97566.42187500  7954201.00000000 6282220.00000000 
0.00300    161974784.00000000 101036384.00000000 255851120.00000000 97452.39843750  7945850.50000000 6275658.50000000 
0.00400    161766784.00000000 100907448.00000000 255524976.00000000 97292.77343750  7934193.50000000 6266456.50000000 
0.00500    161499888.00000000 100742552.00000000 255103792.00000000 97088.31250000  7919216.00000000 6254642.50000000 
0.00600    161174496.00000000 100541608.00000000 254592848.00000000 96838.75000000  7900930.00000000 6240259.00000000 
0.00700    160790208.00000000 100302640.00000000 253988128.00000000 96544.93750000  7879403.50000000 6223304.50000000 
0.00800    160349232.00000000 100029976.00000000 253294896.00000000 96206.94531250  7854636.00000000 6203809.50000000 
0.00900    159847168.00000000 99721448.00000000 252511152.00000000 95825.81250000  7826699.50000000 6181724.00000000 
0.01000    159291984.00000000 99378208.00000000 251636544.00000000 95401.87500000  7795554.50000000 6157263.50000000 
0.01100    158681168.00000000 99000208.00000000 250675408.00000000 94934.76562500  7761292.50000000 6130292.00000000 
0.01200    158015984.00000000 98588256.00000000 249627696.00000000 94426.86718750  7724027.00000000 6100907.50000000 
0.01300    157295360.00000000 98141576.00000000 248492960.00000000 93877.78125000  7683664.50000000 6069108.50000000 
0.01400    156521888.00000000 97661848.00000000 247275296.00000000 93288.32812500  7640357.00000000 6034963.00000000 
0.01500    155694976.00000000 97150216.00000000 245974032.00000000 92660.42968750  7594174.00000000 5998577.00000000 
0.01600    154815456.00000000 96606024.00000000 244591216.00000000 91993.34375000  7545077.50000000 5959945.00000000 
0.01700    153885968.00000000 96031048.00000000 243129296.00000000 91289.36718750  7493252.00000000 5919086.50000000 
0.01800    152908768.00000000 95424704.00000000 241589200.00000000 90549.25781250  7438682.50000000 5876098.50000000 
0.01900    151882752.00000000 94789056.00000000 239971536.00000000 89774.00781250  7381483.50000000 5831040.00000000 
0.02000    150807808.00000000 94124352.00000000 238282592.00000000 88964.47656250  7321739.50000000 5783958.00000000 
0.02100    149687552.00000000 93430552.00000000 236519664.00000000 88121.86718750  7259442.00000000 5734893.50000000 
0.02200    148523936.00000000 92708872.00000000 234686512.00000000 87247.53125000  7194783.50000000 5683932.50000000 
0.02300    147316752.00000000 91961272.00000000 232785456.00000000 86343.14062500  7127804.50000000 5631116.00000000 
0.02400    146065552.00000000 91187176.00000000 230818656.00000000 85408.83593750  7058557.00000000 5576557.00000000 
0.02500    144776320.00000000 90388264.00000000 228787520.00000000 84446.62500000  6987151.00000000 5520357.50000000 
0.02600    143447344.00000000 89564600.00000000 226695392.00000000 83457.41406250  6913679.50000000 5462440.00000000 
0.02700    142080992.00000000 88717992.00000000 224543776.00000000 82443.12500000  6838283.00000000 5403033.50000000 
0.02800    140678064.00000000 87848304.00000000 222334656.00000000 81405.42968750  6760947.50000000 5342047.00000000 
0.02900    139241344.00000000 86958304.00000000 220073728.00000000 80344.96093750  6681834.50000000 5279723.50000000 
0.03000    137771104.00000000 86047136.00000000 217759264.00000000 79263.07812500  6601084.50000000 5216089.00000000 
0.03100    136271392.00000000 85116808.00000000 215395856.00000000 78161.60156250  6518706.50000000 5151160.50000000 
0.03200    134740352.00000000 84167992.00000000 212985376.00000000 77041.78125000  6434835.50000000 5085078.00000000 
0.03300    133181272.00000000 83201632.00000000 210531680.00000000 75904.88281250  6349606.00000000 5017875.00000000 
0.03400    131596696.00000000 82219280.00000000 208035344.00000000 74752.79687500  6263040.50000000 4949666.50000000 
0.03500    129987496.00000000 81220752.00000000 205500464.00000000 73586.52343750  6175299.50000000 4880531.50000000 
0.03600    128355000.00000000 80208896.00000000 202929568.00000000 72407.36718750  6086469.50000000 4810490.00000000 
0.03700    126700808.00000000 79182928.00000000 200324368.00000000 71217.24218750  5996655.50000000 4739708.00000000 
0.03800    125027504.00000000 78145184.00000000 197689200.00000000 70017.25781250  5905935.00000000 4668163.00000000 
0.03900    123336848.00000000 77095432.00000000 195024064.00000000 68808.84375000  5814448.00000000 4596055.00000000 
0.04000    121628968.00000000 76036040.00000000 192334048.00000000 67594.28125000  5722244.50000000 4523346.00000000 
0.04100    119907152.00000000 74967568.00000000 189620576.00000000 66373.79687500  5629464.50000000 4450221.00000000 
0.04200    118172336.00000000 73890856.00000000 186887024.00000000 65148.84765625  5536172.00000000 4376678.50000000 
0.04300    116425768.00000000 72807272.00000000 184136032.00000000 63921.39062500  5442476.50000000 4302814.50000000 
0.04400    114670280.00000000 71717968.00000000 181369504.00000000 62692.36328125  5348500.00000000 4228692.00000000 
0.04500    112906888.00000000 70623240.00000000 178589824.00000000 61463.23828125  5254286.50000000 4154417.25000000 
0.04600    111136376.00000000 69523416.00000000 175799520.00000000 60235.23828125  5159962.50000000 4080030.50000000 
0.04700    109362024.00000000 68421704.00000000 173002688.00000000 59009.10937500  5065616.00000000 4005637.00000000 
0.04800    107583672.00000000 67317120.00000000 170200352.00000000 57786.91015625  4971327.00000000 3931260.25000000 
0.04900    105804416.00000000 66211728.00000000 167395376.00000000 56569.33984375  4877193.00000000 3857025.75000000 
0.05000    104024544.00000000 65105932.00000000 164588800.00000000 55357.35937500  4783311.00000000 3782967.50000000 
0.05100    102246032.00000000 64001176.00000000 161786192.00000000 54152.42968750  4689719.50000000 3709151.00000000 
0.05200    100470976.00000000 62897884.00000000 158987024.00000000 52955.60156250  4596506.50000000 3635649.00000000 
0.05300    98699600.00000000 61797044.00000000 156194704.00000000 51767.75390625  4503787.00000000 3562514.00000000 
0.05400    96934584.00000000 60699768.00000000 153411376.00000000 50589.80468750  4411622.00000000 3489808.50000000 
0.05500    95176280.00000000 59606516.00000000 150637488.00000000 49422.94140625  4320080.00000000 3417592.25000000 
0.05600    93425792.00000000 58518220.00000000 147877328.00000000 48268.07812500  4229216.50000000 3345911.25000000 
0.05700    91685976.00000000 57436036.00000000 145133040.00000000 47125.71093750  4139130.25000000 3274829.25000000 
0.05800    89955768.00000000 56360092.00000000 142404560.00000000 45996.97265625  4049877.00000000 3204388.00000000 
0.05900    88238880.00000000 55291996.00000000 139694592.00000000 44882.24609375  3961471.00000000 3134651.25000000 
0.06000    86534264.00000000 54231360.00000000 137005984.00000000 43782.67187500  3874033.00000000 3065657.25000000 
0.06100    84844440.00000000 53180136.00000000 134340128.00000000 42698.41796875  3787589.00000000 2997449.50000000 
0.06200    83169464.00000000 52137788.00000000 131698184.00000000 41631.21875000  3702195.75000000 2930046.50000000 
0.06300    81511208.00000000 51105820.00000000 129081720.00000000 40580.27734375  3617909.25000000 2863518.75000000 
0.06400    79869512.00000000 50084244.00000000 126491736.00000000 39546.82031250  3534746.75000000 2797898.75000000 
0.06500    78247200.00000000 49073924.00000000 123930872.00000000 38531.00000000  3452812.00000000 2733217.00000000 
0.06600    76643776.00000000 48075556.00000000 121399984.00000000 37533.56640625  3372091.00000000 2669514.50000000 
0.06700    75060224.00000000 47088692.00000000 118900936.00000000 36555.28515625  3292635.25000000 2606776.50000000 
0.06800    73496744.00000000 46115628.00000000 116433952.00000000 35595.30859375  3214479.25000000 2545090.25000000 
0.06900    71955352.00000000 45155240.00000000 114001168.00000000 34655.06250000  3137647.50000000 2484441.75000000 
0.07000    70436416.00000000 44209024.00000000 111602864.00000000 33734.45312500  3062191.75000000 2424851.00000000 
0.07100    68939840.00000000 43276904.00000000 109240040.00000000 32833.07031250  2988108.00000000 2366366.50000000 
0.07200    67466824.00000000 42358528.00000000 106914232.00000000 31952.13867188  2915406.25000000 2308964.25000000 
0.07300    66017436.00000000 41455624.00000000 104626312.00000000 31090.93359375  2844179.75000000 2252719.25000000 
0.07400    64592924.00000000 40567600.00000000 102376272.00000000 30250.08398438  2774350.25000000 2197579.50000000 
0.07500    63192932.00000000 39694916.00000000 100165624.00000000 29429.31445312  2705980.75000000 2143589.00000000 
0.07600    61817836.00000000 38837620.00000000 97994512.00000000 28628.67187500  2639068.00000000 2090754.12500000 
0.07700    60468440.00000000 37996544.00000000 95862952.00000000 27848.35742188  2573649.00000000 2039071.50000000 
0.07800    59145148.00000000 37171280.00000000 93773256.00000000 27088.13867188  2509675.75000000 1988546.12500000 
0.07900    57847488.00000000 36361908.00000000 91724016.00000000 26347.64257812  2447201.75000000 1939189.87500000 
0.08000    56576444.00000000 35569240.00000000 89716632.00000000 25627.10156250  2386176.75000000 1890994.37500000 
0.08100    55331792.00000000 34792904.00000000 87750480.00000000 24926.40820312  2326620.00000000 1843949.37500000 
0.08200    54113508.00000000 34033164.00000000 85826312.00000000 24245.06445312  2268555.25000000 1798081.87500000 
0.08300    52921992.00000000 33289688.00000000 83943768.00000000 23582.90820312  2211934.50000000 1753340.12500000 
0.08400    51757092.00000000 32563082.00000000 82103504.00000000 22939.81250000  2156761.25000000 1709756.00000000 
0.08500    50618800.00000000 31852870.00000000 80305480.00000000 22315.62304688  2103000.75000000 1667298.25000000 
0.08600    49506916.00000000 31159520.00000000 78549560.00000000 21709.82421875  2050716.00000000 1625958.75000000 
0.08700    48422096.00000000 30482544.00000000 76834848.00000000 21121.98437500  1999796.12500000 1585736.25000000 
0.08800    47363244.00000000 29821990.00000000 75162144.00000000 20552.05859375  1950280.87500000 1546602.62500000 
0.08900    46330580.00000000 29177826.00000000 73531256.00000000 19999.55859375  1902110.50000000 1508554.62500000 
0.09000    45323920.00000000 28550012.00000000 71941448.00000000 19463.97460938  1855314.37500000 1471568.25000000 
0.09100    44343412.00000000 27938214.00000000 70391936.00000000 18945.28710938  1809846.62500000 1435627.75000000 
0.09200    43388472.00000000 27342456.00000000 68883768.00000000 18442.78515625  1765669.12500000 1400719.75000000 
0.09300    42459016.00000000 26762692.00000000 67414912.00000000 17956.18750000  1722778.25000000 1366816.25000000 
0.09400    41554232.00000000 26198404.00000000 65986036.00000000 17485.02148438  1681131.12500000 1333900.12500000 
0.09500    40674144.00000000 25649680.00000000 64595852.00000000 17028.68750000  1640717.50000000 1301947.87500000 
0.09600    39818608.00000000 25116040.00000000 63244508.00000000 16587.15234375  1601505.62500000 1270960.25000000 
0.09700    38986920.00000000 24597386.00000000 61931352.00000000 16159.65429688  1563448.12500000 1240881.25000000 
0.09800    38178948.00000000 24093678.00000000 60655096.00000000 15745.94726562  1526543.75000000 1211708.25000000 
0.09900    37394372.00000000 23604588.00000000 59415820.00000000 15345.44238281  1490750.37500000 1183411.12500000 
0.10000    36632000.00000000 23129512.00000000 58212404.00000000 14957.64550781  1456038.25000000 1155971.00000000 
0.10100    35892052.00000000 22668496.00000000 57043932.00000000 14582.22753906  1422369.62500000 1129345.50000000 
0.10200    35173752.00000000 22221158.00000000 55910464.00000000 14218.88574219  1389714.37500000 1103534.25000000 
0.10300    34477188.00000000 21787226.00000000 54810128.00000000 13866.84960938  1358058.62500000 1078490.00000000 
0.10400    33801008.00000000 21366268.00000000 53743264.00000000 13525.96484375  1327340.37500000 1054213.75000000 
0.10500    33145460.00000000 20958298.00000000 52709200.00000000 13195.77343750  1297564.37500000 1030670.68750000 
0.10600    32509428.00000000 20562496.00000000 51705416.00000000 12875.55468750  1268664.00000000 1007820.68750000 
0.10700    31892962.00000000 20179374.00000000 50733144.00000000 12565.30859375  1240628.62500000 985650.75000000 
0.10800    31295358.00000000 19807556.00000000 49790132.00000000 12264.30859375  1213434.62500000 964146.81250000 
0.10900    30715862.00000000 19447234.00000000 48876256.00000000 11972.26855469  1187031.12500000 943265.18750000 
0.11000    30154174.00000000 19098282.00000000 47990568.00000000 11688.91210938  1161394.25000000 922988.25000000 
0.11100    29609650.00000000 18760026.00000000 47132432.00000000 11413.64843750  1136502.62500000 903301.18750000 
0.11200    29081824.00000000 18432312.00000000 46300000.00000000 11146.33789062  1112315.50000000 884171.00000000 
0.11300    28570010.00000000 18114722.00000000 45493476.00000000 10886.42480469  1088807.00000000 865571.06250000 
0.11400    28073826.00000000 17806854.00000000 44711604.00000000 10633.66601562  1065948.62500000 847490.81250000 
0.11500    27592708.00000000 17508664.00000000 43953908.00000000 10387.75976562  1043716.68750000 829900.00000000 
0.11600    27125908.00000000 17219466.00000000 43218988.00000000 10148.31640625  1022082.25000000 812781.31250000 
0.11700    26673284.00000000 16938940.00000000 42506416.00000000 9915.10449219   1001015.18750000 796109.43750000 
0.11800    26234022.00000000 16667183.00000000 41815060.00000000 9687.70214844   980489.56250000 779864.31250000 
0.11900    25807864.00000000 16403451.00000000 41143968.00000000 9466.02734375   960488.18750000 764031.31250000 
0.12000    25393836.00000000 16147471.00000000 40493104.00000000 9249.57910156   940969.31250000 748583.12500000 
0.12100    24992078.00000000 15899124.00000000 39861004.00000000 9038.38378906   921931.25000000 733510.18750000 
0.12200    24601606.00000000 15657914.00000000 39247024.00000000 8832.01855469   903342.18750000 718793.87500000 
0.12300    24222062.00000000 15423655.00000000 38650360.00000000 8630.29687500   885179.50000000 704412.87500000 
0.12400    23853042.00000000 15195937.00000000 38070468.00000000 8433.09765625   867424.12500000 690344.87500000 
0.12500    23494070.00000000 14974471.00000000 37506208.00000000 8240.01074219   850055.62500000 676584.18750000 
0.12600    23144642.00000000 14759167.00000000 36957624.00000000 8051.20849609   833052.18750000 663116.50000000 
0.12700    22804484.00000000 14549472.00000000 36423156.00000000 7866.16943359   816405.06250000 649922.75000000 
0.12800    22472940.00000000 14345214.00000000 35902556.00000000 7684.96679688   800089.62500000 636987.25000000 
0.12900    22149696.00000000 14146348.00000000 35394976.00000000 7507.34619141   784087.87500000 624304.06250000 
0.13000    21834200.00000000 13952311.00000000 34899912.00000000 7333.18701172   768396.68750000 611854.93750000 
0.13100    21526364.00000000 13762825.00000000 34416636.00000000 7162.45703125   752987.25000000 599634.43750000 
0.13200    21225570.00000000 13577881.00000000 33944956.00000000 6994.90917969   737854.18750000 587624.31250000 
0.13300    20931726.00000000 13397198.00000000 33483472.00000000 6830.56933594   722988.25000000 575827.00000000 
0.13400    20643904.00000000 13220444.00000000 33032380.00000000 6669.31542969   708368.43750000 564219.43750000 
0.13500    20362432.00000000 13047507.00000000 32590738.00000000 6511.00244141   693987.31250000 552805.93750000 
0.13600    20086496.00000000 12877946.00000000 32158300.00000000 6355.66894531   679837.00000000 541564.06250000 
0.13700    19816302.00000000 12711909.00000000 31734170.00000000 6203.20947266   665910.43750000 530496.81250000 
0.13800    19550972.00000000 12548897.00000000 31317778.00000000 6053.47607422   652194.87500000 519593.78125000 
0.13900    19290616.00000000 12388888.00000000 30909586.00000000 5906.58886719   638684.00000000 508852.87500000 
0.14000    19034882.00000000 12231770.00000000 30508360.00000000 5762.41503906   625374.75000000 498264.06250000 
0.14100    18783402.00000000 12077298.00000000 30113804.00000000 5620.93359375   612258.31250000 487831.43750000 
0.14200    18536006.00000000 11925205.00000000 29725608.00000000 5482.12695312   599323.93750000 477533.40625000 
0.14300    18292522.00000000 11775481.00000000 29343484.00000000 5345.94628906   586576.31250000 467385.81250000 
0.14400    18052680.00000000 11627910.00000000 28966972.00000000 5212.43994141   573999.87500000 457366.06250000 
0.14500    17816058.00000000 11482427.00000000 28595890.00000000 5081.51708984   561605.81250000 447489.84375000 
0.14600    17582978.00000000 11338812.00000000 28229570.00000000 4953.23730469   549380.25000000 437744.25000000 
0.14700    17352774.00000000 11197107.00000000 27868168.00000000 4827.58251953   537321.00000000 428129.84375000 
0.14800    17125510.00000000 11056965.00000000 27511152.00000000 4704.49072266   525431.50000000 418641.18750000 
0.14900    16901030.00000000 10918451.00000000 27158248.00000000 4584.00390625   513699.18750000 409280.50000000 
0.15000    16679088.00000000 10781481.00000000 26809376.00000000 4466.11718750   502135.06250000 400044.81250000 
0.15100    16459697.00000000 10645866.00000000 26464098.00000000 4350.81103516   490730.09375000 390935.53125000 
0.15200    16242743.00000000 10511640.00000000 26122558.00000000 4238.11962891   479489.34375000 381953.09375000 
0.15300    16027807.00000000 10378643.00000000 25784296.00000000 4128.04345703   468404.53125000 373092.31250000 
0.15400    15815019.00000000 10246818.00000000 25449124.00000000 4020.55468750   457481.21875000 364355.40625000 
0.15500    15604452.00000000 10116200.00000000 25117152.00000000 3915.66406250   446720.15625000 355745.56250000 
0.15600    15395599.00000000 9986513.00000000 24787732.00000000 3813.33178711   436117.25000000 347257.12500000 
0.15700    15188816.00000000 9857803.00000000 24461568.00000000 3713.66772461   425677.18750000 338897.78125000 
0.15800    14983659.00000000 9730185.00000000 24137510.00000000 3616.53784180   415396.18750000 330660.75000000 
0.15900    14780340.00000000 9603447.00000000 23816332.00000000 3522.00976562   405279.53125000 322551.53125000 
0.16000    14578632.00000000 9477511.00000000 23497460.00000000 3430.06738281   395324.25000000 314568.71875000 
0.16100    14378612.00000000 9352578.00000000 23181320.00000000 3340.72827148   385534.28125000 306714.56250000 
0.16200    14180176.00000000 9228386.00000000 22867126.00000000 3253.90283203   375905.59375000 298989.09375000 
0.16300    13983394.00000000 9105073.00000000 22555342.00000000 3169.60205078   366444.75000000 291393.65625000 
0.16400    13787999.00000000 8982552.00000000 22245856.00000000 3087.87011719   357149.71875000 283927.87500000 
0.16500    13594181.00000000 8860690.00000000 21938350.00000000 3008.60595703   348022.31250000 276592.65625000 
0.16600    13401874.00000000 8739674.00000000 21633124.00000000 2931.85473633   339059.59375000 269389.56250000 
0.16700    13211015.00000000 8619416.00000000 21329994.00000000 2857.50878906   330266.18750000 262316.96875000 
0.16800    13021547.00000000 8499866.00000000 21028878.00000000 2785.61450195   321641.09375000 255377.95312500 
0.16900    12833742.00000000 8381114.00000000 20730148.00000000 2716.10620117   313186.78125000 248575.29687500 
0.17000    12647266.00000000 8263064.00000000 20433346.00000000 2648.96020508   304899.87500000 241902.26562500 
