# SAXS profile: number of points = 501, q_min = 0, q_max = 0.5, delta_q = 0.001
#    q    intensity 
0.00000    162237472.00000000 101201576.00000000 256271408.00000000 108494.14843750 8390960.00000000 6627168.50000000 
0.00100    162202928.00000000 101179824.00000000 256216192.00000000 108463.94531250 8388829.00000000 6625513.00000000 
0.00200    162099152.00000000 101114904.00000000 256050784.00000000 108373.36718750 8382518.50000000 6620508.00000000 
0.00300    161924240.00000000 101005952.00000000 255772960.00000000 108221.96093750 8372037.00000000 6612270.50000000 
0.00400    161677216.00000000 100853552.00000000 255386656.00000000 108010.50000000 8357365.00000000 6600739.00000000 
0.00500    161360256.00000000 100658568.00000000 254889232.00000000 107739.35156250 8338515.00000000 6585927.00000000 
0.00600    160973936.00000000 100420408.00000000 254282624.00000000 107409.38281250 8315570.50000000 6567885.50000000 
0.00700    160519040.00000000 100139576.00000000 253567808.00000000 107020.19531250 8288514.00000000 6546640.00000000 
0.00800    159994032.00000000 99817512.00000000 252746000.00000000 106573.51562500 8257482.00000000 6522169.50000000 
0.00900    159404000.00000000 99453464.00000000 251820336.00000000 106068.63281250 8222385.50000000 6494594.50000000 
0.01000    158747072.00000000 99048280.00000000 250787728.00000000 105508.01562500 8183364.50000000 6463911.50000000 
0.01100    158025408.00000000 98603448.00000000 249655472.00000000 104891.92968750 8140483.50000000 6430161.00000000 
0.01200    157239536.00000000 98118416.00000000 248418784.00000000 104221.57812500 8093792.00000000 6393479.00000000 
0.01300    156389360.00000000 97593328.00000000 247082912.00000000 103498.23437500 8043399.00000000 6353794.00000000 
0.01400    155476736.00000000 97030760.00000000 245649472.00000000 102722.32812500 7989313.00000000 6311323.50000000 
0.01500    154503888.00000000 96429888.00000000 244122608.00000000 101896.60937500 7931723.50000000 6265972.50000000 
0.01600    153470480.00000000 95792888.00000000 242498800.00000000 101021.28125000 7870568.50000000 6217928.50000000 
0.01700    152380464.00000000 95120576.00000000 240786912.00000000 100098.03906250 7806106.00000000 6167196.00000000 
0.01800    151234896.00000000 94412696.00000000 238984416.00000000 99129.15625000  7738320.00000000 6113854.50000000 
0.01900    150031968.00000000 93671680.00000000 237096688.00000000 98115.11718750  7667413.50000000 6058077.00000000 
0.02000    148778000.00000000 92896408.00000000 235125072.00000000 97058.65625000  7593408.00000000 5999864.50000000 
0.02100    147472048.00000000 92090496.00000000 233073824.00000000 95960.72656250  7516493.00000000 5939352.50000000 
0.02200    146116592.00000000 91253776.00000000 230942976.00000000 94823.95312500  7436686.00000000 5876607.00000000 
0.02300    144713344.00000000 90387824.00000000 228737728.00000000 93649.28125000  7354193.50000000 5811701.00000000 
0.02400    143266080.00000000 89492864.00000000 226462192.00000000 92439.50781250  7269149.00000000 5744758.00000000 
0.02500    141772832.00000000 88571624.00000000 224116400.00000000 91196.09375000  7181645.00000000 5675884.00000000 
0.02600    140238928.00000000 87624400.00000000 221704288.00000000 89920.50781250  7091751.50000000 5605196.50000000 
0.02700    138665328.00000000 86652176.00000000 219232096.00000000 88615.97656250  6999714.00000000 5532715.00000000 
0.02800    137054176.00000000 85656760.00000000 216698528.00000000 87283.67968750  6905570.50000000 5458629.50000000 
0.02900    135408256.00000000 84639496.00000000 214110544.00000000 85925.25000000  6809525.50000000 5383061.00000000 
0.03000    133727952.00000000 83601112.00000000 211468944.00000000 84543.75000000  6711699.00000000 5306020.00000000 
0.03100    132017624.00000000 82543384.00000000 208779472.00000000 83141.27343750  6612176.50000000 5227730.50000000 
0.03200    130278136.00000000 81468112.00000000 206044160.00000000 81719.25000000  6511210.50000000 5148221.00000000 
0.03300    128511992.00000000 80375944.00000000 203266000.00000000 80280.46093750  6408847.50000000 5067618.50000000 
0.03400    126721456.00000000 79269248.00000000 200449824.00000000 78826.25781250  6305209.00000000 4986027.50000000 
0.03500    124908768.00000000 78148128.00000000 197599408.00000000 77359.07031250  6200534.50000000 4903601.00000000 
0.03600    123076376.00000000 77014424.00000000 194716544.00000000 75880.70312500  6094880.00000000 4820410.00000000 
0.03700    121226128.00000000 75869000.00000000 191805168.00000000 74394.25000000  5988371.50000000 4736569.50000000 
0.03800    119361136.00000000 74714632.00000000 188869328.00000000 72900.65625000  5881236.50000000 4652154.50000000 
0.03900    117481704.00000000 73551312.00000000 185912528.00000000 71402.15625000  5773534.00000000 4567335.50000000 
0.04000    115591616.00000000 72381544.00000000 182938528.00000000 69901.06250000  5665453.50000000 4482187.00000000 
0.04100    113693136.00000000 71206072.00000000 179951632.00000000 68399.72656250  5557042.00000000 4396796.50000000 
0.04200    111787024.00000000 70026200.00000000 176951008.00000000 66898.96875000  5448542.50000000 4311324.50000000 
0.04300    109876704.00000000 68842928.00000000 173943360.00000000 65401.25390625  5340031.50000000 4225789.00000000 
0.04400    107964064.00000000 67656832.00000000 170931504.00000000 63908.39843750  5231574.50000000 4140337.00000000 
0.04500    106050584.00000000 66471028.00000000 167917776.00000000 62422.11718750  5123414.00000000 4055080.00000000 
0.04600    104138976.00000000 65285828.00000000 164908240.00000000 60944.10937500  5015545.50000000 3970081.75000000 
0.04700    102230176.00000000 64102192.00000000 161903120.00000000 59475.96484375  4908219.00000000 3885439.50000000 
0.04800    100327096.00000000 62921924.00000000 158905072.00000000 58019.54687500  4801417.00000000 3801279.25000000 
0.04900    98431744.00000000 61745656.00000000 155918160.00000000 56576.52343750  4695340.50000000 3717625.00000000 
0.05000    96544672.00000000 60574596.00000000 152946544.00000000 55147.88281250  4590051.50000000 3634607.50000000 
0.05100    94668928.00000000 59410096.00000000 149989744.00000000 53735.38281250  4485678.50000000 3552290.75000000 
0.05200    92805560.00000000 58253308.00000000 147053280.00000000 52340.07031250  4382289.00000000 3470737.50000000 
0.05300    90956568.00000000 57105008.00000000 144139152.00000000 50963.89843750  4280037.50000000 3390066.00000000 
0.05400    89123480.00000000 55965732.00000000 141247568.00000000 49607.08593750  4178898.00000000 3310285.25000000 
0.05500    87306992.00000000 54837436.00000000 138384944.00000000 48271.62109375  4079074.25000000 3231538.50000000 
0.05600    85509584.00000000 53720100.00000000 135549600.00000000 46958.42187500  3980579.25000000 3153803.00000000 
0.05700    83732496.00000000 52614688.00000000 132746952.00000000 45667.93359375  3883532.25000000 3077198.25000000 
0.05800    81976632.00000000 51522564.00000000 129978040.00000000 44401.60546875  3787954.50000000 3001753.75000000 
0.05900    80242912.00000000 50444468.00000000 127243352.00000000 43160.38281250  3693937.25000000 2927542.50000000 
0.06000    78533104.00000000 49380692.00000000 124546312.00000000 41944.48437500  3601559.75000000 2854604.25000000 
0.06100    76848624.00000000 48331920.00000000 121888184.00000000 40754.52734375  3510848.00000000 2782965.75000000 
0.06200    75190144.00000000 47299348.00000000 119270328.00000000 39592.11718750  3421881.25000000 2712691.00000000 
0.06300    73558360.00000000 46283144.00000000 116694944.00000000 38456.65234375  3334658.00000000 2643797.75000000 
0.06400    71954256.00000000 45283744.00000000 114162264.00000000 37349.10937500  3249280.25000000 2576332.25000000 
0.06500    70378896.00000000 44301792.00000000 111675408.00000000 36270.24218750  3165734.00000000 2510346.50000000 
0.06600    68833456.00000000 43338140.00000000 109234104.00000000 35219.74218750  3084086.50000000 2445800.00000000 
0.06700    67317616.00000000 42392568.00000000 106839560.00000000 34197.83984375  3004324.50000000 2382776.00000000 
0.06800    65831460.00000000 41465876.00000000 104493240.00000000 33205.08203125  2926544.25000000 2321278.00000000 
0.06900    64377508.00000000 40558596.00000000 102195512.00000000 32241.23437500  2850695.50000000 2261288.75000000 
0.07000    62954964.00000000 39670420.00000000 99947088.00000000 31306.53125000  2776814.75000000 2202871.25000000 
0.07100    61564340.00000000 38802092.00000000 97749560.00000000 30400.73828125  2704896.00000000 2146003.00000000 
0.07200    60205656.00000000 37953340.00000000 95601240.00000000 29524.22070312  2634972.50000000 2090677.87500000 
0.07300    58879700.00000000 37124900.00000000 93504904.00000000 28676.19335938  2567034.50000000 2036911.75000000 
0.07400    57586192.00000000 36316364.00000000 91459872.00000000 27857.00781250  2501050.75000000 1984706.00000000 
0.07500    56325384.00000000 35528392.00000000 89465968.00000000 27065.87500000  2437031.00000000 1934038.50000000 
0.07600    55097292.00000000 34760264.00000000 87523256.00000000 26302.79492188  2375002.00000000 1884912.75000000 
0.07700    53902000.00000000 34012504.00000000 85632200.00000000 25567.30664062  2314882.50000000 1837318.12500000 
0.07800    52739288.00000000 33285196.00000000 83793224.00000000 24859.02539062  2256698.50000000 1791242.00000000 
0.07900    51608872.00000000 32577630.00000000 82004360.00000000 24177.34960938  2200393.00000000 1746659.37500000 
0.08000    50511192.00000000 31890134.00000000 80266776.00000000 23521.83007812  2145996.25000000 1703557.12500000 
0.08100    49445252.00000000 31222526.00000000 78580072.00000000 22892.07226562  2093427.50000000 1661906.75000000 
0.08200    48411036.00000000 30574520.00000000 76942096.00000000 22287.11523438  2042662.50000000 1621685.50000000 
0.08300    47408368.00000000 29946304.00000000 75354976.00000000 21706.69140625  1993693.25000000 1582860.87500000 
0.08400    46436360.00000000 29337202.00000000 73815552.00000000 21149.98437500  1946462.00000000 1545429.75000000 
0.08500    45494836.00000000 28747320.00000000 72324984.00000000 20616.15820312  1900939.50000000 1509339.75000000 
0.08600    44583744.00000000 28175850.00000000 70881904.00000000 20104.91796875  1857088.00000000 1474559.12500000 
0.08700    43701828.00000000 27622840.00000000 69485096.00000000 19615.08007812  1814842.87500000 1441058.00000000 
0.08800    42848952.00000000 27088058.00000000 68133976.00000000 19146.06250000  1774188.87500000 1408801.62500000 
0.08900    42024392.00000000 26570828.00000000 66828256.00000000 18697.34179688  1735058.25000000 1377751.00000000 
0.09000    41227672.00000000 26070904.00000000 65565284.00000000 18267.75195312  1697404.12500000 1347881.75000000 
0.09100    40457660.00000000 25587916.00000000 64345872.00000000 17856.76367188  1661191.37500000 1319150.87500000 
0.09200    39714132.00000000 25121388.00000000 63167636.00000000 17463.49218750  1626372.12500000 1291507.37500000 
0.09300    38996100.00000000 24671038.00000000 62030480.00000000 17087.05468750  1592881.00000000 1264928.25000000 
0.09400    38303012.00000000 24236150.00000000 60932336.00000000 16726.80468750  1560663.87500000 1239349.62500000 
0.09500    37634264.00000000 23816604.00000000 59872692.00000000 16381.87207031  1529675.75000000 1214758.62500000 
0.09600    36988892.00000000 23411586.00000000 58850108.00000000 16051.70117188  1499876.00000000 1191102.00000000 
0.09700    36366144.00000000 23020964.00000000 57863520.00000000 15735.10449219  1471204.25000000 1168326.25000000 
0.09800    35765024.00000000 22644100.00000000 56911356.00000000 15431.46191406  1443607.62500000 1146418.50000000 
0.09900    35184932.00000000 22280478.00000000 55992188.00000000 15140.12011719  1417035.75000000 1125305.62500000 
0.10000    34625232.00000000 21929396.00000000 55105536.00000000 14860.14160156  1391440.62500000 1104981.25000000 
0.10100    34084688.00000000 21590694.00000000 54249960.00000000 14590.85156250  1366758.87500000 1085375.87500000 
0.10200    33562656.00000000 21263888.00000000 53423208.00000000 14331.55761719  1342937.87500000 1066469.25000000 
0.10300    33058604.00000000 20948076.00000000 52625592.00000000 14081.59472656  1319947.87500000 1048203.93750000 
0.10400    32571060.00000000 20643346.00000000 51854440.00000000 13840.13085938  1297716.75000000 1030558.12500000 
0.10500    32100350.00000000 20348724.00000000 51109452.00000000 13606.80957031  1276224.25000000 1013487.81250000 
0.10600    31644642.00000000 20063824.00000000 50388744.00000000 13380.66406250  1255388.87500000 996953.93750000 
0.10700    31203864.00000000 19788340.00000000 49691324.00000000 13161.04101562  1235200.25000000 980927.81250000 
0.10800    30776492.00000000 19521560.00000000 49015808.00000000 12947.58203125  1215596.37500000 965360.62500000 
0.10900    30362488.00000000 19263216.00000000 48361536.00000000 12739.64160156  1196534.00000000 950225.75000000 
0.11000    29960630.00000000 19012566.00000000 47726536.00000000 12536.70410156  1177965.62500000 935493.81250000 
0.11100    29570274.00000000 18769418.00000000 47110448.00000000 12338.19726562  1159874.87500000 921136.62500000 
0.11200    29190898.00000000 18533296.00000000 46511756.00000000 12143.62988281  1142189.37500000 907106.68750000 
0.11300    28821820.00000000 18303740.00000000 45929092.00000000 11952.56640625  1124887.37500000 893390.68750000 
0.11400    28462162.00000000 18080156.00000000 45361504.00000000 11764.67480469  1107957.37500000 879953.93750000 
0.11500    28111174.00000000 17862328.00000000 44808692.00000000 11579.49511719  1091334.37500000 866772.12500000 
0.11600    27768532.00000000 17649762.00000000 44268652.00000000 11396.57910156  1074992.87500000 853813.81250000 
0.11700    27433542.00000000 17442086.00000000 43741112.00000000 11215.69042969  1058922.37500000 841071.43750000 
0.11800    27105392.00000000 17238908.00000000 43224504.00000000 11036.39648438  1043061.31250000 828501.62500000 
0.11900    26784066.00000000 17040004.00000000 42718372.00000000 10858.50878906  1027408.93750000 816097.12500000 
0.12000    26468256.00000000 16844790.00000000 42221580.00000000 10681.77148438  1011931.87500000 803833.43750000 
0.12100    26158036.00000000 16653270.00000000 41733916.00000000 10506.00683594  996616.18750000 791694.12500000 
0.12200    25852642.00000000 16464731.00000000 41253812.00000000 10330.89062500  981427.68750000 779664.62500000 
0.12300    25551856.00000000 16279099.00000000 40780708.00000000 10156.34863281  966360.43750000 767728.00000000 
0.12400    25254810.00000000 16096034.00000000 40314484.00000000 9982.13769531   951384.31250000 755866.25000000 
0.12500    24961506.00000000 15915445.00000000 39853532.00000000 9808.28417969   936494.56250000 744069.37500000 
0.12600    24671458.00000000 15736885.00000000 39398452.00000000 9634.59570312   921674.50000000 732337.18750000 
0.12700    24384362.00000000 15560112.00000000 38947260.00000000 9460.94921875   906910.62500000 720635.06250000 
0.12800    24099634.00000000 15385003.00000000 38500840.00000000 9287.37988281   892192.81250000 708982.06250000 
0.12900    23817168.00000000 15211319.00000000 38057816.00000000 9113.80566406   877510.06250000 697352.31250000 
0.13000    23536780.00000000 15038820.00000000 37617404.00000000 8940.27050781   862864.87500000 685745.81250000 
0.13100    23257894.00000000 14867467.00000000 37180156.00000000 8766.74804688   848232.43750000 674161.25000000 
0.13200    22980408.00000000 14696938.00000000 36744748.00000000 8593.24218750   833627.62500000 662589.62500000 
0.13300    22704316.00000000 14527285.00000000 36311484.00000000 8419.85058594   819037.75000000 651030.43750000 
0.13400    22429230.00000000 14358252.00000000 35880060.00000000 8246.49511719   804465.06250000 639484.43750000 
0.13500    22154868.00000000 14189591.00000000 35449836.00000000 8073.43945312   789904.68750000 627943.12500000 
0.13600    21881424.00000000 14021545.00000000 35020856.00000000 7900.63037109   775361.12500000 616411.81250000 
0.13700    21608564.00000000 13853693.00000000 34592600.00000000 7728.17822266   760832.06250000 604900.25000000 
0.13800    21336256.00000000 13686146.00000000 34164892.00000000 7556.23876953   746323.37500000 593395.31250000 
0.13900    21064362.00000000 13518800.00000000 33738212.00000000 7384.90527344   731837.81250000 581904.43750000 
0.14000    20792858.00000000 13351553.00000000 33311720.00000000 7214.27539062   717383.68750000 570439.62500000 
0.14100    20521718.00000000 13184497.00000000 32885728.00000000 7044.48583984   702964.25000000 558999.81250000 
0.14200    20250848.00000000 13017500.00000000 32460220.00000000 6875.76171875   688575.56250000 547579.25000000 
0.14300    19980302.00000000 12850625.00000000 32035030.00000000 6708.07373047   674242.37500000 536196.87500000 
0.14400    19710044.00000000 12683604.00000000 31610002.00000000 6541.67675781   659956.18750000 524850.18750000 
0.14500    19440088.00000000 12516911.00000000 31185492.00000000 6376.65673828   645729.43750000 513552.50000000 
0.14600    19170558.00000000 12350133.00000000 30761388.00000000 6213.16210938   631575.75000000 502303.68750000 
0.14700    18901364.00000000 12183515.00000000 30337614.00000000 6051.41357422   617503.00000000 491116.90625000 
0.14800    18632648.00000000 12017034.00000000 29914342.00000000 5891.46386719   603510.50000000 479992.31250000 
0.14900    18364458.00000000 11850609.00000000 29491614.00000000 5733.50244141   589613.50000000 468938.37500000 
0.15000    18096842.00000000 11684431.00000000 29069480.00000000 5577.67285156   575820.75000000 457963.75000000 
0.15100    17829912.00000000 11518444.00000000 28648494.00000000 5424.06054688   562145.81250000 447078.25000000 
0.15200    17563648.00000000 11352803.00000000 28228374.00000000 5272.81054688   548589.75000000 436285.28125000 
0.15300    17298378.00000000 11187563.00000000 27809444.00000000 5124.09814453   535168.75000000 425592.87500000 
0.15400    17033906.00000000 11022589.00000000 27391628.00000000 4977.94921875   521881.65625000 415010.93750000 
0.15500    16770699.00000000 10858157.00000000 26975404.00000000 4834.54003906   508749.21875000 404539.46875000 
0.15600    16508458.00000000 10694203.00000000 26560732.00000000 4693.98388672   495775.06250000 394194.90625000 
0.15700    16247746.00000000 10530907.00000000 26147738.00000000 4556.36230469   482972.65625000 383979.34375000 
0.15800    15988132.00000000 10368252.00000000 25736702.00000000 4421.76855469   470338.28125000 373895.62500000 
0.15900    15730245.00000000 10206318.00000000 25327828.00000000 4290.28320312   457891.34375000 363961.00000000 
0.16000    15473891.00000000 10045197.00000000 24921176.00000000 4161.92382812   445630.25000000 354165.84375000 
0.16100    15219338.00000000 9884945.00000000 24517176.00000000 4036.86523438   433574.62500000 344533.68750000 
0.16200    14966552.00000000 9725735.00000000 24115814.00000000 3915.08544922   421718.12500000 335055.46875000 
0.16300    14715837.00000000 9567443.00000000 23717364.00000000 3796.65258789   410072.50000000 325742.68750000 
0.16400    14467241.00000000 9410234.00000000 23322044.00000000 3681.57836914   398647.28125000 316602.06250000 
0.16500    14220695.00000000 9254334.00000000 22929714.00000000 3569.94531250   387439.25000000 307633.25000000 
0.16600    13976581.00000000 9099562.00000000 22540944.00000000 3461.75585938   376464.65625000 298840.06250000 
0.16700    13734729.00000000 8946180.00000000 22155714.00000000 3356.98413086   365713.40625000 290229.56250000 
0.16800    13495377.00000000 8794020.00000000 21774030.00000000 3255.65942383   355195.78125000 281801.37500000 
0.16900    13258805.00000000 8643474.00000000 21396528.00000000 3157.80541992   344919.34375000 273564.00000000 
0.17000    13024785.00000000 8494336.00000000 21022698.00000000 3063.33764648   334884.43750000 265514.03125000 
