# SAXS profile: number of points = 501, q_min = 0, q_max = 0.5, delta_q = 0.001
#    q    intensity 
0.00000    162235088.00000000 101201488.00000000 256270912.00000000 95308.66406250  7864561.00000000 6211426.50000000 
0.00100    162199648.00000000 101178000.00000000 256211616.00000000 95282.17187500  7862538.50000000 6209837.50000000 
0.00200    162089888.00000000 101107944.00000000 256034208.00000000 95204.35156250  7856572.50000000 6205162.50000000 
0.00300    161902784.00000000 100991864.00000000 255738352.00000000 95074.39843750  7846629.50000000 6197305.50000000 
0.00400    161640144.00000000 100829032.00000000 255323632.00000000 94893.13281250  7832764.50000000 6186353.50000000 
0.00500    161301888.00000000 100619640.00000000 254792720.00000000 94660.06250000  7814915.50000000 6172343.00000000 
0.00600    160887680.00000000 100363680.00000000 254142880.00000000 94375.92968750  7793202.00000000 6155224.00000000 
0.00700    160405232.00000000 100063456.00000000 253380128.00000000 94041.69531250  7767668.50000000 6135135.00000000 
0.00800    159841744.00000000 99718696.00000000 252503072.00000000 93657.73437500  7738264.50000000 6111979.50000000 
0.00900    159212560.00000000 99329792.00000000 251513520.00000000 93225.38281250  7705152.50000000 6085920.00000000 
0.01000    158513760.00000000 98897488.00000000 250413056.00000000 92744.22656250  7668302.50000000 6056944.00000000 
0.01100    157747328.00000000 98421456.00000000 249203296.00000000 92216.40625000  7627852.50000000 6025060.50000000 
0.01200    156911680.00000000 97903624.00000000 247886144.00000000 91641.91406250  7583852.50000000 5990433.50000000 
0.01300    156008112.00000000 97344064.00000000 246465424.00000000 91022.86718750  7536360.50000000 5953057.00000000 
0.01400    155038992.00000000 96744048.00000000 244942736.00000000 90359.71093750  7485447.00000000 5912987.00000000 
0.01500    154006752.00000000 96105344.00000000 243318144.00000000 89654.10937500  7431270.00000000 5870330.00000000 
0.01600    152914544.00000000 95427784.00000000 241597488.00000000 88906.75000000  7373899.00000000 5825137.00000000 
0.01700    151761856.00000000 94715056.00000000 239783568.00000000 88119.78125000  7313404.00000000 5777510.50000000 
0.01800    150549680.00000000 93963992.00000000 237875968.00000000 87294.02343750  7249863.00000000 5727475.50000000 
0.01900    149282144.00000000 93179048.00000000 235881488.00000000 86431.14062500  7183486.50000000 5675224.50000000 
0.02000    147961616.00000000 92360296.00000000 233801648.00000000 85532.50781250  7114258.00000000 5620725.50000000 
0.02100    146587808.00000000 91509896.00000000 231638576.00000000 84600.52343750  7042423.50000000 5564126.00000000 
0.02200    145165040.00000000 90628120.00000000 229398976.00000000 83636.50000000  6968038.00000000 5505535.00000000 
0.02300    143693760.00000000 89717000.00000000 227083392.00000000 82641.71875000  6891198.00000000 5445033.50000000 
0.02400    142177504.00000000 88777400.00000000 224695952.00000000 81617.57812500  6812120.00000000 5382716.50000000 
0.02500    140619376.00000000 87811160.00000000 222241968.00000000 80567.35937500  6730808.00000000 5318686.50000000 
0.02600    139020176.00000000 86820048.00000000 219724384.00000000 79491.22656250  6647531.50000000 5253085.00000000 
0.02700    137382704.00000000 85804696.00000000 217145344.00000000 78392.44531250  6562292.00000000 5185971.50000000 
0.02800    135709056.00000000 84767056.00000000 214510384.00000000 77271.17968750  6475332.50000000 5117452.50000000 
0.02900    134003344.00000000 83709256.00000000 211823856.00000000 76130.54687500  6386751.00000000 5047664.50000000 
0.03000    132266352.00000000 82631744.00000000 209087264.00000000 74972.04687500  6296626.50000000 4976687.00000000 
0.03100    130501624.00000000 81538056.00000000 206307632.00000000 73796.90625000  6205241.50000000 4904614.00000000 
0.03200    128711024.00000000 80426440.00000000 203486864.00000000 72608.21093750  6112545.00000000 4831605.50000000 
0.03300    126897288.00000000 79301376.00000000 200628928.00000000 71406.25781250  6018798.50000000 4757724.50000000 
0.03400    125062816.00000000 78162712.00000000 197740112.00000000 70194.67187500  5924111.00000000 4683162.50000000 
0.03500    123211648.00000000 77013496.00000000 194821712.00000000 68973.71875000  5828600.00000000 4607827.50000000 
0.03600    121342592.00000000 75854528.00000000 191878048.00000000 67746.03906250  5732445.50000000 4532058.50000000 
0.03700    119462504.00000000 74687704.00000000 188916336.00000000 66512.82812500  5635702.50000000 4455824.00000000 
0.03800    117571224.00000000 73513232.00000000 185934528.00000000 65276.05859375  5538618.50000000 4379296.50000000 
0.03900    115671440.00000000 72333968.00000000 182940592.00000000 64037.64062500  5441182.50000000 4302464.50000000 
0.04000    113766168.00000000 71149944.00000000 179936960.00000000 62798.33203125  5343588.00000000 4225543.00000000 
0.04100    111857080.00000000 69964064.00000000 176927568.00000000 61560.43750000  5245976.00000000 4148543.50000000 
0.04200    109947344.00000000 68777312.00000000 173917040.00000000 60325.50000000  5148433.00000000 4071643.50000000 
0.04300    108037976.00000000 67590904.00000000 170907120.00000000 59094.84765625  5051090.50000000 3994852.75000000 
0.04400    106132696.00000000 66406364.00000000 167902496.00000000 57870.00390625  4954027.00000000 3918327.75000000 
0.04500    104231896.00000000 65225052.00000000 164905360.00000000 56652.49609375  4857429.50000000 3842129.50000000 
0.04600    102339200.00000000 64048224.00000000 161919632.00000000 55442.96484375  4761340.50000000 3766335.50000000 
0.04700    100455864.00000000 62877096.00000000 158950640.00000000 54243.64453125  4665878.50000000 3691028.00000000 
0.04800    98584312.00000000 61712616.00000000 155997760.00000000 53054.87500000  4571143.50000000 3616271.75000000 
0.04900    96725360.00000000 60556328.00000000 153065504.00000000 51878.38281250  4477195.50000000 3542171.75000000 
0.05000    94882120.00000000 59409592.00000000 150155472.00000000 50714.96875000  4384195.50000000 3468777.75000000 
0.05100    93054712.00000000 58272488.00000000 147272400.00000000 49565.88671875  4292171.00000000 3396143.50000000 
0.05200    91245960.00000000 57146572.00000000 144419648.00000000 48432.11718750  4201195.50000000 3324361.25000000 
0.05300    89457256.00000000 56033224.00000000 141597088.00000000 47314.01953125  4111357.25000000 3253478.25000000 
0.05400    87689968.00000000 54932796.00000000 138807792.00000000 46212.92187500  4022751.75000000 3183523.00000000 
0.05500    85944728.00000000 53846188.00000000 136054464.00000000 45129.21484375  3935413.75000000 3114575.50000000 
0.05600    84224064.00000000 52773948.00000000 133339688.00000000 44064.18750000  3849402.75000000 3046692.25000000 
0.05700    82528720.00000000 51718080.00000000 130662384.00000000 43017.50390625  3764795.75000000 2979884.25000000 
0.05800    80859088.00000000 50678252.00000000 128026728.00000000 41990.32421875  3681606.50000000 2914191.50000000 
0.05900    79217320.00000000 49654984.00000000 125433984.00000000 40983.07421875  3599890.25000000 2849679.75000000 
0.06000    77603408.00000000 48649248.00000000 122886800.00000000 39995.96875000  3519713.50000000 2786369.50000000 
0.06100    76019504.00000000 47661320.00000000 120384912.00000000 39029.61328125  3441086.25000000 2724265.50000000 
0.06200    74464200.00000000 46692176.00000000 117929792.00000000 38083.84765625  3364040.50000000 2663427.00000000 
0.06300    72939592.00000000 45741788.00000000 115521800.00000000 37159.16796875  3288627.50000000 2603850.75000000 
0.06400    71446984.00000000 44810644.00000000 113163352.00000000 36256.36328125  3214823.75000000 2545554.25000000 
0.06500    69985584.00000000 43899148.00000000 110855088.00000000 35374.03906250  3142662.00000000 2488554.75000000 
0.06600    68555272.00000000 43007396.00000000 108596808.00000000 34513.94140625  3072197.50000000 2432864.00000000 
0.06700    67158336.00000000 42135768.00000000 106389432.00000000 33674.59375000  3003339.25000000 2378484.25000000 
0.06800    65793236.00000000 41284112.00000000 104233944.00000000 32856.77343750  2936167.25000000 2325434.50000000 
0.06900    64461580.00000000 40453024.00000000 102129104.00000000 32060.03515625  2870692.00000000 2273670.00000000 
0.07000    63162080.00000000 39642360.00000000 100076328.00000000 31284.50976562  2806875.75000000 2223242.25000000 
0.07100    61895520.00000000 38852264.00000000 98075848.00000000 30529.65429688  2744681.50000000 2174107.75000000 
0.07200    60661356.00000000 38082176.00000000 96126656.00000000 29795.50390625  2684151.25000000 2126275.00000000 
0.07300    59460324.00000000 37332544.00000000 94228488.00000000 29081.73242188  2625227.50000000 2079716.25000000 
0.07400    58291728.00000000 36603532.00000000 92382088.00000000 28387.78710938  2567928.00000000 2034452.62500000 
0.07500    57155060.00000000 35894124.00000000 90586200.00000000 27713.54882812  2512204.00000000 1990415.37500000 
0.07600    56050320.00000000 35204880.00000000 88841712.00000000 27058.53125000  2458047.75000000 1947623.25000000 
0.07700    54977376.00000000 34535272.00000000 87146160.00000000 26422.26953125  2405438.25000000 1906050.75000000 
0.07800    53935500.00000000 33885340.00000000 85500000.00000000 25804.81835938  2354351.75000000 1865672.50000000 
0.07900    52923924.00000000 33254510.00000000 83901912.00000000 25205.02539062  2304708.00000000 1826450.87500000 
0.08000    51942356.00000000 32642460.00000000 82351856.00000000 24622.73046875  2256520.00000000 1788375.12500000 
0.08100    50990760.00000000 32048786.00000000 80848712.00000000 24057.34375000  2209734.50000000 1751419.87500000 
0.08200    50067240.00000000 31473292.00000000 79390728.00000000 23508.80664062  2164334.75000000 1715542.00000000 
0.08300    49173192.00000000 30915484.00000000 77978088.00000000 22975.99804688  2120258.25000000 1680709.00000000 
0.08400    48305680.00000000 30374982.00000000 76609256.00000000 22458.58984375  2077484.87500000 1646919.12500000 
0.08500    47465664.00000000 29851796.00000000 75282504.00000000 21956.34960938  2035956.62500000 1614112.50000000 
0.08600    46651804.00000000 29344554.00000000 73997104.00000000 21468.44726562  1995650.12500000 1582268.87500000 
0.08700    45863156.00000000 28853674.00000000 72752600.00000000 20994.48632812  1956507.75000000 1551348.25000000 
0.08800    45099124.00000000 28377862.00000000 71546704.00000000 20533.81835938  1918503.12500000 1521330.12500000 
0.08900    44358972.00000000 27917354.00000000 70379056.00000000 20085.79296875  1881582.37500000 1492160.12500000 
0.09000    43641256.00000000 27471286.00000000 69247672.00000000 19650.26367188  1845700.25000000 1463835.25000000 
0.09100    42946204.00000000 27039128.00000000 68151752.00000000 19226.66210938  1810835.87500000 1436296.75000000 
0.09200    42272260.00000000 26620534.00000000 67089036.00000000 18814.00390625  1776921.37500000 1409521.87500000 
0.09300    41619044.00000000 26214822.00000000 66059624.00000000 18412.35937500  1743929.00000000 1383469.87500000 
0.09400    40985244.00000000 25821658.00000000 65061604.00000000 18020.97656250  1711805.37500000 1358110.50000000 
0.09500    40370152.00000000 25440436.00000000 64092744.00000000 17639.34960938  1680523.37500000 1333401.87500000 
0.09600    39773712.00000000 25070532.00000000 63152268.00000000 17267.16406250  1650041.12500000 1309349.62500000 
0.09700    39194420.00000000 24711456.00000000 62240412.00000000 16904.09179688  1620316.12500000 1285885.37500000 
0.09800    38630940.00000000 24362656.00000000 61353800.00000000 16549.40820312  1591313.50000000 1262988.75000000 
0.09900    38083544.00000000 24023936.00000000 60492640.00000000 16202.97265625  1562998.50000000 1240641.37500000 
0.10000    37550748.00000000 23694314.00000000 59654156.00000000 15864.05859375  1535312.62500000 1218802.62500000 
0.10100    37031756.00000000 23373910.00000000 58837984.00000000 15532.52734375  1508256.87500000 1197443.87500000 
0.10200    36526076.00000000 23061648.00000000 58043756.00000000 15208.06933594  1481770.12500000 1176533.50000000 
0.10300    36033016.00000000 22757336.00000000 57268244.00000000 14890.29687500  1455834.75000000 1156077.87500000 
0.10400    35551768.00000000 22460374.00000000 56512420.00000000 14578.79589844  1430406.75000000 1135997.62500000 
0.10500    35081212.00000000 22170664.00000000 55773720.00000000 14273.37304688  1405485.87500000 1116337.37500000 
0.10600    34621432.00000000 21887378.00000000 55051508.00000000 13973.85058594  1380995.50000000 1097008.87500000 
0.10700    34171128.00000000 21610334.00000000 54345068.00000000 13679.86132812  1356954.87500000 1078032.50000000 
0.10800    33730152.00000000 21338930.00000000 53652708.00000000 13391.03710938  1333322.62500000 1059369.00000000 
0.10900    33297408.00000000 21072858.00000000 52974116.00000000 13107.46582031  1310068.00000000 1041013.93750000 
0.11000    32872848.00000000 20811832.00000000 52307892.00000000 12828.67382812  1287173.62500000 1022935.87500000 
0.11100    32455536.00000000 20555524.00000000 51653064.00000000 12554.68457031  1264608.37500000 1005132.25000000 
0.11200    32044800.00000000 20303438.00000000 51009648.00000000 12285.15527344  1242384.12500000 987570.25000000 
0.11300    31640814.00000000 20055162.00000000 50376068.00000000 12020.00390625  1220457.12500000 970245.81250000 
0.11400    31242224.00000000 19810692.00000000 49751544.00000000 11759.24023438  1198816.50000000 953152.87500000 
0.11500    30849436.00000000 19569734.00000000 49135648.00000000 11502.62500000  1177456.25000000 936275.68750000 
0.11600    30461440.00000000 19331686.00000000 48527624.00000000 11249.97167969  1156367.87500000 919591.75000000 
0.11700    30078214.00000000 19096480.00000000 47926984.00000000 11001.27636719  1135517.62500000 903113.00000000 
0.11800    29699152.00000000 18863862.00000000 47332900.00000000 10756.50683594  1114906.62500000 886802.62500000 
0.11900    29323850.00000000 18633632.00000000 46744652.00000000 10515.59570312  1094517.50000000 870678.37500000 
0.12000    28952232.00000000 18405602.00000000 46161892.00000000 10278.31738281  1074348.75000000 854721.75000000 
0.12100    28583992.00000000 18179630.00000000 45585296.00000000 10044.83398438  1054407.87500000 838932.75000000 
0.12200    28218868.00000000 17955430.00000000 45012480.00000000 9815.08593750   1034674.56250000 823300.56250000 
0.12300    27856604.00000000 17733016.00000000 44444456.00000000 9588.92382812   1015136.31250000 807829.37500000 
0.12400    27496948.00000000 17511878.00000000 43880516.00000000 9366.42089844   995799.56250000 792504.12500000 
0.12500    27139682.00000000 17292366.00000000 43319928.00000000 9147.55273438   976670.31250000 777336.43750000 
0.12600    26784774.00000000 17074124.00000000 42763004.00000000 8932.24609375   957728.50000000 762315.31250000 
0.12700    26432224.00000000 16857152.00000000 42209476.00000000 8720.57324219   938984.50000000 747438.18750000 
0.12800    26081410.00000000 16641262.00000000 41658912.00000000 8512.52929688   920428.81250000 732712.75000000 
0.12900    25732872.00000000 16426536.00000000 41111480.00000000 8308.11132812   902070.93750000 718130.06250000 
0.13000    25386096.00000000 16212671.00000000 40566236.00000000 8107.24414062   883900.68750000 703703.87500000 
0.13100    25041152.00000000 15999833.00000000 40023740.00000000 7910.00878906   865925.31250000 689420.00000000 
0.13200    24697908.00000000 15787837.00000000 39484240.00000000 7716.37402344   848159.06250000 675284.56250000 
0.13300    24356452.00000000 15576814.00000000 38947264.00000000 7526.45361328   830583.81250000 661304.18750000 
0.13400    24016592.00000000 15366729.00000000 38412648.00000000 7340.09960938   813208.87500000 647478.75000000 
0.13500    23678756.00000000 15157422.00000000 37880112.00000000 7157.41162109   796039.93750000 633805.68750000 
0.13600    23342476.00000000 14949150.00000000 37350464.00000000 6978.30419922   779073.43750000 620292.87500000 
0.13700    23007876.00000000 14741636.00000000 36823284.00000000 6802.75585938   762318.93750000 606940.50000000 
0.13800    22675184.00000000 14535024.00000000 36298824.00000000 6630.93408203   745775.87500000 593746.37500000 
0.13900    22344508.00000000 14329485.00000000 35777016.00000000 6462.71679688   729440.93750000 580725.25000000 
0.14000    22015610.00000000 14124876.00000000 35257844.00000000 6298.08544922   713328.12500000 567870.75000000 
0.14100    21688644.00000000 13921242.00000000 34741568.00000000 6137.04980469   697439.56250000 555182.12500000 
0.14200    21363628.00000000 13718645.00000000 34228012.00000000 5979.55908203   681774.62500000 542670.12500000 
0.14300    21040830.00000000 13517196.00000000 33717784.00000000 5825.67724609   666333.06250000 530335.62500000 
0.14400    20720002.00000000 13316768.00000000 33210502.00000000 5675.21191406   651118.06250000 518174.84375000 
0.14500    20401514.00000000 13117582.00000000 32706622.00000000 5528.29736328   636133.18750000 506196.87500000 
0.14600    20085522.00000000 12919725.00000000 32206038.00000000 5384.79638672   621390.00000000 494401.09375000 
0.14700    19771648.00000000 12723012.00000000 31709126.00000000 5244.71972656   606875.00000000 482793.12500000 
0.14800    19460364.00000000 12527698.00000000 31215800.00000000 5108.05224609   592595.37500000 471366.09375000 
0.14900    19151578.00000000 12333835.00000000 30726112.00000000 4974.65429688   578565.18750000 460125.21875000 
0.15000    18845444.00000000 12141343.00000000 30240504.00000000 4844.58642578   564764.31250000 449075.68750000 
0.15100    18542158.00000000 11950357.00000000 29758678.00000000 4717.71191406   551205.37500000 438211.96875000 
0.15200    18241570.00000000 11761042.00000000 29281278.00000000 4594.02246094   537890.87500000 427544.37500000 
0.15300    17943734.00000000 11573238.00000000 28808224.00000000 4473.38964844   524813.62500000 417066.46875000 
0.15400    17648942.00000000 11387075.00000000 28339450.00000000 4355.77294922   511981.34375000 406776.06250000 
0.15500    17357058.00000000 11202681.00000000 27875348.00000000 4241.18457031   499389.21875000 396677.03125000 
0.15600    17068164.00000000 11019974.00000000 27415824.00000000 4129.45654297   487033.03125000 386767.53125000 
0.15700    16782502.00000000 10839229.00000000 26961258.00000000 4020.60229492   474919.37500000 377055.50000000 
0.15800    16500201.00000000 10660138.00000000 26511150.00000000 3914.40893555   463038.78125000 367522.59375000 
0.15900    16220902.00000000 10483035.00000000 26066322.00000000 3810.96484375   451401.06250000 358185.09375000 
0.16000    15944902.00000000 10307718.00000000 25626392.00000000 3710.11596680   439990.53125000 349028.56250000 
0.16100    15672405.00000000 10134633.00000000 25191740.00000000 3611.81103516   428817.46875000 340064.96875000 
0.16200    15403182.00000000 9963376.00000000 24762090.00000000 3515.97338867   417871.75000000 331281.43750000 
0.16300    15137309.00000000 9794166.00000000 24337912.00000000 3422.47534180   407149.09375000 322678.68750000 
0.16400    14874853.00000000 9626941.00000000 23918888.00000000 3331.38232422   396656.87500000 314261.68750000 
0.16500    14615934.00000000 9461899.00000000 23505134.00000000 3242.47070312   386379.87500000 306014.46875000 
0.16600    14360474.00000000 9298869.00000000 23097042.00000000 3155.71875000   376322.84375000 297945.81250000 
0.16700    14108538.00000000 9137988.00000000 22694312.00000000 3071.06713867   366476.87500000 290051.31250000 
0.16800    13859975.00000000 8979222.00000000 22296902.00000000 2988.39282227   356845.50000000 282324.12500000 
0.16900    13615087.00000000 8822591.00000000 21905138.00000000 2907.76098633   347417.81250000 274768.06250000 
0.17000    13373612.00000000 8668141.00000000 21518918.00000000 2828.96337891   338194.93750000 267373.62500000 
