# SAXS profile: number of points = 501, q_min = 0, q_max = 0.5, delta_q = 0.001
#    q    intensity 
0.00000    162237056.00000000 101202088.00000000 256270816.00000000 105387.18750000 8269933.50000000 6531573.50000000 
0.00100    162199728.00000000 101177696.00000000 256211360.00000000 105357.01562500 8267764.00000000 6529831.50000000 
0.00200    162087728.00000000 101106648.00000000 256031328.00000000 105265.83593750 8261231.50000000 6524738.50000000 
0.00300    161897568.00000000 100988776.00000000 255730128.00000000 105113.58593750 8250350.50000000 6516145.00000000 
0.00400    161630752.00000000 100823552.00000000 255310368.00000000 104901.34375000 8235144.50000000 6504200.00000000 
0.00500    161288224.00000000 100611384.00000000 254771104.00000000 104628.76562500 8215631.00000000 6488872.00000000 
0.00600    160868784.00000000 100352048.00000000 254113232.00000000 104296.42187500 8191881.50000000 6470122.00000000 
0.00700    160376032.00000000 100047312.00000000 253337568.00000000 103905.09375000 8163847.00000000 6448091.00000000 
0.00800    159807936.00000000 99697144.00000000 252448240.00000000 103455.32812500 8131691.50000000 6422751.00000000 
0.00900    159166736.00000000 99302720.00000000 251443104.00000000 102949.25000000 8095407.00000000 6394181.50000000 
0.01000    158456224.00000000 98863136.00000000 250323584.00000000 102386.03906250 8055038.00000000 6362414.00000000 
0.01100    157676112.00000000 98380024.00000000 249096016.00000000 101767.28125000 8010689.00000000 6327487.50000000 
0.01200    156826608.00000000 97853480.00000000 247757408.00000000 101094.37500000 7962413.00000000 6289500.00000000 
0.01300    155908224.00000000 97285232.00000000 246311264.00000000 100368.46875000 7910331.00000000 6248490.50000000 
0.01400    154921632.00000000 96674968.00000000 244762368.00000000 99590.80468750  7854454.00000000 6204511.50000000 
0.01500    153870752.00000000 96024680.00000000 243108304.00000000 98762.55468750  7794974.50000000 6157675.00000000 
0.01600    152756576.00000000 95335032.00000000 241355488.00000000 97885.89062500  7731893.00000000 6108024.00000000 
0.01700    151581184.00000000 94607400.00000000 239505552.00000000 96961.46875000  7665382.00000000 6055673.00000000 
0.01800    150345552.00000000 93843200.00000000 237560960.00000000 95991.46093750  7595543.50000000 6000682.50000000 
0.01900    149049664.00000000 93042472.00000000 235524688.00000000 94977.71093750  7522468.00000000 5943171.50000000 
0.02000    147700640.00000000 92206248.00000000 233400016.00000000 93921.95312500  7446305.00000000 5883153.50000000 
0.02100    146297168.00000000 91337280.00000000 231190912.00000000 92825.64062500  7367152.00000000 5820833.00000000 
0.02200    144839568.00000000 90435744.00000000 228899664.00000000 91690.96093750  7285128.00000000 5756277.00000000 
0.02300    143333008.00000000 89503912.00000000 226527856.00000000 90519.76562500  7200431.00000000 5689546.00000000 
0.02400    141778768.00000000 88541976.00000000 224082976.00000000 89313.75781250  7113121.00000000 5620797.50000000 
0.02500    140180576.00000000 87551944.00000000 221566736.00000000 88076.19531250  7023325.50000000 5550112.00000000 
0.02600    138537920.00000000 86534896.00000000 218982432.00000000 86807.45312500  6931222.00000000 5477556.50000000 
0.02700    136854288.00000000 85493168.00000000 216333520.00000000 85510.62500000  6836998.50000000 5403344.00000000 
0.02800    135134208.00000000 84426856.00000000 213624672.00000000 84188.32031250  6740729.50000000 5327537.00000000 
0.02900    133376616.00000000 83338864.00000000 210859344.00000000 82840.67187500  6642567.00000000 5250260.00000000 
0.03000    131586832.00000000 82230520.00000000 208041696.00000000 81471.85937500  6542726.00000000 5171579.00000000 
0.03100    129765200.00000000 81102152.00000000 205175488.00000000 80083.42968750  6441270.50000000 5091662.00000000 
0.03200    127915312.00000000 79956400.00000000 202263904.00000000 78677.59375000  6338406.00000000 5010659.50000000 
0.03300    126040864.00000000 78794992.00000000 199312576.00000000 77256.03906250  6234236.50000000 4928598.00000000 
0.03400    124142280.00000000 77618840.00000000 196322704.00000000 75821.74218750  6128984.50000000 4845652.50000000 
0.03500    122223296.00000000 76430032.00000000 193301936.00000000 74375.58593750  6022698.50000000 4761938.00000000 
0.03600    120286136.00000000 75228768.00000000 190252176.00000000 72921.25000000  5915623.00000000 4677568.00000000 
0.03700    118333200.00000000 74018608.00000000 187176720.00000000 71460.07812500  5807827.00000000 4592650.00000000 
0.03800    116366544.00000000 72800080.00000000 184080448.00000000 69993.88281250  5699515.00000000 4507311.00000000 
0.03900    114389880.00000000 71574928.00000000 180968208.00000000 68525.38281250  5590807.00000000 4421634.00000000 
0.04000    112405192.00000000 70344584.00000000 177841920.00000000 67055.76562500  5481860.00000000 4335786.00000000 
0.04100    110414464.00000000 69111208.00000000 174707728.00000000 65587.73437500  5372732.50000000 4249804.00000000 
0.04200    108419840.00000000 67874432.00000000 171566144.00000000 64122.42968750  5263695.50000000 4163841.25000000 
0.04300    106424832.00000000 66636100.00000000 168423152.00000000 62662.35937500  5154756.50000000 4078000.25000000 
0.04400    104430672.00000000 65399460.00000000 165282352.00000000 61209.45703125  5046180.50000000 3992392.50000000 
0.04500    102440592.00000000 64164664.00000000 162146448.00000000 59764.90625000  4937987.50000000 3907118.00000000 
0.04600    100456408.00000000 62933308.00000000 159020592.00000000 58330.79296875  4830316.00000000 3822252.25000000 
0.04700    98479424.00000000 61706604.00000000 155905872.00000000 56908.60937500  4723352.00000000 3737888.75000000 
0.04800    96512048.00000000 60486048.00000000 152807200.00000000 55499.95312500  4617103.50000000 3654133.75000000 
0.04900    94557688.00000000 59272920.00000000 149728080.00000000 54106.16406250  4511774.50000000 3571073.75000000 
0.05000    92616800.00000000 58068444.00000000 146670640.00000000 52728.94921875  4407432.50000000 3488799.00000000 
0.05100    90692992.00000000 56873440.00000000 143637616.00000000 51369.72656250  4304211.50000000 3407390.75000000 
0.05200    88786072.00000000 55689588.00000000 140632336.00000000 50028.97265625  4202142.50000000 3326894.25000000 
0.05300    86898544.00000000 54517688.00000000 137655344.00000000 48709.08593750  4101408.75000000 3247446.50000000 
0.05400    85032856.00000000 53358712.00000000 134713920.00000000 47410.33984375  4002038.00000000 3169048.75000000 
0.05500    83189184.00000000 52213188.00000000 131810416.00000000 46134.30468750  3904120.50000000 3091818.25000000 
0.05600    81370376.00000000 51083320.00000000 128943176.00000000 44881.65625000  3807750.50000000 3015796.50000000 
0.05700    79577520.00000000 49969220.00000000 126116216.00000000 43652.91796875  3712972.25000000 2940996.25000000 
0.05800    77811048.00000000 48871560.00000000 123330664.00000000 42449.63281250  3619890.50000000 2867564.00000000 
0.05900    76072768.00000000 47791364.00000000 120590568.00000000 41271.83593750  3528531.25000000 2795458.25000000 
0.06000    74365144.00000000 46729336.00000000 117897184.00000000 40120.65234375  3438989.50000000 2724779.00000000 
0.06100    72687912.00000000 45686220.00000000 115251072.00000000 38996.87890625  3351264.50000000 2655547.75000000 
0.06200    71042240.00000000 44662500.00000000 112655592.00000000 37899.99218750  3265454.25000000 2587814.25000000 
0.06300    69428568.00000000 43659368.00000000 110110560.00000000 36831.33593750  3181578.00000000 2521600.75000000 
0.06400    67849096.00000000 42676616.00000000 107617920.00000000 35790.73046875  3099658.25000000 2456925.75000000 
0.06500    66302840.00000000 41715080.00000000 105180016.00000000 34778.51562500  3019729.75000000 2393814.50000000 
0.06600    64792628.00000000 40774816.00000000 102795992.00000000 33795.25390625  2941837.25000000 2332290.25000000 
0.06700    63316632.00000000 39856960.00000000 100467512.00000000 32840.22656250  2865971.00000000 2272374.50000000 
0.06800    61876964.00000000 38960552.00000000 98196264.00000000 31914.24414062  2792151.75000000 2214074.75000000 
0.06900    60473824.00000000 38086956.00000000 95981864.00000000 31017.22460938  2720414.75000000 2157390.50000000 
0.07000    59106756.00000000 37235904.00000000 93824568.00000000 30148.64648438  2650712.75000000 2102352.25000000 
0.07100    57776768.00000000 36407544.00000000 91724984.00000000 29308.51367188  2583109.00000000 2048922.50000000 
0.07200    56483496.00000000 35602224.00000000 89684232.00000000 28496.35351562  2517544.50000000 1997106.75000000 
0.07300    55227432.00000000 34820024.00000000 87701512.00000000 27712.45898438  2454046.25000000 1946921.12500000 
0.07400    54008388.00000000 34060648.00000000 85776704.00000000 26956.02734375  2392581.50000000 1898338.25000000 
0.07500    52826196.00000000 33323868.00000000 83909992.00000000 26226.68750000  2333141.25000000 1851353.00000000 
0.07600    51680668.00000000 32609896.00000000 82101728.00000000 25524.19921875  2275684.75000000 1805936.37500000 
0.07700    50571644.00000000 31918974.00000000 80350488.00000000 24847.86132812  2220211.25000000 1762081.62500000 
0.07800    49498564.00000000 31250612.00000000 78656864.00000000 24197.35351562  2166690.00000000 1719745.50000000 
0.07900    48461960.00000000 30604278.00000000 77019432.00000000 23571.72265625  2115062.50000000 1678913.37500000 
0.08000    47460168.00000000 29979780.00000000 75437304.00000000 22970.68945312  2065299.87500000 1639575.62500000 
0.08100    46493812.00000000 29377310.00000000 73911576.00000000 22393.64648438  2017408.00000000 1601689.00000000 
0.08200    45561700.00000000 28796250.00000000 72439160.00000000 21839.73242188  1971291.25000000 1565201.62500000 
0.08300    44663596.00000000 28236386.00000000 71021040.00000000 21308.19531250  1926935.12500000 1530112.00000000 
0.08400    43798228.00000000 27697154.00000000 69654504.00000000 20798.43359375  1884276.00000000 1496355.62500000 
0.08500    42965640.00000000 27178088.00000000 68339168.00000000 20309.52343750  1843276.87500000 1463923.25000000 
0.08600    42164528.00000000 26678614.00000000 67074788.00000000 19841.09375000  1803922.12500000 1432756.50000000 
0.08700    41394880.00000000 26198852.00000000 65858868.00000000 19391.94531250  1766106.12500000 1402818.12500000 
0.08800    40655008.00000000 25737832.00000000 64690188.00000000 18961.48046875  1729788.50000000 1374071.50000000 
0.08900    39944596.00000000 25294954.00000000 63568112.00000000 18548.66992188  1694913.25000000 1346469.62500000 
0.09000    39262656.00000000 24869918.00000000 62491808.00000000 18153.05078125  1661450.87500000 1319970.62500000 
0.09100    38608276.00000000 24461980.00000000 61457880.00000000 17773.57031250  1629327.62500000 1294526.62500000 
0.09200    37980396.00000000 24070866.00000000 60466772.00000000 17409.43554688  1598476.50000000 1270088.12500000 
0.09300    37378352.00000000 23695716.00000000 59515872.00000000 17060.11132812  1568858.00000000 1246628.00000000 
0.09400    36800536.00000000 23335858.00000000 58604052.00000000 16724.46875000  1540404.00000000 1224094.87500000 
0.09500    36246780.00000000 22990992.00000000 57729696.00000000 16401.91992188  1513063.50000000 1202438.75000000 
0.09600    35715640.00000000 22660300.00000000 56891464.00000000 16091.47949219  1486772.12500000 1181611.62500000 
0.09700    35205888.00000000 22343382.00000000 56087884.00000000 15792.65234375  1461488.62500000 1161575.12500000 
0.09800    34717520.00000000 22039328.00000000 55316480.00000000 15504.46191406  1437132.37500000 1142272.87500000 
0.09900    34248592.00000000 21747874.00000000 54576820.00000000 15226.38574219  1413677.37500000 1123684.62500000 
0.10000    33797940.00000000 21467832.00000000 53866320.00000000 14957.44531250  1391040.37500000 1105749.62500000 
0.10100    33365060.00000000 21199012.00000000 53184212.00000000 14697.19921875  1369173.37500000 1088420.62500000 
0.10200    32949308.00000000 20940742.00000000 52528468.00000000 14444.76757812  1348042.75000000 1071672.37500000 
0.10300    32548950.00000000 20692226.00000000 51897300.00000000 14199.74511719  1327569.75000000 1055449.12500000 
0.10400    32163438.00000000 20453052.00000000 51289852.00000000 13961.33007812  1307739.50000000 1039720.37500000 
0.10500    31791790.00000000 20222588.00000000 50704260.00000000 13728.99023438  1288457.37500000 1024446.50000000 
0.10600    31432624.00000000 20000104.00000000 50138848.00000000 13502.11816406  1269700.12500000 1009578.31250000 
0.10700    31085810.00000000 19785100.00000000 49592340.00000000 13280.24609375  1251431.87500000 995092.00000000 
0.10800    30749502.00000000 19577038.00000000 49063372.00000000 13062.84375000  1233583.25000000 980951.62500000 
0.10900    30423702.00000000 19375324.00000000 48550320.00000000 12849.36914062  1216139.00000000 967115.12500000 
0.11000    30106800.00000000 19179680.00000000 48051948.00000000 12639.43554688  1199048.62500000 953567.68750000 
0.11100    29798402.00000000 18989044.00000000 47566964.00000000 12432.67968750  1182262.87500000 940259.18750000 
0.11200    29497636.00000000 18803552.00000000 47094056.00000000 12228.56835938  1165756.12500000 927172.00000000 
0.11300    29203724.00000000 18621918.00000000 46632144.00000000 12026.84667969  1149494.87500000 914279.62500000 
0.11400    28915870.00000000 18444292.00000000 46179752.00000000 11827.22558594  1133440.50000000 901545.62500000 
0.11500    28633256.00000000 18270166.00000000 45735712.00000000 11629.29687500  1117554.75000000 888959.68750000 
0.11600    28355338.00000000 18098738.00000000 45299164.00000000 11432.79199219  1101837.50000000 876493.31250000 
0.11700    28081510.00000000 17930064.00000000 44869120.00000000 11237.63574219  1086232.75000000 864125.06250000 
0.11800    27810880.00000000 17763374.00000000 44444316.00000000 11043.37011719  1070729.87500000 851834.37500000 
0.11900    27543164.00000000 17598564.00000000 44023816.00000000 10849.99316406  1055310.37500000 839597.18750000 
0.12000    27277548.00000000 17435024.00000000 43606572.00000000 10657.28417969  1039941.93750000 827413.62500000 
0.12100    27013966.00000000 17272548.00000000 43192300.00000000 10465.16015625  1024621.50000000 815257.75000000 
0.12200    26751298.00000000 17110952.00000000 42780236.00000000 10273.48046875  1009322.00000000 803126.87500000 
0.12300    26489610.00000000 16949652.00000000 42369444.00000000 10082.08496094  994037.06250000 791001.18750000 
0.12400    26228158.00000000 16788634.00000000 41958700.00000000 9891.14648438   978743.31250000 778876.50000000 
0.12500    25966754.00000000 16627543.00000000 41548108.00000000 9700.31738281   963444.50000000 766732.25000000 
0.12600    25704946.00000000 16466323.00000000 41136936.00000000 9509.86621094   948129.50000000 754578.43750000 
0.12700    25442660.00000000 16304529.00000000 40724860.00000000 9319.58203125   932783.68750000 742403.18750000 
0.12800    25179272.00000000 16142073.00000000 40310824.00000000 9129.61132812   917408.12500000 730198.50000000 
0.12900    24914652.00000000 15978928.00000000 39895140.00000000 8940.03906250   901997.93750000 717964.75000000 
0.13000    24648894.00000000 15814636.00000000 39476864.00000000 8750.71191406   886557.62500000 705704.50000000 
0.13100    24381404.00000000 15649353.00000000 39056380.00000000 8561.91503906   871074.81250000 693414.18750000 
0.13200    24111982.00000000 15482909.00000000 38632752.00000000 8373.66015625   855560.62500000 681092.87500000 
0.13300    23840982.00000000 15315307.00000000 38206384.00000000 8186.06591797   840017.75000000 668745.43750000 
0.13400    23567894.00000000 15146224.00000000 37776528.00000000 7999.18359375   824440.00000000 656372.62500000 
0.13500    23292998.00000000 14975911.00000000 37343180.00000000 7813.12353516   808845.37500000 643980.62500000 
0.13600    23015992.00000000 14804147.00000000 36907072.00000000 7628.07666016   793231.25000000 631570.25000000 
0.13700    22736956.00000000 14630892.00000000 36467176.00000000 7444.09228516   777605.25000000 619153.06250000 
0.13800    22455788.00000000 14456288.00000000 36023840.00000000 7261.37109375   761980.37500000 606727.31250000 
0.13900    22172618.00000000 14280327.00000000 35577408.00000000 7080.09179688   746361.75000000 594313.81250000 
0.14000    21887694.00000000 14103000.00000000 35127836.00000000 6900.28466797   730764.37500000 581901.06250000 
0.14100    21601010.00000000 13924365.00000000 34674912.00000000 6722.20410156   715187.62500000 569512.18750000 
0.14200    21312346.00000000 13744381.00000000 34219028.00000000 6545.90478516   699653.56250000 557148.31250000 
0.14300    21022176.00000000 13563360.00000000 33760392.00000000 6371.52392578   684161.62500000 544821.75000000 
0.14400    20730222.00000000 13381119.00000000 33299110.00000000 6199.30029297   668730.81250000 532535.37500000 
0.14500    20437348.00000000 13197886.00000000 32835822.00000000 6029.31640625   653373.50000000 520305.43750000 
0.14600    20143060.00000000 13013802.00000000 32369942.00000000 5861.73437500   638096.81250000 508140.65625000 
0.14700    19847840.00000000 12828843.00000000 31902630.00000000 5696.69335938   622918.81250000 496048.75000000 
0.14800    19551828.00000000 12643198.00000000 31433606.00000000 5534.27636719   607844.87500000 484035.40625000 
0.14900    19254946.00000000 12456937.00000000 30963250.00000000 5374.59472656   592893.25000000 472117.87500000 
0.15000    18957802.00000000 12270241.00000000 30492176.00000000 5217.86181641   578072.56250000 460299.34375000 
0.15100    18660484.00000000 12083273.00000000 30020356.00000000 5064.11035156   563392.81250000 448597.46875000 
0.15200    18363266.00000000 11896041.00000000 29548596.00000000 4913.47167969   548875.75000000 437013.56250000 
0.15300    18066126.00000000 11708802.00000000 29076680.00000000 4766.07128906   534519.81250000 425561.31250000 
0.15400    17769278.00000000 11521632.00000000 28605374.00000000 4621.91748047   520340.06250000 414243.81250000 
0.15500    17473322.00000000 11334690.00000000 28135040.00000000 4481.13916016   506352.34375000 403080.03125000 
0.15600    17178232.00000000 11148228.00000000 27665542.00000000 4343.83593750   492563.90625000 392066.00000000 
0.15700    16884386.00000000 10962151.00000000 27197932.00000000 4210.03564453   478986.21875000 381219.25000000 
0.15800    16591683.00000000 10776716.00000000 26732056.00000000 4079.73730469   465620.56250000 370541.56250000 
0.15900    16300735.00000000 10592255.00000000 26268584.00000000 3953.08154297   452486.00000000 360044.09375000 
0.16000    16011435.00000000 10408666.00000000 25807562.00000000 3830.03613281   439584.37500000 349729.28125000 
0.16100    15724188.00000000 10226178.00000000 25349734.00000000 3710.70922852   426929.68750000 339609.18750000 
0.16200    15439262.00000000 10044891.00000000 24895090.00000000 3595.02197266   414519.56250000 329685.06250000 
0.16300    15156686.00000000 9864939.00000000 24444152.00000000 3482.97607422   402368.09375000 319961.90625000 
0.16400    14876793.00000000 9686498.00000000 23997208.00000000 3374.66748047   390477.84375000 310446.50000000 
0.16500    14599751.00000000 9509692.00000000 23554600.00000000 3269.98242188   378856.21875000 301142.78125000 
0.16600    14325735.00000000 9334684.00000000 23116556.00000000 3168.99218750   367507.21875000 292053.62500000 
0.16700    14054861.00000000 9161380.00000000 22683208.00000000 3071.57763672   356432.21875000 283182.25000000 
0.16800    13787276.00000000 8990137.00000000 22255130.00000000 2977.73022461   345632.31250000 274527.25000000 
0.16900    13523304.00000000 8820959.00000000 21832496.00000000 2887.48901367   335116.03125000 266100.37500000 
0.17000    13263007.00000000 8653891.00000000 21415378.00000000 2800.68701172   324884.12500000 257897.42187500 
