# SAXS profile: number of points = 501, q_min = 0, q_max = 0.5, delta_q = 0.001
#    q    intensity 
0.00000    162236848.00000000 101202144.00000000 256271792.00000000 114757.98437500 8629770.00000000 6815779.50000000 
0.00100    162204576.00000000 101180952.00000000 256218736.00000000 114728.20312500 8627797.00000000 6814179.00000000 
0.00200    162106592.00000000 101120264.00000000 256063040.00000000 114638.00000000 8621668.00000000 6809401.00000000 
0.00300    161942320.00000000 101017832.00000000 255802944.00000000 114487.97656250 8611580.00000000 6801449.50000000 
0.00400    161711440.00000000 100874888.00000000 255439488.00000000 114277.87500000 8597408.00000000 6790339.50000000 
0.00500    161413312.00000000 100691784.00000000 254972672.00000000 114008.76562500 8579269.00000000 6776069.00000000 
0.00600    161050336.00000000 100468176.00000000 254401968.00000000 113680.78906250 8557132.00000000 6758657.50000000 
0.00700    160621344.00000000 100203416.00000000 253729344.00000000 113294.17187500 8531083.00000000 6738151.00000000 
0.00800    160130448.00000000 99900048.00000000 252956368.00000000 112850.31250000 8501098.00000000 6714577.50000000 
0.00900    159570208.00000000 99557392.00000000 252083824.00000000 112349.19531250 8467231.00000000 6687968.00000000 
0.01000    158951424.00000000 99176216.00000000 251113552.00000000 111791.42187500 8429594.00000000 6658344.00000000 
0.01100    158272112.00000000 98756744.00000000 250043584.00000000 111178.35937500 8388189.00000000 6625788.00000000 
0.01200    157531040.00000000 98299960.00000000 248878096.00000000 110511.00000000 8343080.50000000 6590298.00000000 
0.01300    156728416.00000000 97804664.00000000 247619392.00000000 109790.26562500 8294337.00000000 6551952.50000000 
0.01400    155867792.00000000 97273296.00000000 246265632.00000000 109017.48437500 8241999.50000000 6510800.50000000 
0.01500    154947696.00000000 96706232.00000000 244821280.00000000 108193.68750000 8186219.50000000 6466940.50000000 
0.01600    153969504.00000000 96103512.00000000 243286864.00000000 107320.39062500 8127043.50000000 6420351.00000000 
0.01700    152938064.00000000 95466648.00000000 241665616.00000000 106398.52343750 8064500.00000000 6371181.50000000 
0.01800    151852288.00000000 94797072.00000000 239957664.00000000 105430.00000000 7998735.50000000 6319461.50000000 
0.01900    150712864.00000000 94093720.00000000 238168160.00000000 104416.23437500 7929820.50000000 6265250.50000000 
0.02000    149520688.00000000 93359512.00000000 236297936.00000000 103357.87500000 7857894.50000000 6208659.50000000 
0.02100    148279344.00000000 92593248.00000000 234346736.00000000 102257.72656250 7782975.00000000 6149739.00000000 
0.02200    146990944.00000000 91797624.00000000 232321920.00000000 101117.32031250 7705291.50000000 6088602.00000000 
0.02300    145653952.00000000 90972576.00000000 230221840.00000000 99938.57031250  7624854.50000000 6025297.00000000 
0.02400    144271840.00000000 90120048.00000000 228048608.00000000 98721.68750000  7541749.00000000 5959941.00000000 
0.02500    142847184.00000000 89240640.00000000 225811184.00000000 97470.51562500  7456190.50000000 5892606.50000000 
0.02600    141379312.00000000 88335480.00000000 223506064.00000000 96185.38281250  7368212.50000000 5823366.50000000 
0.02700    139873760.00000000 87404368.00000000 221137152.00000000 94868.73437500  7277985.00000000 5752338.50000000 
0.02800    138328112.00000000 86450712.00000000 218709120.00000000 93522.79687500  7185573.50000000 5679647.50000000 
0.02900    136746176.00000000 85474208.00000000 216223104.00000000 92149.07031250  7091153.50000000 5605317.00000000 
0.03000    135130096.00000000 84476504.00000000 213683648.00000000 90749.77343750  6994814.00000000 5529516.00000000 
0.03100    133482576.00000000 83457944.00000000 211092816.00000000 89326.89843750  6896704.00000000 5452302.00000000 
0.03200    131803496.00000000 82420744.00000000 208452736.00000000 87881.69531250  6796942.50000000 5373780.00000000 
0.03300    130096416.00000000 81365504.00000000 205768864.00000000 86416.57812500  6695658.50000000 5294039.00000000 
0.03400    128361800.00000000 80293904.00000000 203041648.00000000 84934.94531250  6592965.00000000 5213172.00000000 
0.03500    126602896.00000000 79206984.00000000 200276496.00000000 83436.92968750  6489000.50000000 5131355.00000000 
0.03600    124821656.00000000 78105840.00000000 197474800.00000000 81924.96875000  6383917.50000000 5048601.00000000 
0.03700    123019392.00000000 76991360.00000000 194640768.00000000 80401.39062500  6277763.50000000 4965045.00000000 
0.03800    121198552.00000000 75865296.00000000 191775760.00000000 78867.64843750  6170764.00000000 4880754.50000000 
0.03900    119361080.00000000 74728440.00000000 188885696.00000000 77326.44531250  6063005.00000000 4795905.50000000 
0.04000    117508512.00000000 73582280.00000000 185970688.00000000 75779.46875000  5954609.50000000 4710530.50000000 
0.04100    115643192.00000000 72428712.00000000 183036832.00000000 74227.98437500  5845703.50000000 4624764.00000000 
0.04200    113767120.00000000 71268120.00000000 180086672.00000000 72674.65625000  5736391.00000000 4538711.00000000 
0.04300    111882000.00000000 70101504.00000000 177120368.00000000 71120.73437500  5626859.50000000 4452369.50000000 
0.04400    109990264.00000000 68930400.00000000 174142448.00000000 69568.43750000  5517172.50000000 4365961.00000000 
0.04500    108093440.00000000 67755568.00000000 171156512.00000000 68019.21093750  5407450.50000000 4279514.50000000 
0.04600    106192928.00000000 66578360.00000000 168165088.00000000 66474.95312500  5297769.50000000 4193102.25000000 
0.04700    104291560.00000000 65400528.00000000 165172160.00000000 64937.24218750  5188368.00000000 4106857.00000000 
0.04800    102390944.00000000 64222440.00000000 162179136.00000000 63407.73046875  5079240.00000000 4020860.00000000 
0.04900    100492112.00000000 63045524.00000000 159189632.00000000 61888.30078125  4970510.00000000 3935172.50000000 
0.05000    98597632.00000000 61870944.00000000 156206128.00000000 60379.85156250  4862341.50000000 3849903.00000000 
0.05100    96708592.00000000 60699632.00000000 153230560.00000000 58884.27734375  4754799.00000000 3765120.75000000 
0.05200    94826536.00000000 59532576.00000000 150266432.00000000 57402.91015625  4647963.50000000 3680889.50000000 
0.05300    92953672.00000000 58370852.00000000 147316880.00000000 55936.85546875  4541942.50000000 3597296.75000000 
0.05400    91092216.00000000 57215476.00000000 144383104.00000000 54487.87890625  4436861.50000000 3514421.75000000 
0.05500    89242312.00000000 56067272.00000000 141468448.00000000 53057.03125000  4332766.50000000 3432307.00000000 
0.05600    87405864.00000000 54927224.00000000 138573552.00000000 51645.07031250  4229708.50000000 3351055.25000000 
0.05700    85584800.00000000 53796180.00000000 135703200.00000000 50253.55859375  4127890.75000000 3270712.25000000 
0.05800    83779184.00000000 52674764.00000000 132859032.00000000 48883.23828125  4027252.75000000 3191317.75000000 
0.05900    81992568.00000000 51564416.00000000 130041184.00000000 47535.24609375  3927964.25000000 3112962.00000000 
0.06000    80223856.00000000 50465532.00000000 127253008.00000000 46210.25000000  3830042.50000000 3035691.25000000 
0.06100    78475744.00000000 49378728.00000000 124496280.00000000 44909.41796875  3733556.25000000 2959540.00000000 
0.06200    76748368.00000000 48304936.00000000 121772944.00000000 43633.11328125  3638576.50000000 2884569.25000000 
0.06300    75044760.00000000 47244900.00000000 119084496.00000000 42382.16406250  3545157.25000000 2810817.50000000 
0.06400    73363384.00000000 46199000.00000000 116432328.00000000 41157.08203125  3453343.00000000 2738335.25000000 
0.06500    71707208.00000000 45168152.00000000 113818480.00000000 39959.10156250  3363209.00000000 2667155.25000000 
0.06600    70075864.00000000 44152484.00000000 111244392.00000000 38787.57031250  3274764.50000000 2597294.50000000 
0.06700    68470944.00000000 43153148.00000000 108710672.00000000 37643.55078125  3188035.25000000 2528812.50000000 
0.06800    66892368.00000000 42170016.00000000 106219944.00000000 36527.35156250  3103115.50000000 2461707.25000000 
0.06900    65342096.00000000 41204288.00000000 103771912.00000000 35438.98046875  3019990.25000000 2396039.00000000 
0.07000    63820244.00000000 40255688.00000000 101368840.00000000 34379.14062500  2938708.00000000 2331780.50000000 
0.07100    62327304.00000000 39324740.00000000 99011488.00000000 33347.33593750  2859242.50000000 2268994.75000000 
0.07200    60863440.00000000 38412016.00000000 96699248.00000000 32343.98242188  2781670.75000000 2207657.00000000 
0.07300    59429840.00000000 37517708.00000000 94434384.00000000 31369.33593750  2705975.25000000 2147833.25000000 
0.07400    58026420.00000000 36642052.00000000 92217320.00000000 30423.24414062  2632206.25000000 2089477.25000000 
0.07500    56654004.00000000 35785464.00000000 90048936.00000000 29505.04101562  2560313.00000000 2032636.25000000 
0.07600    55312008.00000000 34947744.00000000 87928392.00000000 28615.28515625  2490328.75000000 1977257.12500000 
0.07700    54002232.00000000 34129404.00000000 85857968.00000000 27753.76367188  2422237.50000000 1923418.00000000 
0.07800    52723132.00000000 33330620.00000000 83836376.00000000 26919.94921875  2356074.00000000 1871045.37500000 
0.07900    51476164.00000000 32551410.00000000 81863960.00000000 26113.59765625  2291789.50000000 1820162.12500000 
0.08000    50260620.00000000 31791566.00000000 79941992.00000000 25334.51171875  2229388.75000000 1770776.00000000 
0.08100    49076836.00000000 31051476.00000000 78070112.00000000 24582.09960938  2168862.25000000 1722862.25000000 
0.08200    47924472.00000000 30330660.00000000 76247640.00000000 23856.03710938  2110154.75000000 1676386.37500000 
0.08300    46804184.00000000 29629618.00000000 74474680.00000000 23156.01367188  2053323.25000000 1631361.75000000 
0.08400    45714896.00000000 28948260.00000000 72751664.00000000 22481.28906250  1998276.00000000 1587754.50000000 
0.08500    44657216.00000000 28286222.00000000 71077728.00000000 21831.63867188  1945029.62500000 1545568.37500000 
0.08600    43630500.00000000 27643286.00000000 69452800.00000000 21206.24609375  1893537.75000000 1504765.75000000 
0.08700    42634556.00000000 27019692.00000000 67876488.00000000 20604.74414062  1843772.12500000 1465326.12500000 
0.08800    41668840.00000000 26414996.00000000 66348548.00000000 20026.00781250  1795695.50000000 1427217.62500000 
0.08900    40733452.00000000 25828970.00000000 64867732.00000000 19470.12500000  1749280.75000000 1390415.87500000 
0.09000    39828152.00000000 25261686.00000000 63433796.00000000 18936.21875000  1704502.87500000 1354906.75000000 
0.09100    38951692.00000000 24712466.00000000 62046856.00000000 18423.38085938  1661312.25000000 1320652.12500000 
0.09200    38104496.00000000 24181426.00000000 60704616.00000000 17931.06835938  1619656.75000000 1287617.25000000 
0.09300    37285600.00000000 23668106.00000000 59407884.00000000 17458.76757812  1579539.75000000 1255764.87500000 
0.09400    36494376.00000000 23172126.00000000 58155056.00000000 17005.48632812  1540855.87500000 1225085.87500000 
0.09500    35730460.00000000 22693028.00000000 56945292.00000000 16570.62890625  1503614.37500000 1195522.25000000 
0.09600    34993800.00000000 22231002.00000000 55777636.00000000 16153.74414062  1467758.00000000 1167050.00000000 
0.09700    34282960.00000000 21785198.00000000 54651920.00000000 15753.66503906  1433237.12500000 1139649.37500000 
0.09800    33597868.00000000 21355386.00000000 53566780.00000000 15370.06250000  1400015.75000000 1113261.25000000 
0.09900    32937594.00000000 20941386.00000000 52521136.00000000 15001.95117188  1368035.75000000 1087862.12500000 
0.10000    32301426.00000000 20542542.00000000 51513380.00000000 14648.76171875  1337258.25000000 1063417.25000000 
0.10100    31688832.00000000 20158294.00000000 50543164.00000000 14309.71582031  1307636.00000000 1039888.12500000 
0.10200    31099312.00000000 19788654.00000000 49609552.00000000 13984.08203125  1279121.50000000 1017232.62500000 
0.10300    30532080.00000000 19432968.00000000 48711164.00000000 13671.33398438  1251685.37500000 995416.87500000 
0.10400    29986146.00000000 19090740.00000000 47846668.00000000 13370.67480469  1225256.00000000 974407.62500000 
0.10500    29461378.00000000 18761590.00000000 47015508.00000000 13081.58496094  1199809.00000000 954182.56250000 
0.10600    28956444.00000000 18445226.00000000 46215880.00000000 12803.28125000  1175273.37500000 934677.68750000 
0.10700    28471092.00000000 18141042.00000000 45447116.00000000 12535.07910156  1151624.50000000 915886.31250000 
0.10800    28004054.00000000 17848778.00000000 44708248.00000000 12276.54394531  1128829.00000000 897751.68750000 
0.10900    27555270.00000000 17567612.00000000 43997536.00000000 12026.90332031  1106819.37500000 880246.18750000 
0.11000    27123480.00000000 17297452.00000000 43314164.00000000 11785.70019531  1085562.62500000 863346.93750000 
0.11100    26708150.00000000 17037600.00000000 42656980.00000000 11552.25195312  1065016.62500000 847007.06250000 
0.11200    26308728.00000000 16787830.00000000 42025160.00000000 11326.19433594  1045142.37500000 831198.43750000 
0.11300    25924130.00000000 16547598.00000000 41416676.00000000 11106.86523438  1025910.75000000 815897.62500000 
0.11400    25553874.00000000 16316335.00000000 40831904.00000000 10893.91699219  1007254.00000000 801060.43750000 
0.11500    25197254.00000000 16093856.00000000 40268092.00000000 10686.77246094  989159.81250000 786670.81250000 
0.11600    24853534.00000000 15879495.00000000 39725048.00000000 10485.08203125  971589.18750000 772690.31250000 
0.11700    24522184.00000000 15672992.00000000 39202004.00000000 10288.25878906  954497.06250000 759102.00000000 
0.11800    24202372.00000000 15473867.00000000 38696904.00000000 10095.97753906  937854.37500000 745858.87500000 
0.11900    23893454.00000000 15281678.00000000 38209404.00000000 9907.92285156   921635.18750000 732962.31250000 
0.12000    23594772.00000000 15095955.00000000 37738144.00000000 9723.63867188   905798.81250000 720367.12500000 
0.12100    23305910.00000000 14916636.00000000 37283032.00000000 9543.03027344   890332.43750000 708067.06250000 
0.12200    23026054.00000000 14743056.00000000 36842036.00000000 9365.54492188   875185.37500000 696022.12500000 
0.12300    22754696.00000000 14574786.00000000 36414632.00000000 9191.07421875   860353.68750000 684225.31250000 
0.12400    22491212.00000000 14411578.00000000 35999544.00000000 9019.18457031   845792.62500000 672653.56250000 
0.12500    22235300.00000000 14253170.00000000 35596580.00000000 8849.75000000   831489.68750000 661278.43750000 
0.12600    21985958.00000000 14099073.00000000 35204592.00000000 8682.69140625   817433.31250000 650098.68750000 
0.12700    21742976.00000000 13949043.00000000 34822468.00000000 8517.56054688   803576.75000000 639083.18750000 
0.12800    21505912.00000000 13802725.00000000 34449860.00000000 8354.41503906   789918.18750000 628230.81250000 
0.12900    21273982.00000000 13659729.00000000 34085440.00000000 8193.01562500   776445.18750000 617518.75000000 
0.13000    21047000.00000000 13519855.00000000 33729112.00000000 8033.22070312   763131.37500000 606934.93750000 
0.13100    20824526.00000000 13382910.00000000 33379626.00000000 7874.92822266   749961.43750000 596469.06250000 
0.13200    20606088.00000000 13248387.00000000 33036568.00000000 7718.09765625   736931.68750000 586110.75000000 
0.13300    20391174.00000000 13116347.00000000 32699612.00000000 7562.59130859   724023.50000000 575848.37500000 
0.13400    20179568.00000000 12986288.00000000 32367586.00000000 7408.38916016   711221.68750000 565675.56250000 
0.13500    19970884.00000000 12857973.00000000 32040306.00000000 7255.48681641   698529.81250000 555586.56250000 
0.13600    19764750.00000000 12731433.00000000 31716912.00000000 7103.79345703   685928.06250000 545569.50000000 
0.13700    19560828.00000000 12606271.00000000 31397348.00000000 6953.39648438   673413.56250000 535621.62500000 
0.13800    19359084.00000000 12482252.00000000 31080754.00000000 6804.19482422   660982.50000000 525737.56250000 
0.13900    19158676.00000000 12359366.00000000 30766734.00000000 6656.25439453   648626.81250000 515918.75000000 
0.14000    18960136.00000000 12237309.00000000 30455234.00000000 6509.60058594   636349.81250000 506159.84375000 
0.14100    18762678.00000000 12116070.00000000 30145484.00000000 6364.27490234   624147.06250000 496453.15625000 
0.14200    18566110.00000000 11995279.00000000 29837318.00000000 6220.29589844   612010.25000000 486803.81250000 
0.14300    18370452.00000000 11875075.00000000 29530388.00000000 6077.74218750   599944.37500000 477207.34375000 
0.14400    18175332.00000000 11755101.00000000 29224244.00000000 5936.63818359   587946.87500000 467665.78125000 
0.14500    17980986.00000000 11635354.00000000 28919036.00000000 5797.07275391   576018.25000000 458180.31250000 
0.14600    17786878.00000000 11515816.00000000 28614018.00000000 5659.17138672   564168.25000000 448751.65625000 
0.14700    17592872.00000000 11396302.00000000 28309478.00000000 5522.92529297   552395.31250000 439380.00000000 
0.14800    17399082.00000000 11276712.00000000 28004910.00000000 5388.43896484   540696.25000000 430066.12500000 
0.14900    17205366.00000000 11157101.00000000 27700130.00000000 5255.72949219   529075.68750000 420815.53125000 
0.15000    17011456.00000000 11037342.00000000 27395240.00000000 5124.99267578   517540.93750000 411634.87500000 
0.15100    16817520.00000000 10917336.00000000 27090132.00000000 4996.22753906   506097.90625000 402519.12500000 
0.15200    16623603.00000000 10797176.00000000 26784628.00000000 4869.57177734   494755.71875000 393482.40625000 
0.15300    16429456.00000000 10676686.00000000 26478718.00000000 4745.02783203   483507.15625000 384520.15625000 
0.15400    16235077.00000000 10555907.00000000 26172212.00000000 4622.72705078   472364.25000000 375636.81250000 
0.15500    16040504.00000000 10434899.00000000 25865148.00000000 4502.77246094   461333.28125000 366844.43750000 
0.15600    15845600.00000000 10313560.00000000 25557430.00000000 4385.13183594   450418.53125000 358137.78125000 
0.15700    15650725.00000000 10191932.00000000 25249538.00000000 4270.04980469   439627.93750000 349531.06250000 
0.15800    15455461.00000000 10070039.00000000 24940824.00000000 4157.34814453   428961.75000000 341020.03125000 
0.15900    15260274.00000000 9947881.00000000 24631772.00000000 4047.30786133   418435.28125000 332615.28125000 
0.16000    15064890.00000000 9825469.00000000 24322372.00000000 3939.88769531   408045.03125000 324320.90625000 
0.16100    14869457.00000000 9702788.00000000 24012728.00000000 3835.15014648   397805.40625000 316138.90625000 
0.16200    14674053.00000000 9580023.00000000 23702718.00000000 3733.13403320   387713.56250000 308076.50000000 
0.16300    14478695.00000000 9456974.00000000 23392728.00000000 3633.87597656   377781.03125000 300136.40625000 
0.16400    14283469.00000000 9333943.00000000 23082410.00000000 3537.44311523   368012.62500000 292322.71875000 
0.16500    14088420.00000000 9210659.00000000 22772428.00000000 3443.81054688   358410.65625000 284642.93750000 
0.16600    13893719.00000000 9087449.00000000 22462684.00000000 3353.04907227   348982.28125000 277096.03125000 
0.16700    13699165.00000000 8964266.00000000 22152938.00000000 3265.12451172   339730.43750000 269688.75000000 
0.16800    13505233.00000000 8841097.00000000 21843642.00000000 3180.05468750   330661.90625000 262424.59375000 
0.16900    13311763.00000000 8718076.00000000 21535150.00000000 3097.86523438   321781.65625000 255308.89062500 
0.17000    13118881.00000000 8595216.00000000 21227072.00000000 3018.56176758   313089.31250000 248339.96875000 
