# SAXS profile: number of points = 501, q_min = 0, q_max = 0.5, delta_q = 0.001
#    q    intensity 
0.00000    162235152.00000000 101202384.00000000 256271936.00000000 105776.68750000 8285199.50000000 6543643.00000000 
0.00100    162200112.00000000 101177872.00000000 256209840.00000000 105747.31250000 8283064.00000000 6541908.50000000 
0.00200    162087456.00000000 101107120.00000000 256031392.00000000 105659.03906250 8276612.00000000 6536845.00000000 
0.00300    161898656.00000000 100988712.00000000 255730096.00000000 105512.11718750 8265887.50000000 6528408.50000000 
0.00400    161631456.00000000 100823520.00000000 255309440.00000000 105307.33593750 8250906.50000000 6516634.00000000 
0.00500    161287920.00000000 100611488.00000000 254770864.00000000 105044.45312500 8231670.50000000 6501491.50000000 
0.00600    160870032.00000000 100350992.00000000 254111968.00000000 104723.03125000 8208298.00000000 6483060.00000000 
0.00700    160378448.00000000 100046808.00000000 253339296.00000000 104345.86718750 8180723.50000000 6461340.00000000 
0.00800    159808656.00000000 99697048.00000000 252450512.00000000 103913.01562500 8149046.50000000 6436376.00000000 
0.00900    159170752.00000000 99301896.00000000 251444768.00000000 103423.95312500 8113335.00000000 6408250.00000000 
0.01000    158462224.00000000 98863448.00000000 250329296.00000000 102880.41406250 8073631.50000000 6376975.50000000 
0.01100    157684112.00000000 98380864.00000000 249101456.00000000 102284.50000000 8029991.00000000 6342605.00000000 
0.01200    156837024.00000000 97854352.00000000 247766672.00000000 101635.73437500 7982506.00000000 6305192.50000000 
0.01300    155920256.00000000 97286432.00000000 246323088.00000000 100936.38281250 7931289.50000000 6264859.00000000 
0.01400    154935424.00000000 96677456.00000000 244776192.00000000 100186.99218750 7876416.00000000 6221613.50000000 
0.01500    153888576.00000000 96028176.00000000 243128352.00000000 99389.17187500  7817912.50000000 6175579.50000000 
0.01600    152779264.00000000 95340568.00000000 241379792.00000000 98544.75781250  7756017.50000000 6126777.50000000 
0.01700    151609376.00000000 94615672.00000000 239537552.00000000 97655.23437500  7690736.00000000 6075361.00000000 
0.01800    150378704.00000000 93853520.00000000 237600720.00000000 96721.63281250  7622151.00000000 6021321.50000000 
0.01900    149090336.00000000 93055368.00000000 235574192.00000000 95746.46875000  7550517.50000000 5964911.50000000 
0.02000    147748032.00000000 92223520.00000000 233458784.00000000 94730.39062500  7475846.50000000 5906046.00000000 
0.02100    146352192.00000000 91358184.00000000 231260480.00000000 93677.41406250  7398255.50000000 5844933.50000000 
0.02200    144906688.00000000 90461728.00000000 228984624.00000000 92586.42187500  7317939.50000000 5781634.00000000 
0.02300    143410192.00000000 89534880.00000000 226629392.00000000 91461.47656250  7235013.00000000 5716252.00000000 
0.02400    141868592.00000000 88578400.00000000 224199648.00000000 90303.22656250  7149586.50000000 5648957.00000000 
0.02500    140282528.00000000 87595720.00000000 221702256.00000000 89114.33593750  7061812.50000000 5579770.50000000 
0.02600    138654928.00000000 86585768.00000000 219138944.00000000 87896.45312500  6971814.00000000 5508824.50000000 
0.02700    136988176.00000000 85552216.00000000 216514096.00000000 86652.70312500  6879746.00000000 5436293.50000000 
0.02800    135284848.00000000 84495296.00000000 213830464.00000000 85383.71093750  6785766.50000000 5362211.00000000 
0.02900    133547144.00000000 83416904.00000000 211092720.00000000 84092.15625000  6689985.00000000 5286730.00000000 
0.03000    131776272.00000000 82319088.00000000 208304928.00000000 82780.25781250  6592615.50000000 5210009.50000000 
0.03100    129977224.00000000 81202632.00000000 205470160.00000000 81450.14843750  6493753.00000000 5132084.00000000 
0.03200    128151632.00000000 80070424.00000000 202592384.00000000 80102.66406250  6393560.50000000 5053114.00000000 
0.03300    126301632.00000000 78921632.00000000 199679584.00000000 78741.63281250  6292160.50000000 4973172.50000000 
0.03400    124429552.00000000 77760112.00000000 196729568.00000000 77368.52343750  6189728.50000000 4892378.00000000 
0.03500    122539232.00000000 76586008.00000000 193749680.00000000 75984.05468750  6086443.00000000 4810907.50000000 
0.03600    120631168.00000000 75402160.00000000 190743344.00000000 74592.46093750  5982344.50000000 4728851.00000000 
0.03700    118709720.00000000 74209480.00000000 187715712.00000000 73193.56250000  5877691.00000000 4646339.00000000 
0.03800    116776664.00000000 73009296.00000000 184670096.00000000 71791.63281250  5772548.50000000 4563434.00000000 
0.03900    114834360.00000000 71803088.00000000 181607520.00000000 70386.43750000  5667074.50000000 4480293.00000000 
0.04000    112885072.00000000 70592624.00000000 178534352.00000000 68981.32812500  5561398.00000000 4396945.00000000 
0.04100    110931408.00000000 69378184.00000000 175455648.00000000 67576.46875000  5455696.50000000 4313583.50000000 
0.04200    108975360.00000000 68163136.00000000 172371168.00000000 66175.03906250  5350014.00000000 4230205.00000000 
0.04300    107020776.00000000 66947824.00000000 169288880.00000000 64778.06250000  5244560.00000000 4147007.75000000 
0.04400    105066608.00000000 65734076.00000000 166208576.00000000 63387.28906250  5139400.00000000 4064067.00000000 
0.04500    103119248.00000000 64522980.00000000 163137520.00000000 62004.72265625  5034692.50000000 3981465.25000000 
0.04600    101177680.00000000 63316204.00000000 160076400.00000000 60631.30859375  4930587.00000000 3899291.25000000 
0.04700    99244888.00000000 62114704.00000000 157028496.00000000 59269.17578125  4827078.00000000 3817654.75000000 
0.04800    97322984.00000000 60919472.00000000 153996352.00000000 57919.13281250  4724378.50000000 3736608.25000000 
0.04900    95413872.00000000 59732656.00000000 150985616.00000000 56582.42968750  4622514.00000000 3656240.00000000 
0.05000    93520000.00000000 58554124.00000000 147997664.00000000 55260.83593750  4521668.00000000 3576654.00000000 
0.05100    91640888.00000000 57385816.00000000 145034208.00000000 53954.97265625  4421832.50000000 3497898.50000000 
0.05200    89780560.00000000 56228428.00000000 142098640.00000000 52666.37890625  4323160.00000000 3420034.00000000 
0.05300    87939952.00000000 55083072.00000000 139195376.00000000 51395.91406250  4225723.00000000 3343111.50000000 
0.05400    86120360.00000000 53951048.00000000 136323776.00000000 50144.57421875  4129621.00000000 3267249.00000000 
0.05500    84323512.00000000 52832640.00000000 133490952.00000000 48913.09375000  4034860.00000000 3192480.25000000 
0.05600    82549984.00000000 51729388.00000000 130692704.00000000 47702.13281250  3941555.75000000 3118821.75000000 
0.05700    80803000.00000000 50641232.00000000 127935224.00000000 46512.85546875  3849757.00000000 3046355.25000000 
0.05800    79081368.00000000 49569464.00000000 125219048.00000000 45345.58593750  3759526.75000000 2975127.00000000 
0.05900    77388232.00000000 48515144.00000000 122545792.00000000 44201.14843750  3670916.50000000 2905151.00000000 
0.06000    75722448.00000000 47478308.00000000 119917360.00000000 43079.57812500  3583959.25000000 2836510.25000000 
0.06100    74086776.00000000 46459744.00000000 117336248.00000000 41981.94531250  3498705.00000000 2769188.00000000 
0.06200    72481160.00000000 45460136.00000000 114802664.00000000 40907.97265625  3415182.50000000 2703237.75000000 
0.06300    70907544.00000000 44479640.00000000 112317448.00000000 39858.22265625  3333412.75000000 2638677.00000000 
0.06400    69364576.00000000 43518956.00000000 109882384.00000000 38832.85937500  3253426.00000000 2575529.50000000 
0.06500    67853808.00000000 42578272.00000000 107499048.00000000 37832.42187500  3175255.25000000 2513790.25000000 
0.06600    66376804.00000000 41658036.00000000 105166312.00000000 36856.23828125  3098934.25000000 2453540.75000000 
0.06700    64932132.00000000 40758356.00000000 102886104.00000000 35904.97265625  3024418.00000000 2394685.00000000 
0.06800    63521276.00000000 39879692.00000000 100659744.00000000 34978.05859375  2951755.50000000 2337317.75000000 
0.06900    62144328.00000000 39021780.00000000 98486448.00000000 34075.98046875  2880918.75000000 2281391.25000000 
0.07000    60801452.00000000 38185200.00000000 96366072.00000000 33198.41406250  2811916.00000000 2226876.00000000 
0.07100    59492136.00000000 37369900.00000000 94299224.00000000 32344.24414062  2744771.50000000 2173857.50000000 
0.07200    58217028.00000000 36575784.00000000 92286592.00000000 31514.76171875  2679434.00000000 2122261.00000000 
0.07300    56976232.00000000 35802648.00000000 90328264.00000000 30708.84960938  2615897.25000000 2072100.50000000 
0.07400    55769528.00000000 35051044.00000000 88423464.00000000 29926.05468750  2554155.75000000 2023348.50000000 
0.07500    54596180.00000000 34320764.00000000 86571168.00000000 29166.24609375  2494193.00000000 1976003.00000000 
0.07600    53456068.00000000 33611136.00000000 84772520.00000000 28429.01562500  2435959.50000000 1930031.62500000 
0.07700    52349708.00000000 32922380.00000000 83026840.00000000 27713.93750000  2379464.00000000 1885421.75000000 
0.07800    51276212.00000000 32254184.00000000 81332232.00000000 27020.29882812  2324646.25000000 1842139.00000000 
0.07900    50234584.00000000 31606060.00000000 79689952.00000000 26348.04492188  2271467.25000000 1800160.50000000 
0.08000    49225164.00000000 30978298.00000000 78097472.00000000 25696.12500000  2219939.50000000 1759483.00000000 
0.08100    48247384.00000000 30370060.00000000 76554472.00000000 25064.41796875  2169991.25000000 1720065.62500000 
0.08200    47300228.00000000 29781206.00000000 75061448.00000000 24452.11523438  2121596.50000000 1681847.12500000 
0.08300    46383784.00000000 29211460.00000000 73615584.00000000 23858.83789062  2074712.62500000 1644843.75000000 
0.08400    45496400.00000000 28660256.00000000 72216528.00000000 23284.22460938  2029277.87500000 1608996.00000000 
0.08500    44638864.00000000 28127288.00000000 70864032.00000000 22726.87890625  1985258.37500000 1574272.12500000 
0.08600    43808576.00000000 27612170.00000000 69556312.00000000 22186.90820312  1942640.50000000 1540638.87500000 
0.08700    43006884.00000000 27114304.00000000 68292760.00000000 21663.54296875  1901364.00000000 1508067.00000000 
0.08800    42231500.00000000 26633122.00000000 67070800.00000000 21156.09960938  1861351.87500000 1476522.87500000 
0.08900    41481980.00000000 26168462.00000000 65890752.00000000 20663.87500000  1822599.62500000 1445954.37500000 
0.09000    40757736.00000000 25720036.00000000 64750644.00000000 20186.43945312  1785064.75000000 1416333.50000000 
0.09100    40058360.00000000 25286554.00000000 63649376.00000000 19723.26953125  1748668.75000000 1387633.75000000 
0.09200    39382128.00000000 24868330.00000000 62585784.00000000 19273.67968750  1713373.87500000 1359807.25000000 
0.09300    38728940.00000000 24464380.00000000 61558128.00000000 18837.04101562  1679148.50000000 1332835.75000000 
0.09400    38097624.00000000 24073934.00000000 60565256.00000000 18412.87304688  1645932.50000000 1306649.62500000 
0.09500    37487116.00000000 23697130.00000000 59605724.00000000 18000.59375000  1613693.25000000 1281229.37500000 
0.09600    36897416.00000000 23332900.00000000 58678960.00000000 17599.69726562  1582369.62500000 1256558.50000000 
0.09700    36326824.00000000 22981160.00000000 57782468.00000000 17209.64648438  1551948.12500000 1232566.62500000 
0.09800    35774940.00000000 22641018.00000000 56915768.00000000 16829.93359375  1522353.25000000 1209263.62500000 
0.09900    35240820.00000000 22311958.00000000 56077188.00000000 16459.99609375  1493569.00000000 1186567.75000000 
0.10000    34723440.00000000 21993602.00000000 55265928.00000000 16099.47070312  1465542.37500000 1164484.87500000 
0.10100    34222208.00000000 21685758.00000000 54479728.00000000 15747.86230469  1438236.87500000 1142972.12500000 
0.10200    33737116.00000000 21387358.00000000 53718196.00000000 15404.84179688  1411599.12500000 1121990.50000000 
0.10300    33265440.00000000 21097952.00000000 52979820.00000000 15069.91796875  1385612.00000000 1101523.00000000 
0.10400    32808242.00000000 20817444.00000000 52262888.00000000 14742.69824219  1360233.75000000 1081523.12500000 
0.10500    32363872.00000000 20544982.00000000 51567140.00000000 14422.95996094  1335442.37500000 1061989.00000000 
0.10600    31931812.00000000 20280352.00000000 50890256.00000000 14110.08300781  1311173.25000000 1042869.37500000 
0.10700    31511182.00000000 20023104.00000000 50232136.00000000 13803.95410156  1287427.50000000 1024161.68750000 
0.10800    31101452.00000000 19772390.00000000 49591296.00000000 13504.32324219  1264166.87500000 1005827.43750000 
0.10900    30702250.00000000 19528300.00000000 48965996.00000000 13210.68847656  1241346.62500000 987844.31250000 
0.11000    30312162.00000000 19290076.00000000 48356724.00000000 12923.00390625  1218965.00000000 970204.31250000 
0.11100    29931182.00000000 19057488.00000000 47761148.00000000 12640.94433594  1196981.25000000 952874.87500000 
0.11200    29558406.00000000 18830150.00000000 47178416.00000000 12364.33496094  1175371.25000000 935840.06250000 
0.11300    29193534.00000000 18607504.00000000 46608424.00000000 12092.84375000  1154123.75000000 919081.56250000 
0.11400    28835956.00000000 18389400.00000000 46049524.00000000 11826.43847656  1133224.37500000 902591.37500000 
0.11500    28485066.00000000 18175414.00000000 45501260.00000000 11564.87890625  1112642.37500000 886339.00000000 
0.11600    28140292.00000000 17965296.00000000 44962592.00000000 11308.11132812  1092355.37500000 870333.62500000 
0.11700    27801184.00000000 17758728.00000000 44432900.00000000 11055.89355469  1072356.87500000 854544.50000000 
0.11800    27467498.00000000 17555140.00000000 43911648.00000000 10808.16210938  1052623.25000000 838957.56250000 
0.11900    27138608.00000000 17354516.00000000 43397748.00000000 10564.70019531  1033157.81250000 823580.12500000 
0.12000    26814168.00000000 17156768.00000000 42890968.00000000 10325.61914062  1013937.93750000 808381.31250000 
0.12100    26493980.00000000 16961518.00000000 42390368.00000000 10090.79101562  994958.25000000 793376.68750000 
0.12200    26177354.00000000 16768334.00000000 41895612.00000000 9859.90625000   976209.81250000 778541.93750000 
0.12300    25864274.00000000 16577248.00000000 41406648.00000000 9633.37109375   957673.87500000 763875.12500000 
0.12400    25554526.00000000 16387976.00000000 40921724.00000000 9410.63476562   939357.81250000 749373.68750000 
0.12500    25247452.00000000 16200421.00000000 40441544.00000000 9192.08203125   921247.31250000 735027.50000000 
0.12600    24943344.00000000 16014333.00000000 39965320.00000000 8977.34179688   903351.81250000 720838.37500000 
0.12700    24641588.00000000 15829469.00000000 39493040.00000000 8766.59667969   885644.62500000 706801.18750000 
0.12800    24341938.00000000 15645965.00000000 39023668.00000000 8559.72558594   868140.75000000 692915.50000000 
0.12900    24044502.00000000 15463582.00000000 38557624.00000000 8356.82812500   850831.93750000 679174.56250000 
0.13000    23748970.00000000 15282100.00000000 38094144.00000000 8157.75976562   833717.87500000 665586.31250000 
0.13100    23455164.00000000 15101625.00000000 37633360.00000000 7962.54931641   816801.25000000 652138.68750000 
0.13200    23162866.00000000 14921901.00000000 37174852.00000000 7771.22900391   800074.87500000 638841.87500000 
0.13300    22872562.00000000 14742993.00000000 36718608.00000000 7583.74072266   783546.18750000 625692.81250000 
0.13400    22583484.00000000 14564729.00000000 36264556.00000000 7400.15136719   767204.50000000 612685.06250000 
0.13500    22295696.00000000 14387059.00000000 35812320.00000000 7220.34326172   751060.68750000 599830.62500000 
0.13600    22009582.00000000 14210103.00000000 35361824.00000000 7044.36572266   735116.43750000 587130.00000000 
0.13700    21724640.00000000 14033826.00000000 34913276.00000000 6872.16308594   719372.37500000 574577.93750000 
0.13800    21440800.00000000 13857967.00000000 34466384.00000000 6703.79248047   703827.62500000 562180.81250000 
0.13900    21158638.00000000 13682654.00000000 34021308.00000000 6539.27343750   688491.50000000 549937.06250000 
0.14000    20877422.00000000 13507938.00000000 33578028.00000000 6378.45410156   673356.81250000 537850.25000000 
0.14100    20597812.00000000 13333761.00000000 33136214.00000000 6221.37011719   658436.75000000 525930.87500000 
0.14200    20319336.00000000 13160196.00000000 32696472.00000000 6067.99902344   643719.75000000 514167.46875000 
0.14300    20042240.00000000 12987171.00000000 32258354.00000000 5918.33789062   629220.50000000 502567.87500000 
0.14400    19766388.00000000 12814716.00000000 31822072.00000000 5772.34960938   614933.56250000 491138.28125000 
0.14500    19491934.00000000 12642962.00000000 31387712.00000000 5629.98583984   600866.00000000 479874.78125000 
0.14600    19219062.00000000 12471915.00000000 30955262.00000000 5491.20166016   587015.25000000 468783.18750000 
0.14700    18947692.00000000 12301555.00000000 30525152.00000000 5355.92382812   573395.68750000 457865.31250000 
0.14800    18677696.00000000 12131822.00000000 30096780.00000000 5224.08691406   559989.75000000 447120.75000000 
0.14900    18409312.00000000 11962772.00000000 29670750.00000000 5095.72460938   546812.06250000 436551.37500000 
0.15000    18142592.00000000 11794631.00000000 29247082.00000000 4970.71093750   533861.87500000 426158.87500000 
0.15100    17877584.00000000 11627395.00000000 28825854.00000000 4848.95947266   521138.87500000 415944.21875000 
0.15200    17614428.00000000 11461006.00000000 28407432.00000000 4730.55615234   508641.34375000 405910.28125000 
0.15300    17353080.00000000 11295565.00000000 27991304.00000000 4615.30810547   496382.78125000 396055.06250000 
0.15400    17093662.00000000 11131042.00000000 27577852.00000000 4503.09472656   484340.12500000 386378.00000000 
0.15500    16836124.00000000 10967575.00000000 27167672.00000000 4393.95410156   472532.18750000 376888.65625000 
0.15600    16580612.00000000 10805169.00000000 26759928.00000000 4287.73242188   460949.62500000 367570.78125000 
0.15700    16327293.00000000 10643931.00000000 26355562.00000000 4184.45214844   449600.43750000 358441.71875000 
0.15800    16075957.00000000 10483762.00000000 25954286.00000000 4083.90185547   438471.65625000 349485.81250000 
0.15900    15826854.00000000 10324848.00000000 25556328.00000000 3986.12841797   427572.28125000 340714.12500000 
0.16000    15580007.00000000 10167148.00000000 25161450.00000000 3890.91992188   416896.43750000 332117.37500000 
0.16100    15335555.00000000 10010746.00000000 24770392.00000000 3798.27880859   406445.78125000 323704.03125000 
0.16200    15093449.00000000 9855719.00000000 24382654.00000000 3708.13159180   396215.53125000 315462.46875000 
0.16300    14853643.00000000 9702072.00000000 23998762.00000000 3620.31079102   386202.00000000 307396.90625000 
0.16400    14616310.00000000 9549746.00000000 23618566.00000000 3534.79589844   376406.21875000 299503.46875000 
0.16500    14381421.00000000 9398854.00000000 23242038.00000000 3451.49414062   366818.96875000 291780.68750000 
0.16600    14149120.00000000 9249449.00000000 22869412.00000000 3370.32739258   357445.84375000 284226.96875000 
0.16700    13919380.00000000 9101523.00000000 22500458.00000000 3291.16894531   348277.78125000 276839.43750000 
0.16800    13692118.00000000 8955045.00000000 22135576.00000000 3213.98950195   339314.59375000 269617.06250000 
0.16900    13467608.00000000 8810215.00000000 21774886.00000000 3138.70385742   330554.71875000 262558.46875000 
0.17000    13245662.00000000 8666953.00000000 21418332.00000000 3065.21264648   321985.75000000 255655.89062500 
