# SAXS profile: number of points = 501, q_min = 0, q_max = 0.5, delta_q = 0.001
#    q    intensity 
0.00000    162236992.00000000 101201792.00000000 256271408.00000000 104388.34375000 8230630.50000000 6500572.00000000 
0.00100    162200592.00000000 101178448.00000000 256212128.00000000 104358.63281250 8228490.50000000 6498872.00000000 
0.00200    162090880.00000000 101109048.00000000 256035920.00000000 104269.49218750 8222086.00000000 6493818.00000000 
0.00300    161903792.00000000 100994120.00000000 255742048.00000000 104120.76562500 8211434.50000000 6485431.50000000 
0.00400    161641920.00000000 100832880.00000000 255331104.00000000 103912.99218750 8196515.00000000 6473732.00000000 
0.00500    161305680.00000000 100625256.00000000 254803536.00000000 103646.93750000 8177397.00000000 6458677.50000000 
0.00600    160896720.00000000 100372256.00000000 254160528.00000000 103322.14062500 8154049.00000000 6440366.00000000 
0.00700    160413728.00000000 100074920.00000000 253401440.00000000 102940.52343750 8126612.00000000 6418742.00000000 
0.00800    159857024.00000000 99732736.00000000 252531792.00000000 102501.05468750 8095010.00000000 6393927.50000000 
0.00900    159229200.00000000 99346648.00000000 251547824.00000000 102006.04687500 8059399.50000000 6365946.00000000 
0.01000    158533456.00000000 98917672.00000000 250453472.00000000 101455.53906250 8019807.00000000 6334830.50000000 
0.01100    157767952.00000000 98445520.00000000 249251392.00000000 100851.35937500 7976277.00000000 6300636.50000000 
0.01200    156935184.00000000 97931128.00000000 247942704.00000000 100192.92187500 7928900.50000000 6263424.00000000 
0.01300    156035776.00000000 97376272.00000000 246527312.00000000 99483.18750000  7877748.50000000 6223171.50000000 
0.01400    155066608.00000000 96780288.00000000 245008512.00000000 98722.63281250  7822908.00000000 6180066.50000000 
0.01500    154036512.00000000 96144160.00000000 243391168.00000000 97912.42968750  7764472.50000000 6134114.00000000 
0.01600    152943984.00000000 95470016.00000000 241674480.00000000 97054.29687500  7702545.50000000 6085422.00000000 
0.01700    151790240.00000000 94758920.00000000 239861664.00000000 96149.45312500  7637194.00000000 6034078.50000000 
0.01800    150577776.00000000 94010872.00000000 237957600.00000000 95199.62500000  7568555.50000000 5980100.00000000 
0.01900    149307968.00000000 93227536.00000000 235962928.00000000 94207.14843750  7496749.50000000 5923658.00000000 
0.02000    147982592.00000000 92410208.00000000 233881056.00000000 93172.11718750  7421865.00000000 5864734.00000000 
0.02100    146603728.00000000 91559576.00000000 231715152.00000000 92098.13281250  7344009.00000000 5803556.00000000 
0.02200    145173952.00000000 90676792.00000000 229468144.00000000 90985.41406250  7263336.00000000 5740121.00000000 
0.02300    143695136.00000000 89763944.00000000 227143712.00000000 89836.82031250  7179968.50000000 5674561.50000000 
0.02400    142168192.00000000 88822408.00000000 224746288.00000000 88653.54687500  7094031.50000000 5606937.50000000 
0.02500    140597056.00000000 87852240.00000000 222277328.00000000 87437.91406250  7005654.50000000 5537486.00000000 
0.02600    138982672.00000000 86855640.00000000 219740112.00000000 86192.32031250  6914972.50000000 5466127.50000000 
0.02700    137329072.00000000 85834352.00000000 217140720.00000000 84918.53125000  6822123.50000000 5393106.00000000 
0.02800    135636304.00000000 84789416.00000000 214481008.00000000 83617.71875000  6727268.50000000 5318466.00000000 
0.02900    133908320.00000000 83722168.00000000 211764144.00000000 82293.38281250  6630477.00000000 5242341.00000000 
0.03000    132146568.00000000 82633896.00000000 208995392.00000000 80946.40625000  6532034.50000000 5164853.50000000 
0.03100    130354400.00000000 81526752.00000000 206178176.00000000 79580.22656250  6431902.00000000 5086117.00000000 
0.03200    128533752.00000000 80402264.00000000 203315152.00000000 78194.89843750  6330369.00000000 5006234.00000000 
0.03300    126687344.00000000 79260864.00000000 200412368.00000000 76794.69531250  6227567.50000000 4925263.50000000 
0.03400    124816848.00000000 78105040.00000000 197471408.00000000 75379.76562500  6123518.50000000 4843446.00000000 
0.03500    122925208.00000000 76936000.00000000 194497456.00000000 73953.89062500  6018523.50000000 4760756.50000000 
0.03600    121015664.00000000 75754856.00000000 191495056.00000000 72517.58593750  5912608.00000000 4677411.00000000 
0.03700    119089032.00000000 74563448.00000000 188463792.00000000 71074.20312500  5805992.50000000 4593446.50000000 
0.03800    117148912.00000000 73363864.00000000 185412304.00000000 69625.47656250  5698762.00000000 4509071.50000000 
0.03900    115196904.00000000 72156960.00000000 182342800.00000000 68172.78125000  5591139.50000000 4424297.00000000 
0.04000    113237392.00000000 70944576.00000000 179258896.00000000 66718.24218750  5483171.50000000 4339297.00000000 
0.04100    111270376.00000000 69727888.00000000 176165088.00000000 65264.21875000  5375021.50000000 4254155.00000000 
0.04200    109298720.00000000 68508040.00000000 173062800.00000000 63812.21484375  5266837.50000000 4168949.50000000 
0.04300    107325944.00000000 67285912.00000000 169957008.00000000 62364.42578125  5158786.50000000 4083809.75000000 
0.04400    105352536.00000000 66064028.00000000 166851904.00000000 60921.96093750  5050935.50000000 3998822.00000000 
0.04500    103382440.00000000 64843964.00000000 163750144.00000000 59487.44921875  4943424.00000000 3914122.75000000 
0.04600    101416368.00000000 63625928.00000000 160656752.00000000 58061.78515625  4836393.50000000 3829795.50000000 
0.04700    99457056.00000000 62412280.00000000 157571264.00000000 56647.03906250  4729958.00000000 3745899.50000000 
0.04800    97507096.00000000 61203552.00000000 154501296.00000000 55244.71875000  4624203.00000000 3662556.25000000 
0.04900    95567880.00000000 60001208.00000000 151447536.00000000 53855.87109375  4519291.50000000 3579835.75000000 
0.05000    93640856.00000000 58806708.00000000 148412416.00000000 52482.47656250  4415245.50000000 3497840.25000000 
0.05100    91728936.00000000 57620696.00000000 145400512.00000000 51125.85937500  4312286.50000000 3416632.25000000 
0.05200    89833584.00000000 56444848.00000000 142414448.00000000 49786.86328125  4210409.00000000 3336313.00000000 
0.05300    87955696.00000000 55279708.00000000 139456480.00000000 48467.21484375  4109783.00000000 3256925.00000000 
0.05400    86097560.00000000 54126520.00000000 136527600.00000000 47167.78125000  4010432.50000000 3178557.50000000 
0.05500    84261808.00000000 52986548.00000000 133635480.00000000 45889.73046875  3912467.00000000 3101256.50000000 
0.05600    82447960.00000000 51860456.00000000 130776960.00000000 44633.94921875  3815981.50000000 3025123.25000000 
0.05700    80659272.00000000 50748952.00000000 127956648.00000000 43401.43750000  3721038.25000000 2950174.25000000 
0.05800    78895216.00000000 49653208.00000000 125175392.00000000 42193.05859375  3627679.00000000 2876494.50000000 
0.05900    77158256.00000000 48573580.00000000 122437632.00000000 41009.17187500  3535987.75000000 2804122.25000000 
0.06000    75449696.00000000 47511312.00000000 119742232.00000000 39851.17187500  3446039.00000000 2733077.00000000 
0.06100    73770424.00000000 46466780.00000000 117093272.00000000 38719.37109375  3357851.50000000 2663445.25000000 
0.06200    72121048.00000000 45440888.00000000 114491360.00000000 37614.01562500  3271506.75000000 2595217.00000000 
0.06300    70503336.00000000 44434136.00000000 111938424.00000000 36535.81250000  3187024.25000000 2528479.50000000 
0.06400    68916992.00000000 43446616.00000000 109435616.00000000 35484.98828125  3104475.75000000 2463232.00000000 
0.06500    67363816.00000000 42479464.00000000 106983584.00000000 34462.10546875  3023825.25000000 2399490.25000000 
0.06600    65844000.00000000 41532608.00000000 104584760.00000000 33467.34765625  2945163.25000000 2337326.50000000 
0.06700    64358084.00000000 40606680.00000000 102238480.00000000 32500.51953125  2868501.00000000 2276703.50000000 
0.06800    62906752.00000000 39702572.00000000 99946448.00000000 31562.21679688  2793825.75000000 2217662.50000000 
0.06900    61489896.00000000 38819112.00000000 97710264.00000000 30652.25781250  2721173.25000000 2160162.75000000 
0.07000    60109120.00000000 37957564.00000000 95528344.00000000 29770.28906250  2650545.25000000 2104298.00000000 
0.07100    58763748.00000000 37118012.00000000 93401864.00000000 28916.81640625  2581982.50000000 2050032.50000000 
0.07200    57453788.00000000 36300748.00000000 91332376.00000000 28091.53125000  2515417.75000000 1997333.37500000 
0.07300    56179964.00000000 35505292.00000000 89319120.00000000 27293.71679688  2450873.50000000 1946253.00000000 
0.07400    54941812.00000000 34731976.00000000 87361944.00000000 26523.32421875  2388327.50000000 1896743.00000000 
0.07500    53739896.00000000 33980704.00000000 85461528.00000000 25780.18554688  2327815.00000000 1848791.87500000 
0.07600    52573312.00000000 33251840.00000000 83617008.00000000 25064.21484375  2269255.75000000 1802413.25000000 
0.07700    51442700.00000000 32544670.00000000 81829136.00000000 24374.14843750  2212686.00000000 1757580.25000000 
0.07800    50347472.00000000 31859652.00000000 80096104.00000000 23710.35742188  2158042.25000000 1714248.87500000 
0.07900    49286832.00000000 31196048.00000000 78418088.00000000 23071.75390625  2105304.00000000 1672448.25000000 
0.08000    48261196.00000000 30554232.00000000 76795008.00000000 22457.89062500  2054441.00000000 1632115.62500000 
0.08100    47269824.00000000 29933546.00000000 75225896.00000000 21868.42187500  2005405.12500000 1593231.50000000 
0.08200    46312376.00000000 29333832.00000000 73710240.00000000 21302.62304688  1958198.12500000 1555770.50000000 
0.08300    45387964.00000000 28754502.00000000 72246440.00000000 20759.66210938  1912735.62500000 1519714.00000000 
0.08400    44496384.00000000 28195984.00000000 70834664.00000000 20239.15820312  1868993.87500000 1484992.37500000 
0.08500    43636840.00000000 27657056.00000000 69474232.00000000 19740.08984375  1826950.37500000 1451615.00000000 
0.08600    42808560.00000000 27137694.00000000 68162096.00000000 19261.74023438  1786524.00000000 1419519.12500000 
0.08700    42011348.00000000 26637558.00000000 66898400.00000000 18803.72851562  1747695.12500000 1388671.75000000 
0.08800    41243532.00000000 26156026.00000000 65682476.00000000 18365.05273438  1710382.37500000 1359039.25000000 
0.08900    40505392.00000000 25692710.00000000 64512280.00000000 17944.90234375  1674558.62500000 1330568.50000000 
0.09000    39795224.00000000 25246946.00000000 63386884.00000000 17542.53710938  1640167.87500000 1303249.62500000 
0.09100    39112824.00000000 24818428.00000000 62305496.00000000 17157.45117188  1607152.25000000 1277005.37500000 
0.09200    38456756.00000000 24406684.00000000 61265392.00000000 16788.29687500  1575451.62500000 1251810.75000000 
0.09300    37826392.00000000 24010722.00000000 60266632.00000000 16434.87695312  1545029.87500000 1227620.87500000 
0.09400    37221052.00000000 23630400.00000000 59306752.00000000 16096.08593750  1515814.50000000 1204392.25000000 
0.09500    36639744.00000000 23265156.00000000 58385056.00000000 15771.10546875  1487756.75000000 1182083.37500000 
0.09600    36081184.00000000 22914228.00000000 57499176.00000000 15459.24414062  1460801.12500000 1160649.75000000 
0.09700    35544688.00000000 22577216.00000000 56648860.00000000 15159.92675781  1434894.00000000 1140039.50000000 
0.09800    35029400.00000000 22253480.00000000 55831616.00000000 14872.14453125  1409993.37500000 1120232.12500000 
0.09900    34534116.00000000 21942454.00000000 55046496.00000000 14595.42578125  1386015.62500000 1101159.12500000 
0.10000    34058076.00000000 21643414.00000000 54291740.00000000 14328.71875000  1362927.37500000 1082796.25000000 
0.10100    33600188.00000000 21355942.00000000 53565856.00000000 14071.58300781  1340676.00000000 1065084.12500000 
0.10200    33159342.00000000 21079190.00000000 52867568.00000000 13823.29101562  1319197.75000000 1047996.25000000 
0.10300    32734864.00000000 20812940.00000000 52194880.00000000 13583.26367188  1298436.87500000 1031491.62500000 
0.10400    32326048.00000000 20556350.00000000 51546896.00000000 13350.45898438  1278357.50000000 1015534.12500000 
0.10500    31931564.00000000 20308920.00000000 50922248.00000000 13124.88671875  1258926.25000000 1000067.87500000 
0.10600    31550640.00000000 20070204.00000000 50318856.00000000 12905.42675781  1240053.75000000 985070.18750000 
0.10700    31182444.00000000 19839524.00000000 49735980.00000000 12691.84472656  1221729.00000000 970500.25000000 
0.10800    30825798.00000000 19616094.00000000 49171304.00000000 12483.39355469  1203891.00000000 956327.37500000 
0.10900    30480252.00000000 19399990.00000000 48624420.00000000 12279.64355469  1186490.87500000 942507.37500000 
0.11000    30144844.00000000 19190054.00000000 48093432.00000000 12080.12695312  1169510.50000000 929016.18750000 
0.11100    29818616.00000000 18986028.00000000 47577808.00000000 11884.51953125  1152897.87500000 915816.81250000 
0.11200    29500864.00000000 18787522.00000000 47075184.00000000 11692.07226562  1136606.00000000 902888.68750000 
0.11300    29190658.00000000 18594094.00000000 46585324.00000000 11502.67968750  1120609.62500000 890195.37500000 
0.11400    28887752.00000000 18405150.00000000 46106664.00000000 11315.93652344  1104875.87500000 877708.75000000 
0.11500    28590948.00000000 18220108.00000000 45637972.00000000 11131.37988281  1089381.87500000 865410.62500000 
0.11600    28299664.00000000 18038810.00000000 45178396.00000000 10948.75195312  1074070.62500000 853274.68750000 
0.11700    28013528.00000000 17860770.00000000 44726552.00000000 10767.77539062  1058932.12500000 841276.68750000 
0.11800    27731426.00000000 17685442.00000000 44281856.00000000 10588.22949219  1043944.68750000 829394.68750000 
0.11900    27453448.00000000 17512682.00000000 43843288.00000000 10409.82421875  1029070.31250000 817607.87500000 
0.12000    27178348.00000000 17341932.00000000 43409216.00000000 10232.36230469  1014300.81250000 805905.93750000 
0.12100    26905884.00000000 17172920.00000000 42980520.00000000 10055.76269531  999607.06250000 794273.68750000 
0.12200    26635732.00000000 17005416.00000000 42554896.00000000 9879.82421875   984975.93750000 782683.75000000 
0.12300    26367242.00000000 16839018.00000000 42132172.00000000 9704.40722656   970381.12500000 771138.31250000 
0.12400    26100008.00000000 16673425.00000000 41711532.00000000 9529.40136719   955826.81250000 759615.87500000 
0.12500    25833670.00000000 16508516.00000000 41291936.00000000 9354.74511719   941282.50000000 748107.56250000 
0.12600    25567848.00000000 16344028.00000000 40874072.00000000 9180.48242188   926754.75000000 736610.81250000 
0.12700    25302208.00000000 16179665.00000000 40455868.00000000 9006.29101562   912212.25000000 725111.31250000 
0.12800    25036376.00000000 16015208.00000000 40037768.00000000 8832.47753906   897673.00000000 713602.18750000 
0.12900    24770292.00000000 15850703.00000000 39619176.00000000 8658.94238281   883110.62500000 702082.12500000 
0.13000    24503522.00000000 15685724.00000000 39199444.00000000 8485.60351562   868534.06250000 690546.62500000 
0.13100    24235996.00000000 15520323.00000000 38778908.00000000 8312.59472656   853930.43750000 679001.68750000 
0.13200    23967498.00000000 15354141.00000000 38356016.00000000 8139.91455078   839304.18750000 667426.87500000 
0.13300    23697782.00000000 15187327.00000000 37931992.00000000 7967.72558594   824663.12500000 655841.00000000 
0.13400    23426728.00000000 15019724.00000000 37505564.00000000 7795.95068359   809991.93750000 644236.68750000 
0.13500    23154420.00000000 14851099.00000000 37077064.00000000 7624.88183594   795304.62500000 632615.68750000 
0.13600    22880486.00000000 14681706.00000000 36646312.00000000 7454.37695312   780603.56250000 620978.62500000 
0.13700    22605310.00000000 14511234.00000000 36212884.00000000 7284.68066406   765889.93750000 609332.06250000 
0.13800    22328472.00000000 14339692.00000000 35777232.00000000 7115.94824219   751175.31250000 597679.50000000 
0.13900    22050262.00000000 14167211.00000000 35338928.00000000 6948.20019531   736461.50000000 586026.93750000 
0.14000    21770574.00000000 13993660.00000000 34898236.00000000 6781.66699219   721756.37500000 574382.56250000 
0.14100    21489312.00000000 13819235.00000000 34455088.00000000 6616.32519531   707073.31250000 562742.25000000 
0.14200    21206636.00000000 13643744.00000000 34009680.00000000 6452.40673828   692407.00000000 551127.00000000 
0.14300    20922838.00000000 13467354.00000000 33562092.00000000 6290.07617188   677783.62500000 539532.06250000 
0.14400    20637660.00000000 13290051.00000000 33112262.00000000 6129.39355469   663199.31250000 527969.81250000 
0.14500    20351432.00000000 13112026.00000000 32660780.00000000 5970.51318359   648674.37500000 516449.37500000 
0.14600    20064346.00000000 12933217.00000000 32207536.00000000 5813.57031250   634216.43750000 504974.78125000 
0.14700    19776228.00000000 12753710.00000000 31752850.00000000 5658.73681641   619830.81250000 493556.59375000 
0.14800    19487614.00000000 12573645.00000000 31296574.00000000 5506.07958984   605532.50000000 482205.59375000 
0.14900    19198472.00000000 12393031.00000000 30839522.00000000 5355.70312500   591331.93750000 470925.50000000 
0.15000    18908574.00000000 12212063.00000000 30381758.00000000 5207.82763672   577240.75000000 459729.03125000 
0.15100    18618860.00000000 12030866.00000000 29923248.00000000 5062.49902344   563269.87500000 448620.18750000 
0.15200    18329040.00000000 11849543.00000000 29464732.00000000 4919.81982422   549427.43750000 437612.09375000 
0.15300    18039426.00000000 11667991.00000000 29005956.00000000 4779.89160156   535728.06250000 426712.40625000 
0.15400    17750142.00000000 11486536.00000000 28547856.00000000 4642.85546875   522175.78125000 415925.34375000 
0.15500    17461358.00000000 11305269.00000000 28090208.00000000 4508.71728516   508789.03125000 405263.40625000 
0.15600    17173476.00000000 11124280.00000000 27633618.00000000 4377.63134766   495567.65625000 394731.90625000 
0.15700    16886542.00000000 10943773.00000000 27178452.00000000 4249.65771484   482533.37500000 384341.34375000 
0.15800    16600687.00000000 10763655.00000000 26724718.00000000 4124.77929688   469683.40625000 374091.46875000 
0.15900    16316242.00000000 10584282.00000000 26272840.00000000 4003.17871094   457030.68750000 364000.21875000 
0.16000    16033161.00000000 10405737.00000000 25823094.00000000 3884.79833984   444582.56250000 354062.46875000 
0.16100    15752100.00000000 10227998.00000000 25375986.00000000 3769.75048828   432353.46875000 344294.25000000 
0.16200    15472706.00000000 10051304.00000000 24931842.00000000 3658.05224609   420341.43750000 334695.15625000 
0.16300    15195620.00000000 9875779.00000000 24490592.00000000 3549.66210938   408557.84375000 325276.18750000 
0.16400    14920720.00000000 9701531.00000000 24052790.00000000 3444.63305664   397008.12500000 316035.65625000 
0.16500    14648269.00000000 9528688.00000000 23618724.00000000 3342.97290039   385690.90625000 306980.53125000 
0.16600    14378542.00000000 9357170.00000000 23188492.00000000 3244.70800781   374623.78125000 298115.15625000 
0.16700    14111554.00000000 9187352.00000000 22762550.00000000 3149.76245117   363798.93750000 289440.00000000 
0.16800    13847429.00000000 9019052.00000000 22340856.00000000 3058.10522461   353224.37500000 280964.78125000 
0.16900    13586532.00000000 8852668.00000000 21923992.00000000 2969.81835938   342907.28125000 272687.15625000 
0.17000    13328842.00000000 8688062.00000000 21512212.00000000 2884.78369141   332844.34375000 264612.68750000 
