# SAXS profile: number of points = 501, q_min = 0, q_max = 0.5, delta_q = 0.001
#    q    intensity 
0.00000    162233472.00000000 101202208.00000000 256271216.00000000 107267.59375000 8343385.00000000 6589572.50000000 
0.00100    162206736.00000000 101183720.00000000 256224320.00000000 107241.03906250 8341575.50000000 6588130.50000000 
0.00200    162121488.00000000 101129392.00000000 256087152.00000000 107161.65625000 8336196.00000000 6583891.50000000 
0.00300    161979312.00000000 101039056.00000000 255856048.00000000 107029.79687500 8327128.00000000 6576822.50000000 
0.00400    161774192.00000000 100913048.00000000 255535184.00000000 106844.50000000 8314528.00000000 6566940.00000000 
0.00500    161508512.00000000 100750816.00000000 255121776.00000000 106607.71093750 8298348.00000000 6554211.00000000 
0.00600    161184928.00000000 100552040.00000000 254612672.00000000 106318.47656250 8278642.00000000 6538702.50000000 
0.00700    160805424.00000000 100318720.00000000 254020400.00000000 105978.28906250 8255389.00000000 6520510.50000000 
0.00800    160363904.00000000 100051200.00000000 253335712.00000000 105587.43750000 8228673.00000000 6499509.50000000 
0.00900    159867872.00000000 99748528.00000000 252562880.00000000 105146.47656250 8198497.50000000 6475779.00000000 
0.01000    159319056.00000000 99411952.00000000 251700400.00000000 104656.07031250 8164949.00000000 6449480.00000000 
0.01100    158716496.00000000 99041208.00000000 250753120.00000000 104116.47656250 8128038.50000000 6420435.00000000 
0.01200    158058800.00000000 98635880.00000000 249720064.00000000 103528.98437500 8087831.00000000 6388870.50000000 
0.01300    157344576.00000000 98197840.00000000 248601424.00000000 102895.19531250 8044399.00000000 6354729.50000000 
0.01400    156577472.00000000 97727016.00000000 247402176.00000000 102216.07031250 7997823.50000000 6318108.50000000 
0.01500    155758976.00000000 97224344.00000000 246118576.00000000 101491.38281250 7948031.00000000 6279054.50000000 
0.01600    154891216.00000000 96690520.00000000 244757072.00000000 100723.57031250 7895303.50000000 6237607.00000000 
0.01700    153972432.00000000 96126512.00000000 243316032.00000000 99913.69531250  7839547.50000000 6193833.50000000 
0.01800    153004416.00000000 95532008.00000000 241800224.00000000 99062.30468750  7780987.00000000 6147757.50000000 
0.01900    151989488.00000000 94908840.00000000 240208208.00000000 98171.44531250  7719548.00000000 6099525.50000000 
0.02000    150928192.00000000 94256496.00000000 238544496.00000000 97242.31250000  7655475.50000000 6049121.50000000 
0.02100    149822288.00000000 93576512.00000000 236808848.00000000 96276.14843750  7588765.50000000 5996729.00000000 
0.02200    148671072.00000000 92869224.00000000 235004624.00000000 95274.81250000  7519457.50000000 5942262.00000000 
0.02300    147478464.00000000 92135912.00000000 233134592.00000000 94239.49218750  7447720.00000000 5885888.50000000 
0.02400    146243504.00000000 91377120.00000000 231198864.00000000 93172.24218750  7373707.00000000 5827716.00000000 
0.02500    144970144.00000000 90593160.00000000 229199360.00000000 92073.58593750  7297397.50000000 5767716.00000000 
0.02600    143658880.00000000 89786840.00000000 227143072.00000000 90946.26562500  7218963.50000000 5706083.00000000 
0.02700    142310192.00000000 88956688.00000000 225027584.00000000 89791.99218750  7138482.00000000 5642817.50000000 
0.02800    140927520.00000000 88105256.00000000 222855840.00000000 88611.96875000  7056104.00000000 5578012.50000000 
0.02900    139509408.00000000 87232392.00000000 220632112.00000000 87406.71093750  6971841.50000000 5511806.00000000 
0.03000    138059616.00000000 86340216.00000000 218356768.00000000 86180.15625000  6885962.00000000 5444224.50000000 
0.03100    136579920.00000000 85428672.00000000 216035536.00000000 84932.51562500  6798375.00000000 5375379.00000000 
0.03200    135072560.00000000 84499048.00000000 213666096.00000000 83666.27343750  6709334.00000000 5305344.00000000 
0.03300    133535976.00000000 83552336.00000000 211253360.00000000 82381.92187500  6618879.50000000 5234189.50000000 
0.03400    131974928.00000000 82589648.00000000 208800704.00000000 81082.59375000  6527164.00000000 5162014.50000000 
0.03500    130388848.00000000 81611936.00000000 206311408.00000000 79769.34375000  6434267.00000000 5088932.50000000 
0.03600    128780424.00000000 80620632.00000000 203785520.00000000 78443.81250000  6340286.00000000 5015022.00000000 
0.03700    127152400.00000000 79615784.00000000 201227648.00000000 77107.59375000  6245370.50000000 4940333.00000000 
0.03800    125504904.00000000 78598728.00000000 198639200.00000000 75762.71093750  6149595.00000000 4864976.50000000 
0.03900    123839728.00000000 77571952.00000000 196023216.00000000 74411.16406250  6053124.00000000 4789034.50000000 
0.04000    122158368.00000000 76533600.00000000 193380304.00000000 73053.38281250  5955976.00000000 4712588.00000000 
0.04100    120463352.00000000 75486568.00000000 190715104.00000000 71691.84375000  5858327.50000000 4635673.50000000 
0.04200    118756136.00000000 74430504.00000000 188028960.00000000 70327.25000000  5760186.00000000 4558425.50000000 
0.04300    117037144.00000000 73367880.00000000 185326976.00000000 68961.72656250  5661785.50000000 4480912.50000000 
0.04400    115309096.00000000 72299664.00000000 182609040.00000000 67596.85156250  5563136.00000000 4403234.00000000 
0.04500    113573272.00000000 71225312.00000000 179878464.00000000 66234.27343750  5464334.50000000 4325448.50000000 
0.04600    111830512.00000000 70147688.00000000 177137920.00000000 64874.25000000  5365489.50000000 4247620.00000000 
0.04700    110083360.00000000 69066680.00000000 174387456.00000000 63518.85937500  5266746.00000000 4169780.75000000 
0.04800    108333456.00000000 67982272.00000000 171631440.00000000 62169.85937500  5168097.50000000 4092089.75000000 
0.04900    106581048.00000000 66896456.00000000 168874960.00000000 60827.64453125  5069743.00000000 4014536.75000000 
0.05000    104828552.00000000 65810172.00000000 166114672.00000000 59493.96093750  4971667.00000000 3937280.00000000 
0.05100    103076800.00000000 64724328.00000000 163355632.00000000 58169.85156250  4874016.00000000 3860304.50000000 
0.05200    101326920.00000000 63639384.00000000 160600464.00000000 56856.56250000  4776841.00000000 3783695.50000000 
0.05300    99580928.00000000 62556128.00000000 157849456.00000000 55554.51953125  4680202.50000000 3707523.00000000 
0.05400    97839872.00000000 61475692.00000000 155106176.00000000 54265.48046875  4584236.50000000 3631832.00000000 
0.05500    96104832.00000000 60398728.00000000 152372800.00000000 52990.00000000  4488958.00000000 3556681.50000000 
0.05600    94377504.00000000 59325556.00000000 149649264.00000000 51729.12109375  4394456.00000000 3482132.75000000 
0.05700    92658560.00000000 58257776.00000000 146938928.00000000 50483.35937500  4300754.50000000 3408245.50000000 
0.05800    90949648.00000000 57195420.00000000 144244768.00000000 49253.69921875  4207984.50000000 3335048.00000000 
0.05900    89250952.00000000 56139148.00000000 141566912.00000000 48041.12500000  4116135.25000000 3262564.75000000 
0.06000    87564592.00000000 55090424.00000000 138906576.00000000 46845.57812500  4025309.25000000 3190888.75000000 
0.06100    85891144.00000000 54049056.00000000 136265568.00000000 45668.19921875  3935535.25000000 3120034.50000000 
0.06200    84231456.00000000 53015684.00000000 133646768.00000000 44509.57031250  3846881.00000000 3050022.00000000 
0.06300    82586304.00000000 51991520.00000000 131050624.00000000 43370.12500000  3759363.75000000 2980928.00000000 
0.06400    80956416.00000000 50976248.00000000 128477984.00000000 42250.16796875  3673019.50000000 2912751.75000000 
0.06500    79343336.00000000 49970980.00000000 125931560.00000000 41150.37500000  3587924.25000000 2845522.25000000 
0.06600    77747768.00000000 48976440.00000000 123411416.00000000 40070.58984375  3504065.00000000 2779277.50000000 
0.06700    76170120.00000000 47992340.00000000 120919976.00000000 39011.33984375  3421509.25000000 2714046.25000000 
0.06800    74611160.00000000 47019944.00000000 118457216.00000000 37973.10156250  3340268.50000000 2649856.25000000 
0.06900    73071496.00000000 46059064.00000000 116023808.00000000 36955.90625000  3260367.50000000 2586722.75000000 
0.07000    71551504.00000000 45110520.00000000 113623272.00000000 35960.13281250  3181851.00000000 2524623.75000000 
0.07100    70052856.00000000 44173792.00000000 111253840.00000000 34985.24609375  3104679.75000000 2463647.50000000 
0.07200    68574168.00000000 43250696.00000000 108915912.00000000 34031.98046875  3028922.75000000 2403735.00000000 
0.07300    67118224.00000000 42340340.00000000 106613960.00000000 33100.03515625  2954598.25000000 2344985.00000000 
0.07400    65683664.00000000 41443504.00000000 104344904.00000000 32189.23828125  2881679.25000000 2287274.25000000 
0.07500    64271460.00000000 40560556.00000000 102111536.00000000 31300.07421875  2810199.50000000 2230745.75000000 
0.07600    62882056.00000000 39691188.00000000 99913672.00000000 30431.91015625  2740168.00000000 2175307.00000000 
0.07700    61515884.00000000 38836392.00000000 97751880.00000000 29585.11523438  2671566.50000000 2121029.50000000 
0.07800    60172816.00000000 37995612.00000000 95627520.00000000 28759.10546875  2604411.75000000 2067878.75000000 
0.07900    58853560.00000000 37169680.00000000 93539624.00000000 27953.84375000  2538664.50000000 2015863.62500000 
0.08000    57558044.00000000 36358320.00000000 91489344.00000000 27169.28320312  2474387.00000000 1964959.25000000 
0.08100    56286592.00000000 35561772.00000000 89476416.00000000 26405.09179688  2411545.25000000 1915190.25000000 
0.08200    55039316.00000000 34780240.00000000 87501928.00000000 25660.98828125  2350111.25000000 1866548.12500000 
0.08300    53816380.00000000 34013792.00000000 85565272.00000000 24936.75390625  2290083.75000000 1818997.87500000 
0.08400    52617576.00000000 33262486.00000000 83666616.00000000 24231.95117188  2231465.75000000 1772574.25000000 
0.08500    51443168.00000000 32526000.00000000 81806616.00000000 23546.65820312  2174253.00000000 1727234.00000000 
0.08600    50293100.00000000 31804654.00000000 79984952.00000000 22879.88867188  2118407.50000000 1682981.37500000 
0.08700    49167408.00000000 31098614.00000000 78202128.00000000 22231.84960938  2063927.50000000 1639800.25000000 
0.08800    48065948.00000000 30407496.00000000 76457096.00000000 21601.87304688  2010783.25000000 1597684.75000000 
0.08900    46988688.00000000 29731694.00000000 74749672.00000000 20989.93164062  1958970.25000000 1556612.62500000 
0.09000    45935532.00000000 29070828.00000000 73081616.00000000 20395.31445312  1908465.00000000 1516567.75000000 
0.09100    44906576.00000000 28424850.00000000 71451048.00000000 19817.75000000  1859249.75000000 1477546.87500000 
0.09200    43901144.00000000 27793830.00000000 69857736.00000000 19256.92578125  1811299.50000000 1439524.50000000 
0.09300    42919652.00000000 27177750.00000000 68302208.00000000 18712.57617188  1764602.50000000 1402483.37500000 
0.09400    41961460.00000000 26576244.00000000 66784232.00000000 18184.12304688  1719124.87500000 1366401.12500000 
0.09500    41026584.00000000 25989264.00000000 65302344.00000000 17671.05859375  1674845.62500000 1331269.87500000 
0.09600    40114740.00000000 25416928.00000000 63857228.00000000 17173.08007812  1631748.12500000 1297084.12500000 
0.09700    39225124.00000000 24858634.00000000 62448208.00000000 16689.88671875  1589805.12500000 1263800.37500000 
0.09800    38358984.00000000 24314404.00000000 61074884.00000000 16221.06445312  1548997.37500000 1231412.50000000 
0.09900    37514776.00000000 23784594.00000000 59736400.00000000 15766.22363281  1509296.37500000 1199905.37500000 
0.10000    36691936.00000000 23268344.00000000 58433396.00000000 15324.95703125  1470668.87500000 1169239.12500000 
0.10100    35891384.00000000 22765428.00000000 57164528.00000000 14896.84863281  1433115.00000000 1139427.37500000 
0.10200    35111940.00000000 22276246.00000000 55929212.00000000 14481.59375000  1396586.50000000 1110426.75000000 
0.10300    34353128.00000000 21800256.00000000 54727152.00000000 14078.63281250  1361082.00000000 1082224.00000000 
0.10400    33615304.00000000 21337266.00000000 53558044.00000000 13687.88964844  1326540.37500000 1054800.62500000 
0.10500    32897982.00000000 20887054.00000000 52421220.00000000 13308.91894531  1292980.62500000 1028146.06250000 
0.10600    32200322.00000000 20449434.00000000 51316136.00000000 12941.17968750  1260333.87500000 1002215.75000000 
0.10700    31522302.00000000 20024142.00000000 50241824.00000000 12584.49804688  1228619.00000000 977024.31250000 
0.10800    30863234.00000000 19611086.00000000 49198260.00000000 12238.57910156  1197784.00000000 952525.18750000 
0.10900    30223124.00000000 19209706.00000000 48184584.00000000 11903.00585938  1167820.37500000 928721.37500000 
0.11000    29601470.00000000 18820078.00000000 47199820.00000000 11577.52636719  1138694.75000000 905579.56250000 
0.11100    28997724.00000000 18441820.00000000 46243960.00000000 11261.75097656  1110383.00000000 883084.81250000 
0.11200    28411622.00000000 18074770.00000000 45316028.00000000 10955.42675781  1082870.62500000 861218.75000000 
0.11300    27842630.00000000 17718624.00000000 44415288.00000000 10658.35156250  1056139.00000000 839966.37500000 
0.11400    27290454.00000000 17372974.00000000 43541752.00000000 10370.12500000  1030153.50000000 819318.43750000 
0.11500    26754966.00000000 17037848.00000000 42694288.00000000 10090.45507812  1004901.62500000 799250.12500000 
0.11600    26235360.00000000 16712773.00000000 41872256.00000000 9819.17675781   980361.50000000 779737.37500000 
0.11700    25731308.00000000 16397672.00000000 41074792.00000000 9556.04882812   956507.37500000 760774.18750000 
0.11800    25242430.00000000 16092051.00000000 40301760.00000000 9300.63867188   933323.25000000 742337.18750000 
0.11900    24768298.00000000 15795987.00000000 39552160.00000000 9052.89257812   910785.18750000 724417.93750000 
0.12000    24308742.00000000 15508851.00000000 38825460.00000000 8812.49316406   888874.62500000 706994.25000000 
0.12100    23863068.00000000 15230712.00000000 38121064.00000000 8579.35937500   867581.81250000 690061.87500000 
0.12200    23431008.00000000 14961084.00000000 37438360.00000000 8353.08984375   846886.50000000 673601.62500000 
0.12300    23012024.00000000 14699799.00000000 36776140.00000000 8133.56640625   826758.50000000 657592.62500000 
0.12400    22605950.00000000 14446651.00000000 36134720.00000000 7920.55468750   807194.31250000 642028.00000000 
0.12500    22212082.00000000 14201191.00000000 35512788.00000000 7713.87402344   788161.75000000 626887.43750000 
0.12600    21830666.00000000 13963559.00000000 34910520.00000000 7513.35107422   769660.50000000 612168.25000000 
0.12700    21460440.00000000 13733041.00000000 34325908.00000000 7318.80468750   751670.93750000 597851.37500000 
0.12800    21101446.00000000 13509750.00000000 33759800.00000000 7129.98339844   734170.87500000 583927.12500000 
0.12900    20753624.00000000 13293291.00000000 33210350.00000000 6946.85888672   717149.43750000 570382.31250000 
0.13000    20416000.00000000 13083439.00000000 32678016.00000000 6769.17871094   700589.00000000 557203.62500000 
0.13100    20088646.00000000 12879949.00000000 32161586.00000000 6596.68066406   684469.50000000 544378.62500000 
0.13200    19771062.00000000 12682417.00000000 31660410.00000000 6429.33447266   668795.31250000 531895.68750000 
0.13300    19462622.00000000 12490986.00000000 31174512.00000000 6267.00585938   653538.43750000 519752.21875000 
0.13400    19163430.00000000 12305250.00000000 30702648.00000000 6109.49316406   638686.37500000 507930.28125000 
0.13500    18872852.00000000 12124943.00000000 30244722.00000000 5956.67724609   624230.62500000 496420.28125000 
0.13600    18590722.00000000 11949791.00000000 29799872.00000000 5808.37744141   610154.75000000 485212.84375000 
0.13700    18316620.00000000 11779703.00000000 29367924.00000000 5664.42578125   596451.37500000 474296.09375000 
0.13800    18049994.00000000 11614343.00000000 28947864.00000000 5524.77539062   583098.00000000 463664.28125000 
0.13900    17790940.00000000 11453683.00000000 28539620.00000000 5389.25537109   570093.06250000 453310.46875000 
0.14000    17538826.00000000 11297347.00000000 28142574.00000000 5257.75097656   557428.87500000 443220.28125000 
0.14100    17293364.00000000 11145190.00000000 27755866.00000000 5130.06787109   545086.18750000 433387.37500000 
0.14200    17054682.00000000 10996990.00000000 27379510.00000000 5006.17968750   533052.00000000 423804.09375000 
0.14300    16821850.00000000 10852701.00000000 27012910.00000000 4885.91064453   521322.90625000 414457.46875000 
0.14400    16594844.00000000 10711940.00000000 26655232.00000000 4769.13916016   509884.12500000 405343.31250000 
0.14500    16373598.00000000 10574663.00000000 26306530.00000000 4655.80322266   498727.34375000 396456.25000000 
0.14600    16157474.00000000 10440575.00000000 25966104.00000000 4545.67773438   487845.40625000 387783.78125000 
0.14700    15946480.00000000 10309665.00000000 25633434.00000000 4438.76904297   477230.03125000 379324.43750000 
0.14800    15740208.00000000 10181619.00000000 25308334.00000000 4334.90966797   466862.43750000 371065.25000000 
0.14900    15538543.00000000 10056298.00000000 24990284.00000000 4233.99853516   456744.21875000 362998.96875000 
0.15000    15341019.00000000 9933684.00000000 24678794.00000000 4135.94970703   446863.75000000 355124.68750000 
0.15100    15147614.00000000 9813472.00000000 24373810.00000000 4040.61987305   437208.81250000 347430.25000000 
0.15200    14957977.00000000 9695510.00000000 24074686.00000000 3947.99682617   427783.21875000 339914.34375000 
0.15300    14772084.00000000 9579828.00000000 23781040.00000000 3857.92700195   418563.87500000 332566.21875000 
0.15400    14589342.00000000 9465937.00000000 23492840.00000000 3770.27465820   409550.12500000 325381.15625000 
0.15500    14409974.00000000 9354093.00000000 23209250.00000000 3685.02368164   400737.78125000 318353.71875000 
0.15600    14233401.00000000 9243975.00000000 22930368.00000000 3602.00463867   392113.31250000 311474.96875000 
0.15700    14059786.00000000 9135575.00000000 22655808.00000000 3521.24975586   383675.87500000 304749.84375000 
0.15800    13888610.00000000 9028619.00000000 22385202.00000000 3442.52270508   375414.18750000 298161.25000000 
0.15900    13720035.00000000 8923128.00000000 22118482.00000000 3365.90014648   367325.90625000 291711.31250000 
0.16000    13553526.00000000 8818868.00000000 21854930.00000000 3291.18212891   359400.15625000 285392.03125000 
0.16100    13389362.00000000 8715926.00000000 21594786.00000000 3218.38549805   351639.09375000 279199.31250000 
0.16200    13227043.00000000 8614090.00000000 21337702.00000000 3147.38525391   344027.25000000 273131.03125000 
0.16300    13066634.00000000 8513220.00000000 21083268.00000000 3078.11816406   336565.40625000 267181.46875000 
0.16400    12907816.00000000 8413368.00000000 20831462.00000000 3010.53833008   329248.75000000 261344.51562500 
0.16500    12750645.00000000 8314395.50000000 20581788.00000000 2944.56835938   322067.53125000 255619.25000000 
0.16600    12594928.00000000 8216166.00000000 20334474.00000000 2880.16796875   315023.75000000 249997.78125000 
0.16700    12440538.00000000 8118632.50000000 20089108.00000000 2817.22241211   308102.84375000 244479.18750000 
0.16800    12287302.00000000 8021779.00000000 19845530.00000000 2755.75878906   301310.96875000 239060.89062500 
0.16900    12135334.00000000 7925613.00000000 19603668.00000000 2695.70068359   294645.25000000 233741.57812500 
0.17000    11984311.00000000 7829926.00000000 19363086.00000000 2636.97998047   288091.34375000 228512.17187500 
