# SAXS profile: number of points = 501, q_min = 0, q_max = 0.5, delta_q = 0.001
#    q    intensity 
0.00000    162233360.00000000 101202472.00000000 256269712.00000000 104755.45312500 8245084.00000000 6511968.00000000 
0.00100    162195408.00000000 101176808.00000000 256206176.00000000 104721.61718750 8242736.00000000 6510078.50000000 
0.00200    162077632.00000000 101100584.00000000 256011600.00000000 104619.01562500 8235488.00000000 6504413.50000000 
0.00300    161873856.00000000 100973608.00000000 255688352.00000000 104448.79687500 8223473.50000000 6494958.00000000 
0.00400    161585408.00000000 100795784.00000000 255235104.00000000 104210.69531250 8206722.00000000 6481804.00000000 
0.00500    161212336.00000000 100567576.00000000 254654416.00000000 103905.35937500 8185207.00000000 6464901.00000000 
0.00600    160760112.00000000 100288896.00000000 253946816.00000000 103533.75000000 8158971.00000000 6444348.00000000 
0.00700    160225440.00000000 99962440.00000000 253117312.00000000 103097.14843750 8128184.50000000 6420108.50000000 
0.00800    159612336.00000000 99588360.00000000 252159536.00000000 102596.06250000 8092839.50000000 6392358.50000000 
0.00900    158925984.00000000 99166328.00000000 251078384.00000000 102031.58593750 8052941.00000000 6361063.00000000 
0.01000    158165616.00000000 98696048.00000000 249879200.00000000 101405.53125000 8008673.00000000 6326297.00000000 
0.01100    157326624.00000000 98178784.00000000 248562336.00000000 100718.81250000 7960079.00000000 6288130.50000000 
0.01200    156411888.00000000 97616360.00000000 247130032.00000000 99973.07812500  7907254.50000000 6246634.50000000 
0.01300    155425360.00000000 97009392.00000000 245584384.00000000 99170.00000000  7850356.00000000 6201920.00000000 
0.01400    154370496.00000000 96359488.00000000 243927696.00000000 98312.41406250  7789515.50000000 6154091.00000000 
0.01500    153247376.00000000 95668472.00000000 242164512.00000000 97400.67187500  7724780.50000000 6103221.00000000 
0.01600    152058384.00000000 94936216.00000000 240297408.00000000 96437.72656250  7656274.00000000 6049417.50000000 
0.01700    150803312.00000000 94164424.00000000 238328896.00000000 95425.79687500  7584252.50000000 5992785.00000000 
0.01800    149487312.00000000 93353536.00000000 236263856.00000000 94366.67187500  7508736.00000000 5933451.50000000 
0.01900    148112864.00000000 92506608.00000000 234105680.00000000 93263.34375000  7429940.00000000 5871526.00000000 
0.02000    146681296.00000000 91624224.00000000 231858208.00000000 92118.26562500  7348004.50000000 5807147.00000000 
0.02100    145193968.00000000 90708200.00000000 229522784.00000000 90932.61718750  7263077.00000000 5740364.50000000 
0.02200    143655696.00000000 89758872.00000000 227107040.00000000 89709.33593750  7175331.00000000 5671455.00000000 
0.02300    142066656.00000000 88780304.00000000 224611872.00000000 88452.17187500  7084944.00000000 5600321.00000000 
0.02400    140432736.00000000 87771984.00000000 222043760.00000000 87162.39843750  6992112.50000000 5527347.50000000 
0.02500    138753488.00000000 86736040.00000000 219407984.00000000 85843.61718750  6896978.00000000 5452495.50000000 
0.02600    137034000.00000000 85674392.00000000 216705248.00000000 84497.54687500  6799693.50000000 5376030.50000000 
0.02700    135274640.00000000 84589376.00000000 213942288.00000000 83127.83593750  6700433.50000000 5297919.00000000 
0.02800    133481936.00000000 83482088.00000000 211124112.00000000 81736.35156250  6599483.50000000 5218483.50000000 
0.02900    131656096.00000000 82354016.00000000 208252768.00000000 80326.30468750  6496834.50000000 5137717.00000000 
0.03000    129799688.00000000 81206752.00000000 205333872.00000000 78899.53906250  6392814.50000000 5055875.00000000 
0.03100    127917080.00000000 80043360.00000000 202374400.00000000 77459.35156250  6287582.00000000 4973040.00000000 
0.03200    126009824.00000000 78864936.00000000 199374624.00000000 76008.88281250  6181184.50000000 4889340.50000000 
0.03300    124082464.00000000 77673040.00000000 196343040.00000000 74548.74218750  6074008.00000000 4804920.50000000 
0.03400    122135984.00000000 76469744.00000000 193281952.00000000 73083.10937500  5966086.50000000 4719957.00000000 
0.03500    120174312.00000000 75256688.00000000 190196240.00000000 71614.08593750  5857596.50000000 4634514.00000000 
0.03600    118200144.00000000 74034496.00000000 187090992.00000000 70143.71093750  5748742.50000000 4548766.50000000 
0.03700    116216200.00000000 72805592.00000000 183966720.00000000 68674.46875000  5639642.00000000 4462841.00000000 
0.03800    114224584.00000000 71572208.00000000 180832432.00000000 67208.28125000  5530493.50000000 4376804.50000000 
0.03900    112228920.00000000 70335488.00000000 177690144.00000000 65747.84375000  5421398.00000000 4290914.00000000 
0.04000    110231600.00000000 69096672.00000000 174544848.00000000 64294.30468750  5312579.00000000 4205109.00000000 
0.04100    108234792.00000000 67858288.00000000 171400352.00000000 62850.75000000  5204146.00000000 4119621.25000000 
0.04200    106241664.00000000 66621644.00000000 168258960.00000000 61418.63671875  5096269.00000000 4034538.25000000 
0.04300    104253720.00000000 65387788.00000000 165125808.00000000 59999.60156250  4988986.50000000 3949960.50000000 
0.04400    102273088.00000000 64158376.00000000 162004928.00000000 58595.51171875  4882523.00000000 3866014.00000000 
0.04500    100303184.00000000 62934956.00000000 158900528.00000000 57208.06250000  4776995.00000000 3782747.00000000 
0.04600    98346232.00000000 61718696.00000000 155813792.00000000 55838.14453125  4672466.50000000 3700271.25000000 
0.04700    96403808.00000000 60510984.00000000 152749328.00000000 54487.97265625  4569087.00000000 3618692.75000000 
0.04800    94476864.00000000 59313004.00000000 149712128.00000000 53157.92578125  4466943.50000000 3538076.75000000 
0.04900    92568304.00000000 58126040.00000000 146701120.00000000 51850.19531250  4366132.00000000 3458513.75000000 
0.05000    90680416.00000000 56950620.00000000 143722528.00000000 50564.69531250  4266733.00000000 3380045.75000000 
0.05100    88814040.00000000 55788812.00000000 140777152.00000000 49303.70703125  4168863.50000000 3302753.25000000 
0.05200    86971136.00000000 54641076.00000000 137869248.00000000 48066.50781250  4072592.50000000 3226711.50000000 
0.05300    85153400.00000000 53508208.00000000 134999616.00000000 46855.23437500  3977965.00000000 3151951.75000000 
0.05400    83362968.00000000 52391508.00000000 132171200.00000000 45669.61328125  3885045.00000000 3078533.00000000 
0.05500    81599272.00000000 51292132.00000000 129385736.00000000 44510.79687500  3793920.75000000 3006519.50000000 
0.05600    79864712.00000000 50209560.00000000 126645232.00000000 43378.57421875  3704595.75000000 2935904.25000000 
0.05700    78160104.00000000 49145660.00000000 123951984.00000000 42274.11718750  3617154.25000000 2866766.25000000 
0.05800    76485864.00000000 48100952.00000000 121307008.00000000 41196.86718750  3531610.75000000 2799134.75000000 
0.05900    74844552.00000000 47075340.00000000 118711176.00000000 40147.30468750  3447997.75000000 2733015.00000000 
0.06000    73235288.00000000 46070272.00000000 116167384.00000000 39125.68750000  3366325.00000000 2668400.50000000 
0.06100    71660080.00000000 45085168.00000000 113676520.00000000 38131.70703125  3286619.75000000 2605350.50000000 
0.06200    70118160.00000000 44121392.00000000 111238024.00000000 37165.31640625  3208935.00000000 2543864.50000000 
0.06300    68611328.00000000 43178572.00000000 108854192.00000000 36226.23437500  3133202.50000000 2483953.00000000 
0.06400    67138744.00000000 42256976.00000000 106524872.00000000 35314.66406250  3059466.75000000 2425589.75000000 
0.06500    65701788.00000000 41357272.00000000 104250768.00000000 34429.90625000  2987715.50000000 2368779.25000000 
0.06600    64300568.00000000 40479856.00000000 102032472.00000000 33571.41406250  2917966.00000000 2313553.75000000 
0.06700    62933892.00000000 39624072.00000000 99869976.00000000 32739.16406250  2850136.25000000 2259871.25000000 
0.06800    61603376.00000000 38790672.00000000 97764104.00000000 31932.61132812  2784263.25000000 2207695.50000000 
0.06900    60308692.00000000 37978824.00000000 95714520.00000000 31151.25195312  2720320.75000000 2157028.50000000 
0.07000    59048968.00000000 37189824.00000000 93719568.00000000 30394.59960938  2658257.00000000 2107896.00000000 
0.07100    57824912.00000000 36422276.00000000 91781032.00000000 29661.66992188  2598075.25000000 2060215.25000000 
0.07200    56635976.00000000 35676892.00000000 89897104.00000000 28952.20898438  2539699.00000000 2013999.75000000 
0.07300    55481320.00000000 34952704.00000000 88069312.00000000 28265.29882812  2483120.00000000 1969182.62500000 
0.07400    54361124.00000000 34250376.00000000 86295424.00000000 27600.51757812  2428322.75000000 1925757.87500000 
0.07500    53275240.00000000 33568976.00000000 84574008.00000000 26957.08398438  2375207.25000000 1883689.50000000 
0.07600    52222028.00000000 32909122.00000000 82907984.00000000 26333.99023438  2323770.50000000 1842944.25000000 
0.07700    51201968.00000000 32269406.00000000 81291920.00000000 25730.96484375  2273954.75000000 1803461.87500000 
0.07800    50214576.00000000 31650020.00000000 79726848.00000000 25147.05078125  2225720.50000000 1765266.12500000 
0.07900    49258560.00000000 31050528.00000000 78212792.00000000 24581.46093750  2178986.00000000 1728262.75000000 
0.08000    48333072.00000000 30470502.00000000 76747312.00000000 24033.48437500  2133775.50000000 1692417.87500000 
0.08100    47438320.00000000 29909334.00000000 75330232.00000000 23502.48828125  2089991.37500000 1657732.75000000 
0.08200    46572708.00000000 29366940.00000000 73959360.00000000 22987.72265625  2047572.62500000 1624118.12500000 
0.08300    45735452.00000000 28842746.00000000 72634840.00000000 22488.47265625  2006457.25000000 1591557.87500000 
0.08400    44926484.00000000 28336156.00000000 71354464.00000000 22004.01367188  1966612.50000000 1560021.37500000 
0.08500    44145064.00000000 27846622.00000000 70116656.00000000 21533.54296875  1928015.00000000 1529445.62500000 
0.08600    43388768.00000000 27373660.00000000 68921576.00000000 21076.71679688  1890571.00000000 1499805.50000000 
0.08700    42658516.00000000 26917024.00000000 67766016.00000000 20632.49804688  1854253.75000000 1471046.25000000 
0.08800    41952816.00000000 26475804.00000000 66649728.00000000 20200.61132812  1819009.37500000 1443158.37500000 
0.08900    41270172.00000000 26049592.00000000 65571660.00000000 19780.17968750  1784773.12500000 1416069.87500000 
0.09000    40610644.00000000 25637854.00000000 64529200.00000000 19370.91992188  1751523.37500000 1389745.62500000 
0.09100    39973012.00000000 25240168.00000000 63521824.00000000 18971.91015625  1719187.12500000 1364168.87500000 
0.09200    39356044.00000000 24855482.00000000 62547668.00000000 18582.69531250  1687719.75000000 1339279.25000000 
0.09300    38759640.00000000 24484026.00000000 61606008.00000000 18203.19335938  1657105.50000000 1315068.00000000 
0.09400    38181740.00000000 24124834.00000000 60694820.00000000 17832.54492188  1627280.87500000 1291468.62500000 
0.09500    37622696.00000000 23777214.00000000 59812768.00000000 17470.18945312  1598209.25000000 1268482.50000000 
0.09600    37081192.00000000 23440738.00000000 58958984.00000000 17116.19335938  1569825.12500000 1246051.25000000 
0.09700    36555968.00000000 23115060.00000000 58131964.00000000 16769.73828125  1542120.25000000 1224162.87500000 
0.09800    36046876.00000000 22799608.00000000 57330124.00000000 16430.46289062  1515058.37500000 1202761.37500000 
0.09900    35552760.00000000 22493582.00000000 56552364.00000000 16098.35742188  1488594.12500000 1181837.25000000 
0.10000    35072720.00000000 22196908.00000000 55797092.00000000 15772.76464844  1462669.50000000 1161359.37500000 
0.10100    34606388.00000000 21908660.00000000 55063844.00000000 15453.76269531  1437291.25000000 1141305.12500000 
0.10200    34152404.00000000 21628706.00000000 54350748.00000000 15140.54589844  1412420.62500000 1121657.50000000 
0.10300    33710212.00000000 21356230.00000000 53656412.00000000 14833.27441406  1388012.75000000 1102375.75000000 
0.10400    33279744.00000000 21091194.00000000 52980416.00000000 14531.53125000  1364060.62500000 1083451.75000000 
0.10500    32859862.00000000 20832848.00000000 52321320.00000000 14235.47753906  1340528.25000000 1064852.25000000 
0.10600    32449432.00000000 20580660.00000000 51678352.00000000 13944.32128906  1317390.75000000 1046582.93750000 
0.10700    32048654.00000000 20334438.00000000 51049612.00000000 13658.39160156  1294634.00000000 1028601.43750000 
0.10800    31656264.00000000 20093960.00000000 50434872.00000000 13377.38867188  1272237.12500000 1010891.87500000 
0.10900    31272226.00000000 19858392.00000000 49833112.00000000 13101.01953125  1250176.00000000 993459.87500000 
0.11000    30895584.00000000 19627698.00000000 49243576.00000000 12829.47753906  1228447.00000000 976281.31250000 
0.11100    30525906.00000000 19401434.00000000 48665144.00000000 12562.47460938  1207014.50000000 959346.18750000 
0.11200    30162328.00000000 19179324.00000000 48096452.00000000 12299.75585938  1185880.37500000 942629.00000000 
0.11300    29805358.00000000 18960924.00000000 47537344.00000000 12041.66699219  1165029.25000000 926146.18750000 
0.11400    29453818.00000000 18745950.00000000 46987716.00000000 11787.72851562  1144444.75000000 909860.68750000 
0.11500    29107226.00000000 18534392.00000000 46446064.00000000 11538.02050781  1124137.50000000 893782.62500000 
0.11600    28765464.00000000 18325586.00000000 45911080.00000000 11292.61523438  1104063.62500000 877906.75000000 
0.11700    28428010.00000000 18119542.00000000 45383488.00000000 11051.31542969  1084237.12500000 862218.25000000 
0.11800    28094334.00000000 17915898.00000000 44861704.00000000 10814.00585938  1064653.75000000 846700.56250000 
0.11900    27764578.00000000 17714478.00000000 44346020.00000000 10580.78515625  1045284.81250000 831370.00000000 
0.12000    27437962.00000000 17515060.00000000 43835676.00000000 10351.53906250  1026157.43750000 816207.68750000 
0.12100    27114606.00000000 17317528.00000000 43329628.00000000 10126.34179688  1007250.37500000 801222.18750000 
0.12200    26794164.00000000 17121506.00000000 42828196.00000000 9905.04199219   988563.56250000 786405.43750000 
0.12300    26476060.00000000 16927150.00000000 42330312.00000000 9687.74121094   970089.75000000 771757.87500000 
0.12400    26160446.00000000 16734044.00000000 41836508.00000000 9474.22363281   951825.81250000 757265.06250000 
0.12500    25847038.00000000 16542067.00000000 41345680.00000000 9264.60058594   933772.93750000 742940.68750000 
0.12600    25535588.00000000 16351340.00000000 40857992.00000000 9058.80664062   915939.00000000 728780.81250000 
0.12700    25225996.00000000 16161565.00000000 40372768.00000000 8856.75878906   898311.93750000 714776.31250000 
0.12800    24918150.00000000 15972503.00000000 39889872.00000000 8658.49414062   880892.50000000 700941.43750000 
0.12900    24611728.00000000 15784363.00000000 39409984.00000000 8463.92187500   863681.12500000 687262.06250000 
0.13000    24306974.00000000 15596932.00000000 38931352.00000000 8273.02636719   846679.87500000 673745.68750000 
0.13100    24003544.00000000 15410072.00000000 38454688.00000000 8085.76464844   829886.56250000 660390.12500000 
0.13200    23701258.00000000 15223868.00000000 37980268.00000000 7902.17333984   813308.37500000 647197.62500000 
0.13300    23400454.00000000 15038207.00000000 37507328.00000000 7722.10351562   796932.93750000 634163.06250000 
0.13400    23100676.00000000 14853218.00000000 37036292.00000000 7545.51269531   780773.06250000 621299.75000000 
0.13500    22802148.00000000 14668578.00000000 36565936.00000000 7372.42236328   764822.62500000 608598.06250000 
0.13600    22504586.00000000 14484259.00000000 36097972.00000000 7202.77587891   749086.68750000 596062.50000000 
0.13700    22208320.00000000 14300768.00000000 35631224.00000000 7036.47753906   733559.68750000 583688.93750000 
0.13800    21913126.00000000 14117392.00000000 35165684.00000000 6873.53955078   718243.18750000 571485.12500000 
0.13900    21619046.00000000 13934679.00000000 34701892.00000000 6713.85156250   703148.12500000 559446.06250000 
0.14000    21326202.00000000 13752311.00000000 34239540.00000000 6557.41015625   688258.31250000 547575.37500000 
0.14100    21034168.00000000 13570539.00000000 33778488.00000000 6404.16503906   673595.31250000 535878.75000000 
0.14200    20743470.00000000 13389176.00000000 33319124.00000000 6254.01855469   659142.25000000 524347.68750000 
0.14300    20454238.00000000 13208436.00000000 32861804.00000000 6106.96630859   644903.87500000 512983.59375000 
0.14400    20165852.00000000 13027992.00000000 32405256.00000000 5962.92089844   630880.18750000 501791.56250000 
0.14500    19878898.00000000 12848373.00000000 31951118.00000000 5821.82763672   617075.18750000 490771.43750000 
0.14600    19593298.00000000 12669227.00000000 31498590.00000000 5683.70068359   603483.25000000 479919.34375000 
0.14700    19309064.00000000 12490870.00000000 31048264.00000000 5548.44140625   590109.50000000 469239.59375000 
0.14800    19026158.00000000 12313063.00000000 30599676.00000000 5415.96484375   576947.87500000 458732.87500000 
0.14900    18744842.00000000 12136058.00000000 30153230.00000000 5286.24121094   564001.50000000 448388.46875000 
0.15000    18465096.00000000 11959822.00000000 29708954.00000000 5159.25976562   551269.37500000 438220.96875000 
0.15100    18187056.00000000 11784369.00000000 29267034.00000000 5034.99267578   538747.62500000 428218.90625000 
0.15200    17910576.00000000 11609773.00000000 28827592.00000000 4913.32177734   526446.06250000 418390.59375000 
0.15300    17635906.00000000 11436222.00000000 28390926.00000000 4794.22021484   514354.81250000 408729.78125000 
0.15400    17362890.00000000 11263484.00000000 27956628.00000000 4677.68603516   502464.37500000 399237.00000000 
0.15500    17092056.00000000 11091815.00000000 27525072.00000000 4563.66503906   490792.46875000 389909.31250000 
0.15600    16822904.00000000 10921186.00000000 27096642.00000000 4452.13378906   479325.75000000 380745.53125000 
0.15700    16556388.00000000 10751706.00000000 26671128.00000000 4343.02978516   468066.78125000 371752.43750000 
0.15800    16291287.00000000 10583362.00000000 26248692.00000000 4236.28076172   457011.18750000 362917.18750000 
0.15900    16028638.00000000 10416315.00000000 25829724.00000000 4131.96533203   446161.00000000 354250.84375000 
0.16000    15768016.00000000 10250407.00000000 25413820.00000000 4029.96850586   435511.53125000 345744.15625000 
0.16100    15509943.00000000 10085819.00000000 25001486.00000000 3930.29809570   425068.90625000 337399.84375000 
0.16200    15254029.00000000 9922563.00000000 24592784.00000000 3832.89428711   414822.06250000 329215.28125000 
0.16300    15000559.00000000 9760850.00000000 24187810.00000000 3737.76220703   404772.28125000 321187.87500000 
0.16400    14749701.00000000 9600541.00000000 23786780.00000000 3644.88354492   394920.65625000 313318.21875000 
0.16500    14501229.00000000 9441653.00000000 23389572.00000000 3554.21948242   385259.28125000 305604.15625000 
0.16600    14255393.00000000 9284413.00000000 22996380.00000000 3465.74609375   375795.53125000 298043.34375000 
0.16700    14012206.00000000 9128727.00000000 22607164.00000000 3379.43994141   366517.15625000 290633.59375000 
0.16800    13771765.00000000 8974547.00000000 22222016.00000000 3295.27709961   357422.53125000 283373.43750000 
0.16900    13534116.00000000 8822129.00000000 21841424.00000000 3213.26489258   348522.75000000 276265.68750000 
0.17000    13299216.00000000 8671327.00000000 21465158.00000000 3133.33813477   339805.15625000 269304.00000000 
