# SAXS profile: number of points = 501, q_min = 0, q_max = 0.5, delta_q = 0.001
#    q    intensity 
0.00000    162234736.00000000 101201576.00000000 256270896.00000000 105707.85937500 8282488.00000000 6541506.50000000 
0.00100    162204416.00000000 101181936.00000000 256221408.00000000 105680.45312500 8280576.00000000 6540025.50000000 
0.00200    162110656.00000000 101123352.00000000 256069600.00000000 105599.22656250 8274881.50000000 6535535.00000000 
0.00300    161953712.00000000 101023744.00000000 255818752.00000000 105464.07812500 8265476.00000000 6528135.50000000 
0.00400    161730192.00000000 100886616.00000000 255466736.00000000 105275.78125000 8252255.50000000 6517728.50000000 
0.00500    161440400.00000000 100709032.00000000 255016016.00000000 105033.68750000 8235306.50000000 6504409.50000000 
0.00600    161088784.00000000 100492784.00000000 254463888.00000000 104737.86718750 8214597.50000000 6488174.00000000 
0.00700    160674880.00000000 100238384.00000000 253816352.00000000 104390.45312500 8190261.00000000 6468983.50000000 
0.00800    160195776.00000000 99945288.00000000 253069824.00000000 103990.99218750 8162253.50000000 6447000.50000000 
0.00900    159657872.00000000 99615000.00000000 252226400.00000000 103540.56250000 8130621.00000000 6422192.50000000 
0.01000    159059184.00000000 99248272.00000000 251288288.00000000 103039.10156250 8095457.00000000 6394558.50000000 
0.01100    158402944.00000000 98844456.00000000 250255696.00000000 102488.08593750 8056788.50000000 6364203.00000000 
0.01200    157685584.00000000 98402296.00000000 249130976.00000000 101888.89062500 8014696.00000000 6331100.00000000 
0.01300    156910464.00000000 97925432.00000000 247914048.00000000 101241.83593750 7969216.50000000 6295374.50000000 
0.01400    156077024.00000000 97413016.00000000 246609728.00000000 100548.07812500 7920446.00000000 6257010.00000000 
0.01500    155188672.00000000 96866712.00000000 245216064.00000000 99809.01562500  7868406.00000000 6216171.50000000 
0.01600    154245200.00000000 96286536.00000000 243735392.00000000 99025.78125000  7813240.50000000 6172812.50000000 
0.01700    153249360.00000000 95673224.00000000 242171584.00000000 98199.80468750  7754984.00000000 6127032.50000000 
0.01800    152200240.00000000 95028144.00000000 240526864.00000000 97331.46093750  7693763.50000000 6078888.00000000 
0.01900    151099664.00000000 94351072.00000000 238800528.00000000 96423.83593750  7629622.50000000 6028502.50000000 
0.02000    149951232.00000000 93643352.00000000 236997216.00000000 95477.04687500  7562684.50000000 5975902.00000000 
0.02100    148754832.00000000 92906752.00000000 235118272.00000000 94493.31250000  7493082.50000000 5921172.50000000 
0.02200    147510752.00000000 92141576.00000000 233167648.00000000 93473.64062500  7420828.50000000 5864408.00000000 
0.02300    146222736.00000000 91347960.00000000 231146320.00000000 92420.10156250  7346127.50000000 5805630.50000000 
0.02400    144891360.00000000 90528280.00000000 229055488.00000000 91334.35937500  7269016.50000000 5745034.00000000 
0.02500    143518720.00000000 89682248.00000000 226900304.00000000 90217.67187500  7189600.00000000 5682605.50000000 
0.02600    142105936.00000000 88811888.00000000 224681456.00000000 89071.98437500  7108027.00000000 5618454.00000000 
0.02700    140655808.00000000 87917872.00000000 222405168.00000000 87899.60937500  7024406.00000000 5552729.50000000 
0.02800    139169008.00000000 87001008.00000000 220070128.00000000 86700.84375000  6938849.00000000 5485403.00000000 
0.02900    137648000.00000000 86063408.00000000 217681232.00000000 85478.99218750  6851435.50000000 5416683.50000000 
0.03000    136094544.00000000 85104360.00000000 215240528.00000000 84234.92187500  6762324.50000000 5346565.00000000 
0.03100    134508816.00000000 84127024.00000000 212752320.00000000 82970.67968750  6671664.50000000 5275237.50000000 
0.03200    132896944.00000000 83131752.00000000 210216496.00000000 81687.82812500  6579478.50000000 5202709.50000000 
0.03300    131256928.00000000 82119472.00000000 207639760.00000000 80388.60937500  6485967.50000000 5129116.00000000 
0.03400    129591016.00000000 81091032.00000000 205022096.00000000 79074.99218750  6391198.50000000 5054587.00000000 
0.03500    127902584.00000000 80047552.00000000 202368128.00000000 77747.98437500  6295369.00000000 4979136.50000000 
0.03600    126193080.00000000 78991760.00000000 199679568.00000000 76409.78906250  6198478.50000000 4902889.00000000 
0.03700    124464080.00000000 77922888.00000000 196961776.00000000 75061.92968750  6100774.00000000 4825982.50000000 
0.03800    122717592.00000000 76843136.00000000 194216176.00000000 73706.99218750  6002295.00000000 4748455.00000000 
0.03900    120955160.00000000 75754272.00000000 191444368.00000000 72345.79687500  5903163.50000000 4670430.00000000 
0.04000    119179512.00000000 74656544.00000000 188650256.00000000 70979.96093750  5803536.50000000 4591964.00000000 
0.04100    117391960.00000000 73550168.00000000 185836640.00000000 69612.28906250  5703430.00000000 4513133.50000000 
0.04200    115593592.00000000 72436432.00000000 183007056.00000000 68242.64843750  5603032.50000000 4434096.00000000 
0.04300    113788112.00000000 71318440.00000000 180166256.00000000 66873.80468750  5502480.00000000 4354829.00000000 
0.04400    111974656.00000000 70195640.00000000 177312048.00000000 65506.87109375  5401839.50000000 4275526.50000000 
0.04500    110157584.00000000 69069608.00000000 174451104.00000000 64143.47265625  5301153.00000000 4196234.00000000 
0.04600    108337824.00000000 67940912.00000000 171585616.00000000 62784.73046875  5200640.50000000 4117012.00000000 
0.04700    106516000.00000000 66811820.00000000 168717056.00000000 61433.01171875  5100359.50000000 4037937.00000000 
0.04800    104695448.00000000 65682224.00000000 165849088.00000000 60088.62500000  5000340.00000000 3959137.00000000 
0.04900    102876504.00000000 64553828.00000000 162983568.00000000 58753.45703125  4900798.00000000 3880610.25000000 
0.05000    101061776.00000000 63426900.00000000 160122288.00000000 57428.61718750  4801656.50000000 3802484.50000000 
0.05100    99251376.00000000 62302996.00000000 157269408.00000000 56115.41015625  4703248.50000000 3724801.25000000 
0.05200    97448416.00000000 61182300.00000000 154427088.00000000 54814.53125000  4605396.00000000 3647657.75000000 
0.05300    95652536.00000000 60067032.00000000 151597024.00000000 53527.59375000  4508328.50000000 3571066.50000000 
0.05400    93867144.00000000 58956828.00000000 148779472.00000000 52255.28515625  4412102.50000000 3495141.00000000 
0.05500    92092120.00000000 57852840.00000000 145980352.00000000 50998.57812500  4316775.00000000 3419894.75000000 
0.05600    90329336.00000000 56756132.00000000 143199696.00000000 49758.64062500  4222357.00000000 3345417.75000000 
0.05700    88580408.00000000 55667732.00000000 140440320.00000000 48536.33203125  4129052.75000000 3271731.50000000 
0.05800    86845856.00000000 54587692.00000000 137702944.00000000 47331.76171875  4036843.25000000 3198908.75000000 
0.05900    85127608.00000000 53517048.00000000 134990384.00000000 46146.12500000  3945744.50000000 3126986.00000000 
0.06000    83425488.00000000 52456464.00000000 132304064.00000000 44980.21093750  3855899.00000000 3055999.00000000 
0.06100    81742376.00000000 51406916.00000000 129645000.00000000 43834.56250000  3767309.75000000 2986008.75000000 
0.06200    80077424.00000000 50368324.00000000 127015464.00000000 42709.28125000  3680005.00000000 2917010.25000000 
0.06300    78432920.00000000 49342436.00000000 124417072.00000000 41605.54687500  3594060.00000000 2849098.75000000 
0.06400    76808912.00000000 48328752.00000000 121850360.00000000 40523.09765625  3509513.00000000 2782256.75000000 
0.06500    75205856.00000000 47327904.00000000 119317280.00000000 39462.45312500  3426360.00000000 2716532.75000000 
0.06600    73625648.00000000 46340868.00000000 116819720.00000000 38424.11328125  3344692.25000000 2651934.75000000 
0.06700    72068304.00000000 45367584.00000000 114357248.00000000 37408.31640625  3264490.50000000 2588515.00000000 
0.06800    70534968.00000000 44408840.00000000 111932120.00000000 36415.12890625  3185785.00000000 2526247.50000000 
0.06900    69026416.00000000 43465072.00000000 109544856.00000000 35444.76953125  3108634.25000000 2465212.00000000 
0.07000    67540936.00000000 42536304.00000000 107196632.00000000 34497.12890625  3032998.75000000 2405352.25000000 
0.07100    66081664.00000000 41623072.00000000 104887840.00000000 33572.63281250  2958946.25000000 2346747.25000000 
0.07200    64648268.00000000 40725304.00000000 102618960.00000000 32670.71093750  2886443.75000000 2289336.75000000 
0.07300    63241072.00000000 39843792.00000000 100391040.00000000 31791.74414062  2815514.00000000 2233166.50000000 
0.07400    61859764.00000000 38978808.00000000 98205152.00000000 30935.65625000  2746184.75000000 2178250.50000000 
0.07500    60505716.00000000 38129884.00000000 96061032.00000000 30102.13281250  2678410.50000000 2124580.75000000 
0.07600    59177760.00000000 37297228.00000000 93958048.00000000 29290.85156250  2612218.25000000 2072131.75000000 
0.07700    57877880.00000000 36481792.00000000 91898664.00000000 28501.92578125  2547613.25000000 2020930.87500000 
0.07800    56604560.00000000 35683260.00000000 89881584.00000000 27734.83593750  2484561.75000000 1970955.50000000 
0.07900    55358848.00000000 34901236.00000000 87907992.00000000 26989.39062500  2423074.00000000 1922213.50000000 
0.08000    54140336.00000000 34136472.00000000 85976768.00000000 26265.44921875  2363119.50000000 1874687.87500000 
0.08100    52949272.00000000 33388824.00000000 84089536.00000000 25562.63085938  2304713.00000000 1828357.50000000 
0.08200    51785420.00000000 32658100.00000000 82244264.00000000 24880.25781250  2247796.75000000 1783222.00000000 
0.08300    50648800.00000000 31944148.00000000 80443672.00000000 24218.20703125  2192401.25000000 1739277.87500000 
0.08400    49539480.00000000 31247162.00000000 78684264.00000000 23576.00585938  2138488.75000000 1696484.37500000 
0.08500    48456736.00000000 30567106.00000000 76967352.00000000 22953.45898438  2085998.50000000 1654848.37500000 
0.08600    47401080.00000000 29903630.00000000 75294240.00000000 22349.74609375  2034965.37500000 1614334.37500000 
0.08700    46372056.00000000 29256826.00000000 73661656.00000000 21764.57031250  1985323.50000000 1574933.00000000 
0.08800    45369036.00000000 28626380.00000000 72072000.00000000 21197.55468750  1937066.87500000 1536631.25000000 
0.08900    44392340.00000000 28012506.00000000 70522752.00000000 20648.05664062  1890174.62500000 1499382.25000000 
0.09000    43441184.00000000 27414614.00000000 69014192.00000000 20115.83398438  1844593.25000000 1463191.12500000 
0.09100    42515724.00000000 26832632.00000000 67546368.00000000 19600.23242188  1800308.00000000 1428028.00000000 
0.09200    41614888.00000000 26266436.00000000 66117960.00000000 19100.53515625  1757294.00000000 1393857.75000000 
0.09300    40739196.00000000 25716014.00000000 64728936.00000000 18616.55664062  1715519.25000000 1360671.62500000 
0.09400    39887420.00000000 25180468.00000000 63378316.00000000 18147.76562500  1674935.50000000 1328443.87500000 
0.09500    39059324.00000000 24660212.00000000 62065876.00000000 17693.52929688  1635532.00000000 1297132.25000000 
0.09600    38255244.00000000 24154932.00000000 60789864.00000000 17253.55468750  1597273.25000000 1266734.87500000 
0.09700    37473496.00000000 23664042.00000000 59551428.00000000 16827.20507812  1560123.62500000 1237225.62500000 
0.09800    36715016.00000000 23187616.00000000 58348576.00000000 16414.08398438  1524066.00000000 1208561.12500000 
0.09900    35978104.00000000 22724744.00000000 57180964.00000000 16013.62500000  1489042.37500000 1180737.50000000 
0.10000    35262824.00000000 22275784.00000000 56047344.00000000 15625.25097656  1455043.87500000 1153706.12500000 
0.10100    34568360.00000000 21840304.00000000 54947032.00000000 15248.76367188  1422005.50000000 1127463.50000000 
0.10200    33895024.00000000 21417942.00000000 53879992.00000000 14883.45507812  1389925.25000000 1101973.37500000 
0.10300    33241512.00000000 21008106.00000000 52845328.00000000 14529.04394531  1358762.62500000 1077211.00000000 
0.10400    32607646.00000000 20610990.00000000 51841432.00000000 14185.22949219  1328497.25000000 1053166.37500000 
0.10500    31992924.00000000 20225904.00000000 50868208.00000000 13851.32812500  1299100.87500000 1029802.56250000 
0.10600    31396248.00000000 19852628.00000000 49924188.00000000 13526.92578125  1270512.50000000 1007086.25000000 
0.10700    30818224.00000000 19491038.00000000 49009540.00000000 13211.85839844  1242728.87500000 985021.18750000 
0.10800    30257380.00000000 19140576.00000000 48122496.00000000 12905.60742188  1215709.25000000 963564.37500000 
0.10900    29713624.00000000 18800898.00000000 47262804.00000000 12607.82617188  1189446.50000000 942697.81250000 
0.11000    29186438.00000000 18471744.00000000 46429620.00000000 12318.22167969  1163886.50000000 922403.81250000 
0.11100    28675054.00000000 18152936.00000000 45621592.00000000 12036.21386719  1139027.25000000 902653.43750000 
0.11200    28178992.00000000 17844018.00000000 44838480.00000000 11761.88085938  1114825.75000000 883439.12500000 
0.11300    27698242.00000000 17544484.00000000 44079384.00000000 11494.58203125  1091249.12500000 864724.75000000 
0.11400    27231786.00000000 17254392.00000000 43343304.00000000 11234.24023438  1068302.12500000 846508.43750000 
0.11500    26779420.00000000 16973222.00000000 42629684.00000000 10980.45800781  1045942.81250000 828761.06250000 
0.11600    26340334.00000000 16700776.00000000 41937776.00000000 10732.99414062  1024150.50000000 811463.31250000 
0.11700    25914220.00000000 16436591.00000000 41266828.00000000 10491.69824219  1002907.43750000 794605.75000000 
0.11800    25500690.00000000 16180257.00000000 40615192.00000000 10256.06347656  982176.75000000 778162.50000000 
0.11900    25099320.00000000 15931801.00000000 39983192.00000000 10026.17578125  961957.06250000 762128.43750000 
0.12000    24709404.00000000 15690853.00000000 39369988.00000000 9801.68066406   942225.93750000 746476.06250000 
0.12100    24330920.00000000 15456933.00000000 38774552.00000000 9582.39550781   922960.43750000 731203.18750000 
0.12200    23963038.00000000 15230043.00000000 38196380.00000000 9368.13671875   904146.93750000 716278.62500000 
0.12300    23605312.00000000 15009587.00000000 37634524.00000000 9158.73730469   885758.68750000 701712.43750000 
0.12400    23257566.00000000 14795530.00000000 37088592.00000000 8954.09960938   867788.31250000 687471.12500000 
0.12500    22919242.00000000 14587368.00000000 36557632.00000000 8753.87011719   850222.00000000 673549.37500000 
0.12600    22590060.00000000 14385236.00000000 36041616.00000000 8558.20605469   833051.25000000 659943.68750000 
0.12700    22269586.00000000 14188492.00000000 35539364.00000000 8366.73144531   816244.68750000 646631.43750000 
0.12800    21957442.00000000 13997059.00000000 35049956.00000000 8179.48437500   799804.50000000 633603.56250000 
0.12900    21653208.00000000 13810712.00000000 34573480.00000000 7996.22753906   783706.31250000 620853.37500000 
0.13000    21356582.00000000 13629089.00000000 34109204.00000000 7816.92773438   767948.50000000 608377.18750000 
0.13100    21067266.00000000 13452103.00000000 33656112.00000000 7641.42431641   752511.81250000 596156.00000000 
0.13200    20784766.00000000 13279456.00000000 33214306.00000000 7469.70214844   737389.75000000 584180.75000000 
0.13300    20508928.00000000 13111119.00000000 32782858.00000000 7301.60888672   722581.37500000 572460.37500000 
0.13400    20239434.00000000 12946547.00000000 32361400.00000000 7137.11474609   708060.87500000 560963.25000000 
0.13500    19975798.00000000 12785803.00000000 31949524.00000000 6976.17041016   693829.75000000 549699.37500000 
0.13600    19717974.00000000 12628662.00000000 31546598.00000000 6818.63623047   679876.25000000 538655.12500000 
0.13700    19465530.00000000 12474721.00000000 31152022.00000000 6664.47363281   666195.87500000 527821.37500000 
0.13800    19218292.00000000 12324026.00000000 30765774.00000000 6513.57714844   652775.81250000 517198.90625000 
0.13900    18975834.00000000 12176300.00000000 30387278.00000000 6365.99609375   639611.75000000 506780.25000000 
0.14000    18738122.00000000 12031536.00000000 30015884.00000000 6221.56054688   626698.18750000 496559.71875000 
0.14100    18504796.00000000 11889383.00000000 29651290.00000000 6080.30810547   614026.00000000 486527.68750000 
0.14200    18275438.00000000 11749614.00000000 29293232.00000000 5942.07617188   601589.93750000 476686.50000000 
0.14300    18050342.00000000 11612384.00000000 28941326.00000000 5806.96630859   589389.18750000 467024.78125000 
0.14400    17828886.00000000 11477272.00000000 28594994.00000000 5674.72753906   577410.31250000 457539.34375000 
0.14500    17610698.00000000 11344308.00000000 28254626.00000000 5545.50097656   565653.87500000 448230.03125000 
0.14600    17396160.00000000 11213303.00000000 27918816.00000000 5419.17138672   554109.93750000 439090.87500000 
0.14700    17184622.00000000 11084122.00000000 27588146.00000000 5295.66650391   542781.06250000 430118.06250000 
0.14800    16975926.00000000 10956585.00000000 27261806.00000000 5174.94775391   531651.25000000 421301.40625000 
0.14900    16770169.00000000 10830802.00000000 26939700.00000000 5057.02148438   520729.25000000 412645.03125000 
0.15000    16567053.00000000 10706357.00000000 26621592.00000000 4941.73095703   509997.65625000 404145.25000000 
0.15100    16366436.00000000 10583293.00000000 26307306.00000000 4829.08740234   499461.90625000 395796.78125000 
0.15200    16168124.00000000 10461607.00000000 25996490.00000000 4719.12646484   489117.78125000 387595.46875000 
0.15300    15972009.00000000 10341110.00000000 25688764.00000000 4611.69091797   478953.56250000 379538.62500000 
0.15400    15777942.00000000 10221611.00000000 25384072.00000000 4506.69189453   468971.25000000 371621.90625000 
0.15500    15585806.00000000 10103269.00000000 25082504.00000000 4404.21289062   459168.15625000 363843.65625000 
0.15600    15395369.00000000 9985740.00000000 24783338.00000000 4304.11083984   449533.81250000 356202.96875000 
0.15700    15206826.00000000 9869179.00000000 24486672.00000000 4206.41992188   440073.09375000 348695.18750000 
0.15800    15019763.00000000 9753488.00000000 24192080.00000000 4110.95849609   430776.15625000 341315.37500000 
0.15900    14834277.00000000 9638379.00000000 23900112.00000000 4017.79907227   421644.62500000 334061.40625000 
0.16000    14650055.00000000 9523967.00000000 23609622.00000000 3926.86840820   412665.06250000 326930.25000000 
0.16100    14467350.00000000 9410334.00000000 23321358.00000000 3838.05517578   403846.28125000 319927.71875000 
0.16200    14285768.00000000 9297104.00000000 23034514.00000000 3751.37060547   395178.68750000 313036.71875000 
0.16300    14105417.00000000 9184470.00000000 22749590.00000000 3666.68701172   386659.43750000 306266.65625000 
0.16400    13926083.00000000 9072348.00000000 22465954.00000000 3584.05883789   378290.34375000 299608.93750000 
0.16500    13747775.00000000 8960666.00000000 22183792.00000000 3503.35644531   370054.71875000 293061.50000000 
0.16600    13570593.00000000 8849425.00000000 21902756.00000000 3424.55322266   361965.68750000 286625.25000000 
0.16700    13394175.00000000 8738471.00000000 21623076.00000000 3347.57128906   354008.43750000 280293.53125000 
0.16800    13218662.00000000 8627921.00000000 21344454.00000000 3272.40502930   346182.84375000 274065.50000000 
0.16900    13044037.00000000 8517778.00000000 21067110.00000000 3199.00561523   338489.50000000 267938.59375000 
0.17000    12870194.00000000 8407892.00000000 20790636.00000000 3127.25439453   330927.65625000 261912.35937500 
