# SAXS profile: number of points = 501, q_min = 0, q_max = 0.5, delta_q = 0.001
#    q    intensity 
0.00000    162232624.00000000 101202144.00000000 256270496.00000000 102886.56250000 8171184.50000000 6453578.00000000 
0.00100    162194864.00000000 101176312.00000000 256204512.00000000 102851.46093750 8168805.50000000 6451685.00000000 
0.00200    162077024.00000000 101098960.00000000 256011008.00000000 102750.11718750 8161512.50000000 6446001.00000000 
0.00300    161873248.00000000 100971752.00000000 255686368.00000000 102579.31250000 8149504.50000000 6436523.00000000 
0.00400    161581296.00000000 100792208.00000000 255230240.00000000 102341.46093750 8132584.00000000 6423279.00000000 
0.00500    161205328.00000000 100562712.00000000 254644848.00000000 102036.03906250 8111025.00000000 6406275.00000000 
0.00600    160753760.00000000 100283264.00000000 253933488.00000000 101665.63281250 8084711.50000000 6385608.00000000 
0.00700    160213440.00000000 99954440.00000000 253097104.00000000 101229.17187500 8053764.00000000 6361291.00000000 
0.00800    159601424.00000000 99577912.00000000 252135424.00000000 100728.68750000 8018233.50000000 6333348.00000000 
0.00900    158911712.00000000 99154312.00000000 251050976.00000000 100164.95312500 7978239.00000000 6301895.00000000 
0.01000    158147120.00000000 98680592.00000000 249847824.00000000 99540.01562500  7933848.00000000 6266994.00000000 
0.01100    157305312.00000000 98160920.00000000 248524048.00000000 98855.91406250  7885124.50000000 6228678.50000000 
0.01200    156388176.00000000 97595928.00000000 247085904.00000000 98112.67968750  7832227.00000000 6187095.50000000 
0.01300    155399552.00000000 96987088.00000000 245536032.00000000 97312.99218750  7775218.00000000 6142296.00000000 
0.01400    154342608.00000000 96335064.00000000 243874816.00000000 96459.32031250  7714295.50000000 6094349.00000000 
0.01500    153218336.00000000 95642024.00000000 242107552.00000000 95552.89843750  7649557.00000000 6043467.00000000 
0.01600    152026944.00000000 94907992.00000000 240238528.00000000 94596.15625000  7581098.00000000 5989632.00000000 
0.01700    150773248.00000000 94134464.00000000 238268992.00000000 93591.58593750  7509163.50000000 5932996.00000000 
0.01800    149458336.00000000 93323328.00000000 236204016.00000000 92541.26562500  7433766.00000000 5873772.50000000 
0.01900    148086160.00000000 92476296.00000000 234046560.00000000 91447.86718750  7355217.50000000 5811971.50000000 
0.02000    146656400.00000000 91594344.00000000 231800384.00000000 90312.95312500  7273584.50000000 5747752.50000000 
0.02100    145173392.00000000 90679000.00000000 229471328.00000000 89140.16406250  7189083.00000000 5681253.50000000 
0.02200    143640768.00000000 89731792.00000000 227059776.00000000 87932.53906250  7101853.00000000 5612620.00000000 
0.02300    142059248.00000000 88755640.00000000 224574368.00000000 86691.77343750  7012075.00000000 5541964.00000000 
0.02400    140432800.00000000 87751376.00000000 222019376.00000000 85420.60937500  6919920.50000000 5469419.00000000 
0.02500    138765232.00000000 86719720.00000000 219396192.00000000 84122.26562500  6825627.50000000 5395232.00000000 
0.02600    137056432.00000000 85663888.00000000 216710368.00000000 82799.01562500  6729340.00000000 5319400.50000000 
0.02700    135311056.00000000 84585144.00000000 213966976.00000000 81453.93750000  6631176.50000000 5242163.00000000 
0.02800    133535408.00000000 83486312.00000000 211171344.00000000 80088.80468750  6531384.50000000 5163584.50000000 
0.02900    131726456.00000000 82367280.00000000 208326592.00000000 78707.56250000  6430175.00000000 5083865.00000000 
0.03000    129891016.00000000 81230920.00000000 205435920.00000000 77312.26562500  6327664.00000000 5003138.50000000 
0.03100    128030688.00000000 80079608.00000000 202509808.00000000 75905.82812500  6224128.50000000 4921542.50000000 
0.03200    126148120.00000000 78914576.00000000 199547472.00000000 74490.40625000  6119608.50000000 4839215.00000000 
0.03300    124247624.00000000 77738384.00000000 196556880.00000000 73069.09375000  6014390.00000000 4756336.50000000 
0.03400    122330424.00000000 76550944.00000000 193538928.00000000 71644.64062500  5908594.50000000 4673013.00000000 
0.03500    120400736.00000000 75354864.00000000 190499088.00000000 70218.71093750  5802422.50000000 4589343.00000000 
0.03600    118461664.00000000 74152400.00000000 187445328.00000000 68793.67187500  5696022.50000000 4505477.50000000 
0.03700    116513640.00000000 72943728.00000000 184377072.00000000 67371.07031250  5589573.00000000 4421518.50000000 
0.03800    114561664.00000000 71733184.00000000 181303008.00000000 65955.19531250  5483166.00000000 4337650.50000000 
0.03900    112607144.00000000 70519856.00000000 178223184.00000000 64545.95312500  5377067.50000000 4253968.00000000 
0.04000    110653960.00000000 69306696.00000000 175145072.00000000 63146.28125000  5271284.50000000 4170548.50000000 
0.04100    108703768.00000000 68095872.00000000 172069424.00000000 61757.83984375  5166051.00000000 4087542.50000000 
0.04200    106758536.00000000 66886604.00000000 169003488.00000000 60383.26562500  5061505.50000000 4005046.50000000 
0.04300    104820824.00000000 65682392.00000000 165947696.00000000 59022.79687500  4957757.00000000 3923172.00000000 
0.04400    102893448.00000000 64484048.00000000 162908064.00000000 57679.41406250  4854908.50000000 3842027.25000000 
0.04500    100978416.00000000 63292508.00000000 159886688.00000000 56353.73437500  4753085.50000000 3761655.25000000 
0.04600    99077216.00000000 62110024.00000000 156887136.00000000 55046.80859375  4652389.50000000 3682166.00000000 
0.04700    97192224.00000000 60936428.00000000 153912480.00000000 53760.36328125  4552919.00000000 3603642.25000000 
0.04800    95325704.00000000 59773956.00000000 150966400.00000000 52495.48437500  4454793.50000000 3526159.75000000 
0.04900    93478520.00000000 58623424.00000000 148051904.00000000 51253.16406250  4358075.00000000 3449788.50000000 
0.05000    91653616.00000000 57486112.00000000 145170320.00000000 50034.02343750  4262878.50000000 3374574.75000000 
0.05100    89850704.00000000 56362048.00000000 142323136.00000000 48839.26171875  4169225.75000000 3300585.75000000 
0.05200    88072768.00000000 55253116.00000000 139514416.00000000 47668.53125000  4077222.25000000 3227884.00000000 
0.05300    86320008.00000000 54160216.00000000 136747072.00000000 46523.39843750  3986870.75000000 3156487.00000000 
0.05400    84595496.00000000 53084280.00000000 134022080.00000000 45404.16406250  3898266.00000000 3086459.50000000 
0.05500    82898328.00000000 52024740.00000000 131340272.00000000 44310.83203125  3811438.25000000 3017831.75000000 
0.05600    81229992.00000000 50983036.00000000 128704360.00000000 43243.74609375  3726414.25000000 2950607.25000000 
0.05700    79592200.00000000 49959948.00000000 126115344.00000000 42203.13281250  3643245.50000000 2884861.75000000 
0.05800    77984880.00000000 48955820.00000000 123574288.00000000 41188.76171875  3561916.25000000 2820564.25000000 
0.05900    76410296.00000000 47971456.00000000 121083072.00000000 40200.91796875  3482499.50000000 2757740.50000000 
0.06000    74866088.00000000 47006516.00000000 118642728.00000000 39239.46093750  3404941.25000000 2696441.50000000 
0.06100    73355240.00000000 46061824.00000000 116252800.00000000 38304.01562500  3329300.25000000 2636596.00000000 
0.06200    71877656.00000000 45137608.00000000 113916216.00000000 37394.55859375  3255565.50000000 2578263.50000000 
0.06300    70433128.00000000 44233960.00000000 111631312.00000000 36510.34375000  3183695.50000000 2521428.75000000 
0.06400    69021768.00000000 43350476.00000000 109397608.00000000 35650.99218750  3113710.00000000 2466036.50000000 
0.06500    67644128.00000000 42488396.00000000 107218920.00000000 34816.98046875  3045583.75000000 2412129.25000000 
0.06600    66299704.00000000 41647588.00000000 105091592.00000000 34006.83203125  2979299.75000000 2359703.00000000 
0.06700    64989544.00000000 40827260.00000000 103019392.00000000 33219.96484375  2914829.25000000 2308688.25000000 
0.06800    63712376.00000000 40027836.00000000 100997840.00000000 32456.84960938  2852139.50000000 2259087.50000000 
0.06900    62468860.00000000 39248796.00000000 99029720.00000000 31715.56640625  2791206.75000000 2210900.25000000 
0.07000    61257724.00000000 38491212.00000000 97113280.00000000 30996.11718750  2732018.75000000 2164034.25000000 
0.07100    60079664.00000000 37753492.00000000 95249352.00000000 30297.91601562  2674495.25000000 2118561.50000000 
0.07200    58933468.00000000 37036264.00000000 93435856.00000000 29620.02148438  2618613.50000000 2074335.50000000 
0.07300    57819044.00000000 36338924.00000000 91672552.00000000 28961.99023438  2564351.25000000 2031427.12500000 
0.07400    56736048.00000000 35660868.00000000 89958784.00000000 28323.01757812  2511625.50000000 1989712.00000000 
0.07500    55683656.00000000 35002476.00000000 88293816.00000000 27702.09765625  2460407.00000000 1949208.75000000 
0.07600    54661420.00000000 34362952.00000000 86676456.00000000 27098.87109375  2410655.75000000 1909857.12500000 
0.07700    53668284.00000000 33741876.00000000 85106104.00000000 26512.50976562  2362320.00000000 1871645.62500000 
0.07800    52703796.00000000 33139766.00000000 83581680.00000000 25942.17773438  2315349.00000000 1834508.75000000 
0.07900    51767884.00000000 32554816.00000000 82101656.00000000 25387.53515625  2269705.25000000 1798420.87500000 
0.08000    50858820.00000000 31987066.00000000 80665056.00000000 24847.48437500  2225329.25000000 1763332.25000000 
0.08100    49976632.00000000 31436260.00000000 79269600.00000000 24321.67187500  2182166.25000000 1729225.50000000 
0.08200    49119616.00000000 30901456.00000000 77916136.00000000 23809.24804688  2140169.00000000 1696030.50000000 
0.08300    48287732.00000000 30383102.00000000 76602152.00000000 23309.57812500  2099308.00000000 1663732.12500000 
0.08400    47480180.00000000 29879598.00000000 75327528.00000000 22822.05078125  2059490.12500000 1632281.50000000 
0.08500    46695668.00000000 29391010.00000000 74089176.00000000 22346.46484375  2020708.87500000 1601653.50000000 
0.08600    45933976.00000000 28917102.00000000 72887328.00000000 21881.96093750  1982917.50000000 1571805.37500000 
0.08700    45193856.00000000 28456568.00000000 71719520.00000000 21427.97265625  1946047.50000000 1542679.50000000 
0.08800    44474432.00000000 28009538.00000000 70585288.00000000 20983.82421875  1910057.75000000 1514290.00000000 
0.08900    43774872.00000000 27575276.00000000 69483048.00000000 20549.38085938  1874925.12500000 1486550.12500000 
0.09000    43094716.00000000 27153440.00000000 68411256.00000000 20124.28710938  1840597.75000000 1459452.25000000 
0.09100    42433248.00000000 26743136.00000000 67368856.00000000 19707.79492188  1807028.12500000 1432949.50000000 
0.09200    41788948.00000000 26344116.00000000 66355376.00000000 19299.67187500  1774199.00000000 1407042.37500000 
0.09300    41161276.00000000 25955848.00000000 65368420.00000000 18899.65820312  1742052.00000000 1381678.62500000 
0.09400    40550372.00000000 25578004.00000000 64406276.00000000 18506.99023438  1710564.75000000 1356843.50000000 
0.09500    39954408.00000000 25209822.00000000 63469696.00000000 18122.05859375  1679691.12500000 1332485.25000000 
0.09600    39372988.00000000 24850920.00000000 62555476.00000000 17744.17968750  1649435.87500000 1308609.62500000 
0.09700    38805216.00000000 24500888.00000000 61664064.00000000 17373.12500000  1619729.12500000 1285177.25000000 
0.09800    38251032.00000000 24159388.00000000 60793212.00000000 17008.78320312  1590564.37500000 1262167.87500000 
0.09900    37709404.00000000 23825780.00000000 59942972.00000000 16651.07226562  1561924.50000000 1239571.25000000 
0.10000    37179160.00000000 23499796.00000000 59111124.00000000 16299.23339844  1533756.25000000 1217348.00000000 
0.10100    36660228.00000000 23180768.00000000 58297048.00000000 15953.69628906  1506060.37500000 1195501.62500000 
0.10200    36152072.00000000 22868524.00000000 57500384.00000000 15614.06640625  1478811.12500000 1173999.37500000 
0.10300    35653844.00000000 22562666.00000000 56719588.00000000 15280.28808594  1451991.25000000 1152835.75000000 
0.10400    35165172.00000000 22262878.00000000 55953760.00000000 14952.37792969  1425578.62500000 1131996.75000000 
0.10500    34685620.00000000 21968920.00000000 55202704.00000000 14630.06835938  1399598.00000000 1111471.00000000 
0.10600    34214604.00000000 21680244.00000000 54464676.00000000 14313.11230469  1373956.75000000 1091221.50000000 
0.10700    33751648.00000000 21396480.00000000 53739520.00000000 14001.87402344  1348705.00000000 1071288.50000000 
0.10800    33296108.00000000 21117616.00000000 53026248.00000000 13696.07324219  1323821.87500000 1051621.62500000 
0.10900    32847964.00000000 20843124.00000000 52324488.00000000 13395.69531250  1299272.25000000 1032222.93750000 
0.11000    32406312.00000000 20572736.00000000 51633356.00000000 13100.44042969  1275086.25000000 1013094.87500000 
0.11100    31971046.00000000 20306422.00000000 50952020.00000000 12810.66992188  1251212.00000000 994215.87500000 
0.11200    31542340.00000000 20043802.00000000 50280564.00000000 12526.04101562  1227664.12500000 975597.81250000 
0.11300    31119082.00000000 19784692.00000000 49618064.00000000 12246.71679688  1204436.75000000 957222.81250000 
0.11400    30701414.00000000 19528786.00000000 48963784.00000000 11972.58691406  1181540.75000000 939091.68750000 
0.11500    30288880.00000000 19276296.00000000 48317672.00000000 11703.59472656  1158926.37500000 921201.75000000 
0.11600    29881150.00000000 19026486.00000000 47679072.00000000 11439.65625000  1136637.25000000 903539.18750000 
0.11700    29478410.00000000 18779664.00000000 47048120.00000000 11180.96972656  1114648.87500000 886118.68750000 
0.11800    29079868.00000000 18535344.00000000 46423796.00000000 10927.34082031  1092960.00000000 868923.31250000 
0.11900    28685774.00000000 18293338.00000000 45805456.00000000 10678.55273438  1071574.25000000 851959.18750000 
0.12000    28295642.00000000 18053658.00000000 45193908.00000000 10434.79003906  1050476.62500000 835223.43750000 
0.12100    27909474.00000000 17816718.00000000 44588640.00000000 10196.01562500  1029675.43750000 818717.68750000 
0.12200    27527086.00000000 17581680.00000000 43988492.00000000 9962.12011719   1009167.87500000 802440.50000000 
0.12300    27148408.00000000 17348686.00000000 43394232.00000000 9733.01757812   988952.62500000 786380.87500000 
0.12400    26773492.00000000 17117702.00000000 42805068.00000000 9508.52148438   969030.87500000 770548.43750000 
0.12500    26401704.00000000 16888548.00000000 42221308.00000000 9288.95898438   949387.93750000 754937.37500000 
0.12600    26033480.00000000 16661476.00000000 41642724.00000000 9073.92578125   930046.75000000 739560.56250000 
0.12700    25668484.00000000 16435876.00000000 41068208.00000000 8863.43945312   910983.75000000 724390.37500000 
0.12800    25306592.00000000 16212149.00000000 40499148.00000000 8657.50488281   892211.31250000 709458.68750000 
0.12900    24948066.00000000 15990150.00000000 39934836.00000000 8455.91796875   873725.12500000 694741.37500000 
0.13000    24592344.00000000 15769956.00000000 39374668.00000000 8258.76953125   855519.87500000 680243.12500000 
0.13100    24239866.00000000 15551309.00000000 38819056.00000000 8065.71484375   837595.56250000 665958.81250000 
0.13200    23890378.00000000 15334297.00000000 38267996.00000000 7876.88623047   819953.31250000 651907.12500000 
0.13300    23543966.00000000 15118856.00000000 37721468.00000000 7692.06640625   802592.25000000 638070.06250000 
0.13400    23200358.00000000 14905090.00000000 37179084.00000000 7511.20166016   785505.75000000 624451.56250000 
0.13500    22859904.00000000 14693013.00000000 36641880.00000000 7334.27832031   768701.00000000 611045.12500000 
0.13600    22522370.00000000 14482392.00000000 36107864.00000000 7161.10009766   752165.43750000 597854.43750000 
0.13700    22187658.00000000 14273483.00000000 35578936.00000000 6991.62304688   735896.37500000 584886.37500000 
0.13800    21855908.00000000 14066159.00000000 35054236.00000000 6825.69091797   719906.68750000 572119.06250000 
0.13900    21527266.00000000 13860413.00000000 34534036.00000000 6663.30371094   704176.50000000 559564.06250000 
0.14000    21201442.00000000 13656196.00000000 34018128.00000000 6504.35546875   688716.62500000 547228.31250000 
0.14100    20878748.00000000 13453841.00000000 33506692.00000000 6348.72314453   673516.81250000 535091.50000000 
0.14200    20558840.00000000 13253050.00000000 33000274.00000000 6196.30322266   658569.43750000 523165.62500000 
0.14300    20242304.00000000 13053951.00000000 32497620.00000000 6047.02929688   643877.93750000 511440.53125000 
0.14400    19928440.00000000 12856439.00000000 31999640.00000000 5900.81054688   629449.50000000 499918.56250000 
0.14500    19617724.00000000 12660683.00000000 31506106.00000000 5757.60546875   615269.81250000 488591.78125000 
0.14600    19309926.00000000 12466685.00000000 31017452.00000000 5617.29199219   601336.93750000 477465.40625000 
0.14700    19005412.00000000 12274481.00000000 30533414.00000000 5479.88134766   587647.12500000 466536.34375000 
0.14800    18703944.00000000 12083973.00000000 30053854.00000000 5345.16308594   574194.06250000 455795.46875000 
0.14900    18405414.00000000 11895254.00000000 29579160.00000000 5213.18847656   560979.62500000 445244.43750000 
0.15000    18110180.00000000 11708296.00000000 29109244.00000000 5083.91796875   548006.50000000 434882.06250000 
0.15100    17817878.00000000 11523181.00000000 28644068.00000000 4957.20312500   535257.68750000 424707.37500000 
0.15200    17529058.00000000 11339976.00000000 28184020.00000000 4833.04443359   522740.75000000 414718.87500000 
0.15300    17243264.00000000 11158571.00000000 27728470.00000000 4711.39404297   510452.31250000 404908.18750000 
0.15400    16960714.00000000 10979079.00000000 27277980.00000000 4592.23437500   498380.00000000 395275.31250000 
0.15500    16681268.00000000 10801499.00000000 26832392.00000000 4475.46777344   486530.18750000 385820.71875000 
0.15600    16405024.00000000 10625735.00000000 26391802.00000000 4361.09472656   474895.37500000 376536.34375000 
0.15700    16132249.00000000 10452067.00000000 25956420.00000000 4249.12451172   463477.25000000 367425.03125000 
0.15800    15862398.00000000 10280225.00000000 25525816.00000000 4139.44287109   452265.31250000 358483.06250000 
0.15900    15596103.00000000 10110363.00000000 25100196.00000000 4032.06665039   441265.62500000 349706.90625000 
0.16000    15332811.00000000 9942438.00000000 24679838.00000000 3927.02368164   430467.12500000 341098.43750000 
0.16100    15072967.00000000 9776669.00000000 24265054.00000000 3824.26513672   419875.34375000 332652.81250000 
0.16200    14816424.00000000 9612712.00000000 23854772.00000000 3723.70727539   409483.06250000 324370.81250000 
0.16300    14563132.00000000 9450985.00000000 23449930.00000000 3625.39721680   399287.09375000 316240.15625000 
0.16400    14313265.00000000 9291066.00000000 23050110.00000000 3529.36621094   389286.50000000 308270.37500000 
0.16500    14066574.00000000 9133298.00000000 22655588.00000000 3435.49877930   379483.87500000 300455.65625000 
0.16600    13823182.00000000 8977496.00000000 22266434.00000000 3343.85546875   369867.21875000 292797.18750000 
0.16700    13583117.00000000 8823737.00000000 21882176.00000000 3254.39672852   360439.53125000 285283.37500000 
0.16800    13346350.00000000 8672035.00000000 21503108.00000000 3167.10644531   351194.65625000 277921.00000000 
0.16900    13112960.00000000 8522394.00000000 21129554.00000000 3081.99707031   342138.81250000 270706.28125000 
0.17000    12882784.00000000 8374790.50000000 20760926.00000000 2999.06225586   333260.65625000 263636.21875000 
