# SAXS profile: number of points = 501, q_min = 0, q_max = 0.5, delta_q = 0.001
#    q    intensity 
0.00000    162232848.00000000 101201864.00000000 256270144.00000000 105830.66406250 8287346.50000000 6545300.00000000 
0.00100    162192880.00000000 101173736.00000000 256199552.00000000 105793.43750000 8284720.50000000 6543260.00000000 
0.00200    162061264.00000000 101089824.00000000 255988560.00000000 105683.43750000 8276878.50000000 6537101.00000000 
0.00300    161839248.00000000 100951352.00000000 255634752.00000000 105498.88281250 8263854.00000000 6526883.50000000 
0.00400    161522848.00000000 100756264.00000000 255138448.00000000 105242.28125000 8245700.00000000 6512527.00000000 
0.00500    161117008.00000000 100506056.00000000 254503440.00000000 104912.50781250 8222416.00000000 6494213.50000000 
0.00600    160628432.00000000 100201808.00000000 253731808.00000000 104511.02343750 8194103.00000000 6471877.50000000 
0.00700    160044208.00000000 99843632.00000000 252822560.00000000 104040.45312500 8160701.50000000 6445574.00000000 
0.00800    159380080.00000000 99433792.00000000 251778064.00000000 103500.13281250 8122400.00000000 6415448.00000000 
0.00900    158633360.00000000 98971960.00000000 250602240.00000000 102891.24218750 8079351.00000000 6381514.00000000 
0.01000    157804032.00000000 98457584.00000000 249294176.00000000 102216.60937500 8031467.00000000 6343830.00000000 
0.01100    156894992.00000000 97893320.00000000 247859312.00000000 101477.35937500 7979002.50000000 6302545.00000000 
0.01200    155900576.00000000 97280048.00000000 246300704.00000000 100675.25000000 7922040.00000000 6257680.50000000 
0.01300    154833792.00000000 96618200.00000000 244621056.00000000 99812.72656250  7860715.50000000 6209373.50000000 
0.01400    153691280.00000000 95910824.00000000 242824512.00000000 98891.67187500  7795194.00000000 6157759.00000000 
0.01500    152478528.00000000 95159256.00000000 240911792.00000000 97913.61718750  7725561.50000000 6102896.00000000 
0.01600    151191072.00000000 94363904.00000000 238889872.00000000 96882.72656250  7651987.50000000 6044985.00000000 
0.01700    149839536.00000000 93526304.00000000 236761552.00000000 95799.17187500  7574693.50000000 5984084.00000000 
0.01800    148422880.00000000 92649104.00000000 234531168.00000000 94667.59375000  7493774.50000000 5920338.00000000 
0.01900    146944944.00000000 91732888.00000000 232203568.00000000 93489.87500000  7409474.50000000 5853919.50000000 
0.02000    145405376.00000000 90780440.00000000 229782928.00000000 92267.78906250  7321921.50000000 5784984.00000000 
0.02100    143814128.00000000 89793056.00000000 227274592.00000000 91006.50000000  7231327.00000000 5713591.00000000 
0.02200    142166208.00000000 88772616.00000000 224681632.00000000 89706.83593750  7137875.50000000 5639957.50000000 
0.02300    140469968.00000000 87721576.00000000 222011568.00000000 88372.81250000  7041808.50000000 5564275.00000000 
0.02400    138729264.00000000 86640952.00000000 219267984.00000000 87007.17187500  6943266.00000000 5486628.50000000 
0.02500    136942688.00000000 85534208.00000000 216454112.00000000 85612.72656250  6842532.50000000 5407224.50000000 
0.02600    135117072.00000000 84401304.00000000 213578464.00000000 84192.52343750  6739687.50000000 5326131.50000000 
0.02700    133254280.00000000 83246552.00000000 210645280.00000000 82749.40625000  6634947.00000000 5243624.00000000 
0.02800    131359592.00000000 82070168.00000000 207659776.00000000 81286.73437500  6528623.50000000 5159839.00000000 
0.02900    129433544.00000000 80875664.00000000 204626752.00000000 79808.07812500  6420902.50000000 5074863.50000000 
0.03000    127482024.00000000 79664496.00000000 201551536.00000000 78314.75000000  6311912.00000000 4988990.00000000 
0.03100    125507632.00000000 78437760.00000000 198438672.00000000 76811.37500000  6201934.50000000 4902196.50000000 
0.03200    123512696.00000000 77199144.00000000 195293872.00000000 75299.61718750  6091028.50000000 4814782.50000000 
0.03300    121502176.00000000 75951304.00000000 192126352.00000000 73783.54687500  5979602.50000000 4726918.50000000 
0.03400    119476992.00000000 74693968.00000000 188936336.00000000 72265.62500000  5867645.50000000 4638690.00000000 
0.03500    117442304.00000000 73429944.00000000 185727728.00000000 70747.68750000  5755476.50000000 4550172.00000000 
0.03600    115401488.00000000 72161080.00000000 182508960.00000000 69232.37500000  5643205.50000000 4461632.50000000 
0.03700    113356152.00000000 70889632.00000000 179284496.00000000 67723.04687500  5531074.00000000 4373199.50000000 
0.03800    111309808.00000000 69618008.00000000 176057952.00000000 66221.36718750  5419229.00000000 4284918.50000000 
0.03900    109266992.00000000 68346816.00000000 172832896.00000000 64729.82812500  5307799.50000000 4197003.00000000 
0.04000    107227848.00000000 67078876.00000000 169618416.00000000 63250.58203125  5197012.50000000 4109601.00000000 
0.04100    105197120.00000000 65815328.00000000 166416064.00000000 61786.17187500  5086993.00000000 4022777.25000000 
0.04200    103177856.00000000 64557964.00000000 163227488.00000000 60338.35156250  4977908.00000000 3936668.00000000 
0.04300    101170952.00000000 63309112.00000000 160062192.00000000 58908.69531250  4869847.50000000 3851366.00000000 
0.04400    99180064.00000000 62069604.00000000 156919312.00000000 57498.85546875  4762940.00000000 3767003.25000000 
0.04500    97206952.00000000 60840636.00000000 153804128.00000000 56111.07031250  4657461.00000000 3683696.00000000 
0.04600    95253456.00000000 59624376.00000000 150721120.00000000 54746.55078125  4553309.00000000 3601497.50000000 
0.04700    93323224.00000000 58420844.00000000 147674400.00000000 53405.76171875  4450723.00000000 3520487.25000000 
0.04800    91416440.00000000 57232592.00000000 144663024.00000000 52091.23437500  4349798.50000000 3440792.00000000 
0.04900    89536032.00000000 56060624.00000000 141694384.00000000 50803.65625000  4250569.50000000 3362429.25000000 
0.05000    87683872.00000000 54905852.00000000 138768976.00000000 49543.16796875  4153157.75000000 3285521.00000000 
0.05100    85861288.00000000 53769048.00000000 135890800.00000000 48311.31250000  4057634.50000000 3210078.50000000 
0.05200    84069440.00000000 52651156.00000000 133060248.00000000 47108.80078125  3964072.75000000 3136161.75000000 
0.05300    82310024.00000000 51553616.00000000 130281008.00000000 45935.46093750  3872529.75000000 3063825.00000000 
0.05400    80584000.00000000 50476732.00000000 127554992.00000000 44792.46875000  3783038.00000000 2993120.50000000 
0.05500    78892832.00000000 49421512.00000000 124882392.00000000 43679.78906250  3695646.25000000 2924087.25000000 
0.05600    77237256.00000000 48387932.00000000 122266016.00000000 42598.04687500  3610385.25000000 2856727.75000000 
0.05700    75617872.00000000 47377208.00000000 119707904.00000000 41546.55468750  3527273.25000000 2791067.75000000 
0.05800    74035944.00000000 46389756.00000000 117206936.00000000 40526.26953125  3446369.00000000 2727123.50000000 
0.05900    72491424.00000000 45425044.00000000 114766288.00000000 39535.92187500  3367624.75000000 2664911.00000000 
0.06000    70985488.00000000 44484528.00000000 112386368.00000000 38576.37109375  3291068.25000000 2604421.75000000 
0.06100    69517448.00000000 43567704.00000000 110066920.00000000 37646.47265625  3216717.25000000 2545645.00000000 
0.06200    68087992.00000000 42675752.00000000 107807832.00000000 36746.30468750  3144514.00000000 2488599.25000000 
0.06300    66698796.00000000 41807440.00000000 105610792.00000000 35874.90625000  3074503.25000000 2433272.75000000 
0.06400    65347020.00000000 40963500.00000000 103474632.00000000 35032.46875000  3006595.50000000 2379605.25000000 
0.06500    64033848.00000000 40143360.00000000 101400296.00000000 34217.17578125  2940812.00000000 2327610.50000000 
0.06600    62759908.00000000 39347892.00000000 99385800.00000000 33429.89843750  2877088.75000000 2277267.75000000 
0.06700    61523468.00000000 38575768.00000000 97432392.00000000 32668.89062500  2815418.25000000 2228523.75000000 
0.06800    60325284.00000000 37827724.00000000 95538936.00000000 31933.08398438  2755723.50000000 2181372.75000000 
0.06900    59164444.00000000 37103120.00000000 93704784.00000000 31222.57226562  2697989.50000000 2135751.75000000 
0.07000    58040160.00000000 36401784.00000000 91928256.00000000 30536.01562500  2642152.50000000 2091664.25000000 
0.07100    56951764.00000000 35723320.00000000 90210240.00000000 29872.14453125  2588137.50000000 2048999.87500000 
0.07200    55899240.00000000 35066344.00000000 88546728.00000000 29230.91992188  2535943.50000000 2007780.12500000 
0.07300    54881448.00000000 34432028.00000000 86939104.00000000 28610.60546875  2485448.00000000 1967896.25000000 
0.07400    53896900.00000000 33818716.00000000 85385776.00000000 28010.59179688  2436642.25000000 1929364.50000000 
0.07500    52945592.00000000 33226482.00000000 83884408.00000000 27430.17968750  2389416.75000000 1892091.87500000 
0.07600    52026688.00000000 32654428.00000000 82433776.00000000 26867.83984375  2343753.50000000 1856034.12500000 
0.07700    51138700.00000000 32102242.00000000 81032568.00000000 26322.94531250  2299577.75000000 1821185.75000000 
0.07800    50281284.00000000 31568972.00000000 79680192.00000000 25794.77343750  2256796.00000000 1787424.00000000 
0.07900    49452248.00000000 31053796.00000000 78373808.00000000 25281.94921875  2215342.75000000 1754738.00000000 
0.08000    48651544.00000000 30557014.00000000 77111640.00000000 24783.77734375  2175190.00000000 1723066.50000000 
0.08100    47877520.00000000 30077144.00000000 75892216.00000000 24299.40039062  2136237.50000000 1692357.12500000 
0.08200    47129372.00000000 29613710.00000000 74714560.00000000 23828.08007812  2098453.50000000 1662559.12500000 
0.08300    46406412.00000000 29166142.00000000 73576408.00000000 23368.89843750  2061736.62500000 1633650.00000000 
0.08400    45706780.00000000 28733436.00000000 72476584.00000000 22920.78710938  2026052.12500000 1605518.50000000 
0.08500    45030324.00000000 28315470.00000000 71412624.00000000 22483.27929688  1991331.12500000 1578168.62500000 
0.08600    44374824.00000000 27911090.00000000 70382944.00000000 22055.53906250  1957503.37500000 1551534.12500000 
0.08700    43740012.00000000 27519760.00000000 69385768.00000000 21637.24218750  1924532.00000000 1525562.62500000 
0.08800    43124544.00000000 27140810.00000000 68419520.00000000 21227.16210938  1892325.87500000 1500213.12500000 
0.08900    42527284.00000000 26773782.00000000 67482688.00000000 20825.02734375  1860879.00000000 1475457.00000000 
0.09000    41947608.00000000 26417524.00000000 66573824.00000000 20430.31250000  1830106.75000000 1451238.12500000 
0.09100    41383956.00000000 26071740.00000000 65690500.00000000 20042.06640625  1799976.50000000 1427521.62500000 
0.09200    40835300.00000000 25735524.00000000 64831948.00000000 19660.72656250  1770408.50000000 1404276.12500000 
0.09300    40301288.00000000 25408774.00000000 63995872.00000000 19284.96289062  1741418.37500000 1381456.37500000 
0.09400    39780760.00000000 25090478.00000000 63181192.00000000 18914.68554688  1712908.50000000 1359025.25000000 
0.09500    39272468.00000000 24780336.00000000 62386592.00000000 18549.72851562  1684865.62500000 1336974.87500000 
0.09600    38775552.00000000 24477310.00000000 61610440.00000000 18189.38281250  1657258.87500000 1315242.37500000 
0.09700    38290100.00000000 24181322.00000000 60851656.00000000 17834.06250000  1630043.87500000 1293837.50000000 
0.09800    37813536.00000000 23891508.00000000 60108364.00000000 17483.00390625  1603199.50000000 1272714.00000000 
0.09900    37347052.00000000 23607886.00000000 59380412.00000000 17136.06250000  1576680.12500000 1251855.62500000 
0.10000    36888652.00000000 23329192.00000000 58665712.00000000 16793.27343750  1550491.50000000 1231252.62500000 
0.10100    36438164.00000000 23055566.00000000 57963020.00000000 16454.23632812  1524575.87500000 1210851.37500000 
0.10200    35995052.00000000 22786644.00000000 57271804.00000000 16119.03906250  1498948.50000000 1190669.62500000 
0.10300    35558108.00000000 22521674.00000000 56591092.00000000 15787.73242188  1473554.62500000 1170679.50000000 
0.10400    35127228.00000000 22260452.00000000 55919296.00000000 15460.05468750  1448423.75000000 1150870.75000000 
0.10500    34702180.00000000 22002634.00000000 55257008.00000000 15136.12402344  1423502.87500000 1131237.62500000 
0.10600    34281596.00000000 21747470.00000000 54601804.00000000 14815.96289062  1398793.87500000 1111776.00000000 
0.10700    33865784.00000000 21495754.00000000 53954532.00000000 14499.48437500  1374291.75000000 1092469.50000000 
0.10800    33453926.00000000 21246146.00000000 53312488.00000000 14186.83496094  1350004.12500000 1073297.75000000 
0.10900    33046000.00000000 20998636.00000000 52676956.00000000 13878.07226562  1325912.87500000 1054290.12500000 
0.11000    32641532.00000000 20753282.00000000 52046428.00000000 13573.15625000  1302006.00000000 1035415.31250000 
0.11100    32240120.00000000 20509888.00000000 51420852.00000000 13272.27734375  1278291.62500000 1016695.68750000 
0.11200    31841436.00000000 20267918.00000000 50798972.00000000 12975.58203125  1254777.50000000 998109.81250000 
0.11300    31445682.00000000 20027284.00000000 50181452.00000000 12683.00976562  1231454.25000000 979675.18750000 
0.11400    31051976.00000000 19788114.00000000 49567260.00000000 12394.79199219  1208334.75000000 961390.00000000 
0.11500    30660720.00000000 19549992.00000000 48956444.00000000 12111.01269531  1185403.25000000 943255.06250000 
0.11600    30271566.00000000 19313060.00000000 48349064.00000000 11831.66406250  1162681.62500000 925267.25000000 
0.11700    29884508.00000000 19077180.00000000 47744076.00000000 11557.05957031  1140173.75000000 907444.50000000 
0.11800    29499170.00000000 18841826.00000000 47141456.00000000 11286.99121094  1117879.37500000 889774.87500000 
0.11900    29115658.00000000 18607608.00000000 46541988.00000000 11021.75000000  1095791.25000000 872274.37500000 
0.12000    28733892.00000000 18374148.00000000 45944348.00000000 10761.38867188  1073953.37500000 854949.56250000 
0.12100    28354036.00000000 18141520.00000000 45349432.00000000 10506.25781250  1052347.37500000 837810.18750000 
0.12200    27975782.00000000 17909576.00000000 44756564.00000000 10255.81347656  1030985.37500000 820847.00000000 
0.12300    27599436.00000000 17678418.00000000 44166152.00000000 10010.54003906  1009873.62500000 804084.75000000 
0.12400    27224886.00000000 17447970.00000000 43578516.00000000 9770.49609375   989016.81250000 787510.56250000 
0.12500    26851852.00000000 17218344.00000000 42992464.00000000 9535.59082031   968425.37500000 771136.87500000 
0.12600    26480970.00000000 16989528.00000000 42409804.00000000 9305.85449219   948112.68750000 754980.18750000 
0.12700    26112042.00000000 16761529.00000000 41829260.00000000 9081.28515625   928074.43750000 739031.37500000 
0.12800    25744732.00000000 16534447.00000000 41252080.00000000 8861.87207031   908318.37500000 723303.37500000 
0.12900    25379932.00000000 16308357.00000000 40676896.00000000 8647.86035156   888859.43750000 707804.12500000 
0.13000    25016980.00000000 16083244.00000000 40105200.00000000 8438.90136719   869692.06250000 692531.37500000 
0.13100    24656194.00000000 15858961.00000000 39536100.00000000 8235.04003906   850823.87500000 677491.06250000 
0.13200    24297860.00000000 15636042.00000000 38970760.00000000 8036.27783203   832262.81250000 662690.62500000 
0.13300    23941900.00000000 15414200.00000000 38408264.00000000 7842.61035156   814019.12500000 648130.62500000 
0.13400    23588478.00000000 15193644.00000000 37849596.00000000 7653.83740234   796080.50000000 633814.12500000 
0.13500    23237850.00000000 14974286.00000000 37294996.00000000 7469.97998047   778461.87500000 619745.06250000 
0.13600    22889518.00000000 14756330.00000000 36743936.00000000 7290.90673828   761155.06250000 605922.12500000 
0.13700    22544094.00000000 14539785.00000000 36197040.00000000 7116.55566406   744164.93750000 592355.18750000 
0.13800    22201662.00000000 14324710.00000000 35653680.00000000 6946.79003906   727499.50000000 579034.50000000 
0.13900    21862166.00000000 14111331.00000000 35115360.00000000 6781.53808594   711148.31250000 565969.43750000 
0.14000    21525586.00000000 13899444.00000000 34580936.00000000 6620.61181641   695121.56250000 553149.37500000 
0.14100    21192350.00000000 13689275.00000000 34051500.00000000 6464.02392578   679405.31250000 540590.18750000 
0.14200    20862082.00000000 13480850.00000000 33526970.00000000 6311.46630859   664001.93750000 528267.43750000 
0.14300    20535224.00000000 13274314.00000000 33007152.00000000 6162.97314453   648917.31250000 516201.53125000 
0.14400    20211548.00000000 13069438.00000000 32492118.00000000 6018.28466797   634136.50000000 504378.84375000 
0.14500    19891380.00000000 12866575.00000000 31982584.00000000 5877.38232422   619672.87500000 492803.81250000 
0.14600    19574778.00000000 12665653.00000000 31477878.00000000 5740.02197266   605496.87500000 481465.75000000 
0.14700    19261866.00000000 12466835.00000000 30979008.00000000 5606.18603516   591633.18750000 470371.15625000 
0.14800    18952074.00000000 12269981.00000000 30484978.00000000 5475.62548828   578054.93750000 459507.40625000 
0.14900    18645774.00000000 12075133.00000000 29996776.00000000 5348.26416016   564767.75000000 448876.81250000 
0.15000    18343616.00000000 11882521.00000000 29514152.00000000 5224.01806641   551763.12500000 438471.25000000 
0.15100    18044780.00000000 11691978.00000000 29036744.00000000 5102.69433594   539040.12500000 428290.40625000 
0.15200    17749828.00000000 11503544.00000000 28565468.00000000 4984.19042969   526588.56250000 418329.53125000 
0.15300    17458670.00000000 11317520.00000000 28099616.00000000 4868.35693359   514401.53125000 408580.53125000 
0.15400    17170860.00000000 11133565.00000000 27639604.00000000 4755.17089844   502471.21875000 399040.12500000 
0.15500    16886992.00000000 10951884.00000000 27185572.00000000 4644.45214844   490804.18750000 389705.03125000 
0.15600    16606903.00000000 10772431.00000000 26737036.00000000 4536.10693359   479380.31250000 380572.12500000 
0.15700    16330498.00000000 10595219.00000000 26294740.00000000 4430.07958984   468193.21875000 371632.71875000 
0.15800    16057748.00000000 10420312.00000000 25857592.00000000 4326.19921875   457245.28125000 362882.09375000 
0.15900    15788719.00000000 10247688.00000000 25426648.00000000 4224.47753906   446529.62500000 354318.00000000 
0.16000    15523416.00000000 10077337.00000000 25001576.00000000 4124.81591797   436031.21875000 345930.75000000 
0.16100    15261759.00000000 9909236.00000000 24582376.00000000 4027.12451172   425755.46875000 337720.75000000 
0.16200    15003767.00000000 9743376.00000000 24168630.00000000 3931.33496094   415686.59375000 329680.06250000 
0.16300    14749483.00000000 9579792.00000000 23760926.00000000 3837.38818359   405825.09375000 321806.03125000 
0.16400    14498757.00000000 9418462.00000000 23358694.00000000 3745.28515625   396159.31250000 314089.81250000 
0.16500    14251535.00000000 9259497.00000000 22962342.00000000 3654.93090820   386690.40625000 306536.18750000 
0.16600    14008087.00000000 9102590.00000000 22571496.00000000 3566.30200195   377409.84375000 299128.53125000 
0.16700    13767949.00000000 8948072.00000000 22186290.00000000 3479.35131836   368311.00000000 291871.56250000 
0.16800    13531345.00000000 8795548.00000000 21806510.00000000 3394.01782227   359390.34375000 284754.37500000 
0.16900    13298362.00000000 8645410.00000000 21432350.00000000 3310.39306641   350647.96875000 277782.21875000 
0.17000    13068637.00000000 8497367.00000000 21063458.00000000 3228.37304688   342070.09375000 270942.75000000 
