# SAXS profile: number of points = 501, q_min = 0, q_max = 0.5, delta_q = 0.001
#    q    intensity 
0.00000    162236112.00000000 101202400.00000000 256272512.00000000 97740.26562500  7964233.00000000 6290155.50000000 
0.00100    162199184.00000000 101177392.00000000 256210736.00000000 97712.35937500  7962174.00000000 6288496.00000000 
0.00200    162086368.00000000 101105728.00000000 256028912.00000000 97629.12500000  7955881.50000000 6283549.00000000 
0.00300    161894560.00000000 100985592.00000000 255724080.00000000 97489.92187500  7945425.00000000 6275326.50000000 
0.00400    161623856.00000000 100817840.00000000 255299664.00000000 97295.44531250  7930848.50000000 6263830.50000000 
0.00500    161277824.00000000 100603264.00000000 254753952.00000000 97046.47656250  7912166.00000000 6249084.50000000 
0.00600    160855296.00000000 100340168.00000000 254085696.00000000 96743.63281250  7889383.00000000 6231133.00000000 
0.00700    160356976.00000000 100032536.00000000 253303600.00000000 96386.55468750  7862512.00000000 6209945.50000000 
0.00800    159782896.00000000 99678232.00000000 252404496.00000000 95977.11718750  7831669.50000000 6185664.00000000 
0.00900    159137376.00000000 99278400.00000000 251388912.00000000 95514.32812500  7796958.00000000 6158264.00000000 
0.01000    158422592.00000000 98834016.00000000 250261328.00000000 95001.94531250  7758292.50000000 6127816.50000000 
0.01100    157637344.00000000 98346040.00000000 249020160.00000000 94438.75781250  7715864.50000000 6094382.50000000 
0.01200    156781456.00000000 97814272.00000000 247671568.00000000 93826.18750000  7669758.50000000 6057999.50000000 
0.01300    155855568.00000000 97240328.00000000 246213584.00000000 93166.41406250  7619993.00000000 6018779.50000000 
0.01400    154864576.00000000 96625016.00000000 244652944.00000000 92459.21093750  7566729.00000000 5976783.00000000 
0.01500    153808304.00000000 95969960.00000000 242990176.00000000 91707.48437500  7509960.00000000 5932050.00000000 
0.01600    152691552.00000000 95276208.00000000 241229120.00000000 90912.11718750  7449892.50000000 5884699.50000000 
0.01700    151512720.00000000 94544256.00000000 239370432.00000000 90074.33593750  7386582.00000000 5834751.00000000 
0.01800    150274480.00000000 93775528.00000000 237420704.00000000 89196.77343750  7320148.00000000 5782395.00000000 
0.01900    148981344.00000000 92971400.00000000 235379824.00000000 88279.63281250  7250772.50000000 5727669.00000000 
0.02000    147630752.00000000 92133184.00000000 233252480.00000000 87325.60156250  7178494.00000000 5670661.00000000 
0.02100    146227904.00000000 91263224.00000000 231042560.00000000 86336.03906250  7103486.00000000 5611534.50000000 
0.02200    144775664.00000000 90361016.00000000 228754752.00000000 85313.48437500  7025862.50000000 5550360.50000000 
0.02300    143275888.00000000 89429992.00000000 226390224.00000000 84259.66406250  6945809.00000000 5487187.50000000 
0.02400    141731024.00000000 88469800.00000000 223952800.00000000 83175.37500000  6863373.00000000 5422189.00000000 
0.02500    140141744.00000000 87483464.00000000 221448928.00000000 82063.82031250  6778734.50000000 5355473.50000000 
0.02600    138513488.00000000 86471016.00000000 218881856.00000000 80926.64843750  6692052.50000000 5287112.00000000 
0.02700    136847296.00000000 85435024.00000000 216255024.00000000 79765.75781250  6603469.50000000 5217260.00000000 
0.02800    135144960.00000000 84378080.00000000 213570912.00000000 78582.78906250  6513138.00000000 5146005.50000000 
0.02900    133410200.00000000 83300040.00000000 210834496.00000000 77381.04687500  6421176.50000000 5073450.00000000 
0.03000    131644888.00000000 82202768.00000000 208053328.00000000 76160.83593750  6327760.50000000 4999752.00000000 
0.03100    129853208.00000000 81088992.00000000 205227408.00000000 74925.33593750  6232984.50000000 4925012.00000000 
0.03200    128037024.00000000 79959560.00000000 202362128.00000000 73675.97656250  6137110.00000000 4849350.00000000 
0.03300    126197528.00000000 78815544.00000000 199461520.00000000 72415.36718750  6040142.50000000 4772907.50000000 
0.03400    124338384.00000000 77660008.00000000 196529920.00000000 71144.92968750  5942306.00000000 4695678.50000000 
0.03500    122462272.00000000 76492792.00000000 193571536.00000000 69866.50781250  5843732.50000000 4617942.50000000 
0.03600    120572512.00000000 75318080.00000000 190590640.00000000 68583.01562500  5744583.00000000 4539714.00000000 
0.03700    118671296.00000000 74135768.00000000 187591456.00000000 67295.48437500  5644995.50000000 4461124.00000000 
0.03800    116759408.00000000 72946896.00000000 184576960.00000000 66005.91406250  5545097.00000000 4382289.50000000 
0.03900    114842392.00000000 71754384.00000000 181550608.00000000 64716.10546875  5444994.00000000 4303315.50000000 
0.04000    112920560.00000000 70558256.00000000 178518352.00000000 63427.93359375  5344839.50000000 4224274.00000000 
0.04100    110996960.00000000 69360304.00000000 175483696.00000000 62143.10937500  5244801.50000000 4145313.00000000 
0.04200    109073080.00000000 68163520.00000000 172449136.00000000 60863.05468750  5144986.50000000 4066514.75000000 
0.04300    107153208.00000000 66967832.00000000 169419408.00000000 59589.53125000  5045508.00000000 3987982.25000000 
0.04400    105238568.00000000 65775600.00000000 166396160.00000000 58324.43750000  4946384.50000000 3909792.50000000 
0.04500    103330144.00000000 64587644.00000000 163384592.00000000 57068.42968750  4847941.50000000 3832067.75000000 
0.04600    101431560.00000000 63405096.00000000 160389680.00000000 55823.56250000  4750131.00000000 3754859.50000000 
0.04700    99544528.00000000 62229872.00000000 157410912.00000000 54590.74218750  4653148.00000000 3678277.25000000 
0.04800    97671064.00000000 61062636.00000000 154452016.00000000 53371.46484375  4556966.50000000 3602385.25000000 
0.04900    95812432.00000000 59904904.00000000 151518176.00000000 52167.19531250  4461828.00000000 3527253.50000000 
0.05000    93970552.00000000 58757320.00000000 148610704.00000000 50978.46093750  4367750.50000000 3452962.50000000 
0.05100    92147952.00000000 57621568.00000000 145732960.00000000 49806.57421875  4274794.00000000 3379584.00000000 
0.05200    90346104.00000000 56498436.00000000 142887312.00000000 48652.32812500  4183089.25000000 3307167.25000000 
0.05300    88564984.00000000 55388564.00000000 140075712.00000000 47516.63281250  4092670.25000000 3235774.50000000 
0.05400    86808040.00000000 54293044.00000000 137300576.00000000 46400.38671875  4003630.00000000 3165469.50000000 
0.05500    85074832.00000000 53212772.00000000 134563440.00000000 45304.46484375  3916044.00000000 3096286.25000000 
0.05600    83368256.00000000 52148564.00000000 131869800.00000000 44229.26562500  3829943.25000000 3028286.75000000 
0.05700    81688256.00000000 51101244.00000000 129216592.00000000 43175.33203125  3745384.75000000 2961513.75000000 
0.05800    80036200.00000000 50071224.00000000 126607216.00000000 42143.01562500  3662421.50000000 2895984.50000000 
0.05900    78413448.00000000 49059280.00000000 124044800.00000000 41133.14453125  3581079.50000000 2831750.25000000 
0.06000    76820760.00000000 48066148.00000000 121529576.00000000 40145.60156250  3501388.75000000 2768815.00000000 
0.06100    75258544.00000000 47091760.00000000 119062016.00000000 39180.71093750  3423419.25000000 2707243.25000000 
0.06200    73727784.00000000 46137112.00000000 116644152.00000000 38239.14453125  3347145.50000000 2647009.25000000 
0.06300    72228976.00000000 45202548.00000000 114276800.00000000 37320.45312500  3272642.50000000 2588153.50000000 
0.06400    70762376.00000000 44288072.00000000 111960552.00000000 36425.19140625  3199874.50000000 2530692.00000000 
0.06500    69330328.00000000 43393748.00000000 109696904.00000000 35552.71093750  3128870.50000000 2474596.50000000 
0.06600    67929072.00000000 42520528.00000000 107485232.00000000 34703.25781250  3059639.75000000 2419922.00000000 
0.06700    66562296.00000000 41667864.00000000 105325640.00000000 33876.81250000  2992148.00000000 2366641.00000000 
0.06800    65228904.00000000 40836380.00000000 103219584.00000000 33073.04687500  2926452.75000000 2314746.50000000 
0.06900    63929712.00000000 40025824.00000000 101167176.00000000 32292.00390625  2862486.75000000 2264249.00000000 
0.07000    62663000.00000000 39236204.00000000 99167560.00000000 31532.95898438  2800290.25000000 2215124.50000000 
0.07100    61430520.00000000 38468024.00000000 97220664.00000000 30795.85742188  2739801.50000000 2167356.75000000 
0.07200    60230916.00000000 37720012.00000000 95326112.00000000 30079.98828125  2681009.25000000 2120927.25000000 
0.07300    59064716.00000000 36992700.00000000 93484480.00000000 29385.29101562  2623905.25000000 2075863.12500000 
0.07400    57931504.00000000 36286188.00000000 91695112.00000000 28711.23828125  2568455.00000000 2032081.87500000 
0.07500    56830240.00000000 35599652.00000000 89956736.00000000 28057.24218750  2514600.25000000 1989576.25000000 
0.07600    55760968.00000000 34933992.00000000 88268856.00000000 27422.72460938  2462360.25000000 1948336.87500000 
0.07700    54723432.00000000 34287800.00000000 86631120.00000000 26807.54492188  2411669.50000000 1908342.25000000 
0.07800    53716956.00000000 33661324.00000000 85042096.00000000 26210.46093750  2362494.25000000 1869536.62500000 
0.07900    52740400.00000000 33053196.00000000 83501592.00000000 25631.55273438  2314784.50000000 1831903.62500000 
0.08000    51793844.00000000 32464498.00000000 82008256.00000000 25069.77734375  2268549.00000000 1795398.87500000 
0.08100    50876428.00000000 31893778.00000000 80560640.00000000 24524.85546875  2223670.25000000 1760012.50000000 
0.08200    49987088.00000000 31340868.00000000 79159080.00000000 23995.62304688  2180135.75000000 1725669.00000000 
0.08300    49125580.00000000 30805316.00000000 77799712.00000000 23482.12304688  2137909.50000000 1692369.25000000 
0.08400    48290764.00000000 30286922.00000000 76484288.00000000 22983.24804688  2096925.62500000 1660057.00000000 
0.08500    47482044.00000000 29784776.00000000 75209528.00000000 22498.55859375  2057143.87500000 1628712.25000000 
0.08600    46698728.00000000 29298680.00000000 73974568.00000000 22027.37500000  2018535.00000000 1598279.62500000 
0.08700    45939120.00000000 28827918.00000000 72779024.00000000 21569.07031250  1981020.75000000 1568722.87500000 
0.08800    45203196.00000000 28371804.00000000 71620264.00000000 21123.04296875  1944568.37500000 1539997.75000000 
0.08900    44489900.00000000 27930156.00000000 70497544.00000000 20688.59960938  1909130.00000000 1512087.00000000 
0.09000    43798304.00000000 27502072.00000000 69409896.00000000 20265.41992188  1874664.50000000 1484925.62500000 
0.09100    43127508.00000000 27087430.00000000 68354480.00000000 19852.59765625  1841095.75000000 1458500.37500000 
0.09200    42476496.00000000 26685278.00000000 67330912.00000000 19449.69531250  1808404.50000000 1432768.25000000 
0.09300    41844692.00000000 26295284.00000000 66337908.00000000 19056.18554688  1776531.37500000 1407674.62500000 
0.09400    41230776.00000000 25916742.00000000 65373612.00000000 18671.53125000  1745436.37500000 1383197.37500000 
0.09500    40634144.00000000 25549084.00000000 64436212.00000000 18295.02148438  1715060.12500000 1359305.00000000 
0.09600    40053820.00000000 25191732.00000000 63525832.00000000 17926.65820312  1685385.37500000 1335955.87500000 
0.09700    39488928.00000000 24844266.00000000 62639568.00000000 17565.30468750  1656349.75000000 1313114.37500000 
0.09800    38938992.00000000 24506266.00000000 61776848.00000000 17211.17773438  1627950.12500000 1290763.37500000 
0.09900    38402364.00000000 24176836.00000000 60936508.00000000 16863.45117188  1600078.87500000 1268845.00000000 
0.10000    37879096.00000000 23855724.00000000 60115812.00000000 16521.96093750  1572752.87500000 1247352.12500000 
0.10100    37367920.00000000 23542548.00000000 59315500.00000000 16186.21582031  1545918.00000000 1226243.00000000 
0.10200    36867936.00000000 23236386.00000000 58533248.00000000 15855.89746094  1519547.00000000 1205504.12500000 
0.10300    36379352.00000000 22937116.00000000 57767632.00000000 15530.72363281  1493608.00000000 1185111.12500000 
0.10400    35900132.00000000 22644164.00000000 57018180.00000000 15210.45800781  1468058.62500000 1165009.75000000 
0.10500    35430468.00000000 22357092.00000000 56283800.00000000 14894.77636719  1442894.00000000 1145213.75000000 
0.10600    34969308.00000000 22075470.00000000 55562464.00000000 14583.39550781  1418063.62500000 1125672.87500000 
0.10700    34516120.00000000 21798972.00000000 54854144.00000000 14276.20019531  1393543.50000000 1106396.00000000 
0.10800    34069876.00000000 21527120.00000000 54157568.00000000 13972.96289062  1369324.75000000 1087337.50000000 
0.10900    33630940.00000000 21259580.00000000 53471792.00000000 13673.58203125  1345387.62500000 1068505.75000000 
0.11000    33198112.00000000 20995758.00000000 52795956.00000000 13377.90332031  1321703.62500000 1049864.25000000 
0.11100    32771192.00000000 20735734.00000000 52128808.00000000 13085.78710938  1298259.12500000 1031399.31250000 
0.11200    32349374.00000000 20479088.00000000 51470644.00000000 12797.14746094  1275043.00000000 1013118.62500000 
0.11300    31932312.00000000 20225298.00000000 50819528.00000000 12511.90820312  1252026.62500000 994999.68750000 
0.11400    31519932.00000000 19974238.00000000 50175596.00000000 12230.01367188  1229219.50000000 977019.43750000 
0.11500    31111346.00000000 19725602.00000000 49537932.00000000 11951.47167969  1206599.62500000 959190.75000000 
0.11600    30706500.00000000 19479338.00000000 48905840.00000000 11676.24023438  1184160.12500000 941506.25000000 
0.11700    30305118.00000000 19234960.00000000 48279544.00000000 11404.34570312  1161895.12500000 923941.06250000 
0.11800    29906674.00000000 18992502.00000000 47657376.00000000 11135.72558594  1139802.25000000 906508.31250000 
0.11900    29510948.00000000 18751626.00000000 47039956.00000000 10870.35156250  1117870.87500000 889196.62500000 
0.12000    29117696.00000000 18512266.00000000 46425616.00000000 10608.43847656  1096096.37500000 872000.18750000 
0.12100    28727240.00000000 18274256.00000000 45815604.00000000 10350.01464844  1074491.25000000 854938.12500000 
0.12200    28338716.00000000 18037558.00000000 45208812.00000000 10095.03613281  1053055.37500000 837987.43750000 
0.12300    27952444.00000000 17802130.00000000 44605220.00000000 9843.51953125   1031771.50000000 821157.93750000 
0.12400    27567776.00000000 17567482.00000000 44004068.00000000 9595.68457031   1010648.00000000 804456.81250000 
0.12500    27185226.00000000 17333816.00000000 43405740.00000000 9351.47265625   989699.18750000 787868.43750000 
0.12600    26804626.00000000 17101164.00000000 42810224.00000000 9111.18359375   968928.12500000 771423.06250000 
0.12700    26425264.00000000 16869412.00000000 42216748.00000000 8874.59863281   948322.00000000 755100.50000000 
0.12800    26047852.00000000 16638422.00000000 41625936.00000000 8641.91894531   927904.25000000 738915.25000000 
0.12900    25672066.00000000 16408343.00000000 41037952.00000000 8413.25585938   907676.06250000 722871.75000000 
0.13000    25298038.00000000 16179092.00000000 40451592.00000000 8188.79589844   887636.06250000 706975.87500000 
0.13100    24925726.00000000 15950526.00000000 39867696.00000000 7968.41308594   867797.62500000 691227.43750000 
0.13200    24555086.00000000 15722860.00000000 39286236.00000000 7752.17968750   848168.43750000 675628.00000000 
0.13300    24186262.00000000 15496177.00000000 38707572.00000000 7540.35791016   828757.81250000 660198.68750000 
0.13400    23819160.00000000 15270332.00000000 38131396.00000000 7332.82226562   809560.37500000 644947.12500000 
0.13500    23454068.00000000 15045480.00000000 37558124.00000000 7129.76904297   790602.12500000 629857.37500000 
0.13600    23090954.00000000 14821509.00000000 36987352.00000000 6931.17871094   771875.00000000 614950.68750000 
0.13700    22729980.00000000 14598730.00000000 36419848.00000000 6737.11669922   753396.18750000 600234.87500000 
0.13800    22371396.00000000 14376949.00000000 35855668.00000000 6547.62548828   735161.18750000 585710.06250000 
0.13900    22015060.00000000 14156485.00000000 35294624.00000000 6362.73779297   717193.75000000 571383.75000000 
0.14000    21661030.00000000 13937193.00000000 34737380.00000000 6182.47900391   699489.50000000 557266.31250000 
0.14100    21309614.00000000 13719204.00000000 34183256.00000000 6006.86914062   682055.18750000 543358.18750000 
0.14200    20960932.00000000 13502715.00000000 33633560.00000000 5835.80273438   664900.68750000 529663.43750000 
0.14300    20615104.00000000 13287649.00000000 33087850.00000000 5669.45458984   648035.87500000 516187.09375000 
0.14400    20272050.00000000 13074034.00000000 32546230.00000000 5507.71191406   631459.37500000 502937.46875000 
0.14500    19931952.00000000 12862220.00000000 32009310.00000000 5350.62646484   615177.75000000 489918.43750000 
0.14600    19595290.00000000 12652076.00000000 31476948.00000000 5198.08398438   599190.31250000 477134.34375000 
0.14700    19261826.00000000 12443727.00000000 30949404.00000000 5050.14355469   583514.50000000 464588.25000000 
0.14800    18931736.00000000 12237241.00000000 30427138.00000000 4906.62597656   568134.12500000 452278.09375000 
0.14900    18605034.00000000 12032712.00000000 29910062.00000000 4767.57275391   553065.81250000 440210.71875000 
0.15000    18281930.00000000 11830187.00000000 29398216.00000000 4632.89062500   538318.81250000 428388.84375000 
0.15100    17962812.00000000 11629709.00000000 28892188.00000000 4502.51904297   523878.12500000 416815.65625000 
0.15200    17647424.00000000 11431545.00000000 28391774.00000000 4376.43701172   509755.09375000 405489.65625000 
0.15300    17335884.00000000 11235488.00000000 27897230.00000000 4254.48974609   495946.68750000 394411.96875000 
0.15400    17028266.00000000 11041725.00000000 27408862.00000000 4136.58837891   482450.53125000 383580.71875000 
0.15500    16724716.00000000 10850275.00000000 26926766.00000000 4022.67944336   469272.15625000 373005.59375000 
0.15600    16425526.00000000 10661212.00000000 26450706.00000000 3912.58837891   456403.06250000 362672.00000000 
0.15700    16130481.00000000 10474637.00000000 25981282.00000000 3806.33203125   443850.93750000 352593.18750000 
0.15800    15839404.00000000 10290425.00000000 25518164.00000000 3703.64819336   431603.46875000 342751.12500000 
0.15900    15552890.00000000 10108896.00000000 25061878.00000000 3604.56860352   419665.65625000 333159.31250000 
0.16000    15270674.00000000 9929878.00000000 24612174.00000000 3508.89257812   408030.59375000 323808.09375000 
0.16100    14992886.00000000 9753459.00000000 24169304.00000000 3416.55029297   396694.12500000 314694.93750000 
0.16200    14719431.00000000 9579542.00000000 23733136.00000000 3327.41943359   385657.21875000 305823.00000000 
0.16300    14450441.00000000 9408380.00000000 23303768.00000000 3241.29931641   374906.84375000 297181.62500000 
0.16400    14185940.00000000 9239812.00000000 22881378.00000000 3158.18115234   364446.90625000 288772.81250000 
0.16500    13925785.00000000 9073851.00000000 22465922.00000000 3077.85668945   354270.90625000 280585.90625000 
0.16600    13670120.00000000 8910646.00000000 22057232.00000000 3000.26733398   344364.93750000 272622.34375000 
0.16700    13418808.00000000 8750035.00000000 21655448.00000000 2925.23095703   334733.43750000 264876.81250000 
0.16800    13171931.00000000 8592136.00000000 21260548.00000000 2852.68164062   325362.28125000 257341.45312500 
0.16900    12929509.00000000 8436918.00000000 20872494.00000000 2782.49194336   316251.93750000 250016.98437500 
0.17000    12691383.00000000 8284337.50000000 20491148.00000000 2714.54663086   307393.96875000 242896.21875000 
