# SAXS profile: number of points = 501, q_min = 0, q_max = 0.5, delta_q = 0.001
#    q    intensity 
0.00000    162234480.00000000 101202224.00000000 256270464.00000000 96477.91406250  7912626.50000000 6249412.00000000 
0.00100    162196096.00000000 101176192.00000000 256206800.00000000 96447.72656250  7910393.00000000 6247623.50000000 
0.00200    162076880.00000000 101099496.00000000 256011952.00000000 96358.02343750  7903655.50000000 6242332.50000000 
0.00300    161872416.00000000 100971704.00000000 255689920.00000000 96208.45312500  7892489.50000000 6233529.50000000 
0.00400    161583104.00000000 100794216.00000000 255235440.00000000 95999.07812500  7876855.00000000 6221229.00000000 
0.00500    161213744.00000000 100566096.00000000 254654816.00000000 95731.53906250  7856869.00000000 6205472.50000000 
0.00600    160762544.00000000 100286624.00000000 253945520.00000000 95405.83593750  7832447.50000000 6186253.00000000 
0.00700    160230416.00000000 99958152.00000000 253112432.00000000 95021.97656250  7803708.50000000 6163661.50000000 
0.00800    159620016.00000000 99581648.00000000 252156304.00000000 94581.26562500  7770764.00000000 6137729.00000000 
0.00900    158933616.00000000 99158496.00000000 251076288.00000000 94085.12500000  7733585.00000000 6108421.50000000 
0.01000    158172352.00000000 98687080.00000000 249875696.00000000 93533.96093750  7692339.00000000 6075926.00000000 
0.01100    157337680.00000000 98167864.00000000 248559120.00000000 92929.77343750  7647053.50000000 6040289.50000000 
0.01200    156426208.00000000 97604208.00000000 247125888.00000000 92273.03125000  7597790.50000000 6001522.00000000 
0.01300    155442864.00000000 96996472.00000000 245579488.00000000 91566.67187500  7544721.50000000 5959736.00000000 
0.01400    154390464.00000000 96344200.00000000 243923696.00000000 90811.12500000  7487923.50000000 5915012.00000000 
0.01500    153271152.00000000 95651496.00000000 242161968.00000000 90007.39062500  7427527.00000000 5867462.50000000 
0.01600    152085200.00000000 94917328.00000000 240294144.00000000 89158.09375000  7363610.00000000 5817140.00000000 
0.01700    150834640.00000000 94143448.00000000 238328768.00000000 88265.83593750  7296389.00000000 5764136.00000000 
0.01800    149524800.00000000 93331016.00000000 236265072.00000000 87330.70312500  7225823.00000000 5708648.50000000 
0.01900    148154032.00000000 92483032.00000000 234108544.00000000 86354.87500000  7152262.50000000 5650646.50000000 
0.02000    146728128.00000000 91599168.00000000 231861952.00000000 85342.41406250  7075679.50000000 5590347.00000000 
0.02100    145247632.00000000 90682456.00000000 229532496.00000000 84293.46875000  6996345.50000000 5527868.00000000 
0.02200    143714704.00000000 89732784.00000000 227119088.00000000 83210.53125000  6914323.00000000 5463228.50000000 
0.02300    142132752.00000000 88752936.00000000 224630064.00000000 82096.48437500  6829768.50000000 5396654.00000000 
0.02400    140505456.00000000 87744472.00000000 222068096.00000000 80952.43750000  6742906.50000000 5328186.00000000 
0.02500    138836032.00000000 86709056.00000000 219437120.00000000 79782.01562500  6653842.00000000 5258064.50000000 
0.02600    137124464.00000000 85648432.00000000 216744336.00000000 78585.74218750  6562781.50000000 5186287.50000000 
0.02700    135376752.00000000 84564024.00000000 213989488.00000000 77367.55468750  6469827.00000000 5113048.00000000 
0.02800    133592840.00000000 83457832.00000000 211179840.00000000 76128.54687500  6375167.00000000 5038429.00000000 
0.02900    131777680.00000000 82332584.00000000 208321280.00000000 74871.78125000  6278956.50000000 4962637.00000000 
0.03000    129932760.00000000 81187536.00000000 205415872.00000000 73599.50781250  6181447.50000000 4885785.50000000 
0.03100    128063088.00000000 80027288.00000000 202469792.00000000 72313.67968750  6082680.50000000 4807945.00000000 
0.03200    126169384.00000000 78851800.00000000 199486080.00000000 71015.90625000  5982899.50000000 4729259.00000000 
0.03300    124256176.00000000 77664184.00000000 196469568.00000000 69709.91406250  5882179.00000000 4649894.00000000 
0.03400    122324600.00000000 76464920.00000000 193427184.00000000 68396.43750000  5780829.50000000 4569928.00000000 
0.03500    120379712.00000000 75258464.00000000 190361504.00000000 67078.83593750  5678858.00000000 4489544.50000000 
0.03600    118421376.00000000 74042880.00000000 187277952.00000000 65758.43750000  5576495.50000000 4408889.50000000 
0.03700    116455736.00000000 72821952.00000000 184175792.00000000 64437.52734375  5473932.50000000 4327906.50000000 
0.03800    114483528.00000000 71596296.00000000 181066944.00000000 63117.90234375  5371157.00000000 4246893.00000000 
0.03900    112508216.00000000 70368400.00000000 177953696.00000000 61801.54687500  5268497.50000000 4165909.50000000 
0.04000    110531568.00000000 69138720.00000000 174837296.00000000 60490.40625000  5166038.00000000 4085044.25000000 
0.04100    108556832.00000000 67911072.00000000 171722832.00000000 59186.53515625  5063813.00000000 4004433.00000000 
0.04200    106586688.00000000 66686320.00000000 168614624.00000000 57890.46875000  4962105.50000000 3924168.50000000 
0.04300    104623048.00000000 65464416.00000000 165517168.00000000 56605.25781250  4860956.50000000 3844356.75000000 
0.04400    102668224.00000000 64248444.00000000 162433184.00000000 55331.80468750  4760527.50000000 3765094.00000000 
0.04500    100725248.00000000 63039164.00000000 159366816.00000000 54071.84765625  4660925.00000000 3686451.25000000 
0.04600    98795512.00000000 61838108.00000000 156321600.00000000 52826.24609375  4562193.00000000 3608549.25000000 
0.04700    96880296.00000000 60646468.00000000 153300512.00000000 51596.83203125  4464536.00000000 3531440.25000000 
0.04800    94983592.00000000 59465080.00000000 150305696.00000000 50384.45703125  4368017.50000000 3455228.50000000 
0.04900    93106112.00000000 58295928.00000000 147342480.00000000 49190.26171875  4272687.00000000 3379966.00000000 
0.05000    91249856.00000000 57139596.00000000 144411504.00000000 48015.78125000  4178685.75000000 3305751.75000000 
0.05100    89416688.00000000 55997172.00000000 141518016.00000000 46861.25390625  4086087.25000000 3232638.75000000 
0.05200    87607824.00000000 54870048.00000000 138662064.00000000 45727.73046875  3994935.25000000 3160646.75000000 
0.05300    85825384.00000000 53758968.00000000 135848640.00000000 44616.10937500  3905347.25000000 3089864.00000000 
0.05400    84069168.00000000 52664336.00000000 133075416.00000000 43526.83593750  3817312.75000000 3020354.00000000 
0.05500    82341672.00000000 51587436.00000000 130348832.00000000 42460.65625000  3730963.25000000 2952132.50000000 
0.05600    80645424.00000000 50528940.00000000 127667264.00000000 41417.80859375  3646318.25000000 2885244.75000000 
0.05700    78978656.00000000 49489644.00000000 125035248.00000000 40399.16015625  3563388.50000000 2819739.75000000 
0.05800    77343952.00000000 48470152.00000000 122453360.00000000 39404.34765625  3482245.25000000 2755623.25000000 
0.05900    75741712.00000000 47470764.00000000 119922336.00000000 38433.69531250  3402923.75000000 2692935.75000000 
0.06000    74173120.00000000 46491808.00000000 117443488.00000000 37488.03515625  3325424.25000000 2631676.25000000 
0.06100    72638000.00000000 45533744.00000000 115018704.00000000 36566.35156250  3249764.75000000 2571907.50000000 
0.06200    71138032.00000000 44597580.00000000 112647600.00000000 35669.91015625  3175983.50000000 2513581.00000000 
0.06300    69672064.00000000 43682708.00000000 110332656.00000000 34797.63281250  3104043.75000000 2456745.00000000 
0.06400    68241368.00000000 42790232.00000000 108071864.00000000 33949.66015625  3033996.50000000 2401379.50000000 
0.06500    66847032.00000000 41919120.00000000 105867552.00000000 33126.17578125  2965824.00000000 2347509.00000000 
0.06600    65487364.00000000 41070524.00000000 103721008.00000000 32326.08203125  2899483.00000000 2295091.75000000 
0.06700    64163440.00000000 40244152.00000000 101628192.00000000 31549.70312500  2835027.50000000 2244132.75000000 
0.06800    62875060.00000000 39439760.00000000 99592576.00000000 30796.16992188  2772363.50000000 2194621.00000000 
0.06900    61622448.00000000 38657960.00000000 97612736.00000000 30065.64257812  2711548.25000000 2146545.50000000 
0.07000    60404552.00000000 37897664.00000000 95687952.00000000 29357.47460938  2652485.25000000 2099896.00000000 
0.07100    59222036.00000000 37159680.00000000 93819232.00000000 28670.86718750  2595181.50000000 2054609.75000000 
0.07200    58073572.00000000 36443084.00000000 92005376.00000000 28005.64843750  2539603.25000000 2010720.25000000 
0.07300    56959464.00000000 35748160.00000000 90245192.00000000 27361.04492188  2485741.50000000 1968139.12500000 
0.07400    55879200.00000000 35074264.00000000 88538568.00000000 26736.23632812  2433514.75000000 1926876.75000000 
0.07500    54831676.00000000 34421012.00000000 86884408.00000000 26131.27734375  2382899.75000000 1886901.50000000 
0.07600    53816576.00000000 33788368.00000000 85281376.00000000 25544.59375000  2333836.00000000 1848157.75000000 
0.07700    52833992.00000000 33175680.00000000 83729136.00000000 24976.47265625  2286328.50000000 1810638.50000000 
0.07800    51881512.00000000 32582796.00000000 82226040.00000000 24425.79492188  2240271.50000000 1774284.62500000 
0.07900    50959824.00000000 32008530.00000000 80771648.00000000 23891.87695312  2195686.00000000 1739060.75000000 
0.08000    50067844.00000000 31453296.00000000 79363936.00000000 23374.01367188  2152433.50000000 1704944.62500000 
0.08100    49204312.00000000 30916346.00000000 78002008.00000000 22871.72460938  2110544.00000000 1671881.12500000 
0.08200    48368912.00000000 30396910.00000000 76683952.00000000 22384.19726562  2069937.00000000 1639847.50000000 
0.08300    47560376.00000000 29894412.00000000 75409808.00000000 21910.68945312  2030534.62500000 1608760.12500000 
0.08400    46778292.00000000 29408478.00000000 74176488.00000000 21450.60156250  1992338.62500000 1578626.12500000 
0.08500    46020868.00000000 28938696.00000000 72983448.00000000 21003.59179688  1955262.25000000 1549399.12500000 
0.08600    45287976.00000000 28484078.00000000 71829312.00000000 20568.66015625  1919253.87500000 1521025.12500000 
0.08700    44578344.00000000 28044570.00000000 70711248.00000000 20145.30664062  1884296.50000000 1493479.00000000 
0.08800    43891028.00000000 27619102.00000000 69629728.00000000 19732.86328125  1850299.62500000 1466696.37500000 
0.08900    43225168.00000000 27207246.00000000 68582368.00000000 19331.11914062  1817250.62500000 1440640.12500000 
0.09000    42579768.00000000 26808374.00000000 67567848.00000000 18938.91210938  1785071.37500000 1415294.00000000 
0.09100    41953976.00000000 26421954.00000000 66584292.00000000 18556.02734375  1753715.12500000 1390613.37500000 
0.09200    41346852.00000000 26047338.00000000 65630076.00000000 18182.07812500  1723170.00000000 1366553.25000000 
0.09300    40757176.00000000 25684134.00000000 64704348.00000000 17816.42968750  1693355.12500000 1343099.50000000 
0.09400    40184204.00000000 25331440.00000000 63805368.00000000 17458.58203125  1664246.62500000 1320177.25000000 
0.09500    39627388.00000000 24988824.00000000 62931584.00000000 17108.30468750  1635781.25000000 1297791.37500000 
0.09600    39085620.00000000 24655800.00000000 62081652.00000000 16764.91210938  1607952.12500000 1275893.25000000 
0.09700    38557872.00000000 24331824.00000000 61254228.00000000 16428.28515625  1580701.50000000 1254455.25000000 
0.09800    38043072.00000000 24016250.00000000 60448244.00000000 16097.96289062  1553998.00000000 1233459.12500000 
0.09900    37541172.00000000 23708522.00000000 59662308.00000000 15773.53515625  1527803.12500000 1212863.25000000 
0.10000    37050876.00000000 23408358.00000000 58894748.00000000 15454.82031250  1502103.75000000 1192649.00000000 
0.10100    36571304.00000000 23115298.00000000 58144836.00000000 15141.61132812  1476844.50000000 1172772.37500000 
0.10200    36102356.00000000 22828446.00000000 57410912.00000000 14833.41210938  1451995.75000000 1153236.62500000 
0.10300    35642464.00000000 22547640.00000000 56692256.00000000 14530.24121094  1427541.37500000 1134002.62500000 
0.10400    35191800.00000000 22272468.00000000 55987320.00000000 14231.87988281  1403467.50000000 1115071.50000000 
0.10500    34749424.00000000 22002648.00000000 55295996.00000000 13938.18359375  1379732.87500000 1096407.00000000 
0.10600    34314216.00000000 21737476.00000000 54616048.00000000 13648.62402344  1356332.00000000 1077981.50000000 
0.10700    33886284.00000000 21476502.00000000 53947680.00000000 13363.55761719  1333227.12500000 1059809.50000000 
0.10800    33464802.00000000 21219862.00000000 53289380.00000000 13082.60839844  1310417.75000000 1041853.75000000 
0.10900    33049536.00000000 20966790.00000000 52640960.00000000 12805.76269531  1287875.37500000 1024108.68750000 
0.11000    32639494.00000000 20717052.00000000 52000708.00000000 12532.90625000  1265594.00000000 1006563.68750000 
0.11100    32234292.00000000 20470762.00000000 51368240.00000000 12264.03613281  1243574.12500000 989209.37500000 
0.11200    31834234.00000000 20226934.00000000 50743468.00000000 11999.05468750  1221771.50000000 972029.75000000 
0.11300    31438296.00000000 19985710.00000000 50125380.00000000 11737.85156250  1200201.37500000 955028.43750000 
0.11400    31046414.00000000 19746878.00000000 49513280.00000000 11480.65820312  1178852.00000000 938194.31250000 
0.11500    30658016.00000000 19510216.00000000 48906368.00000000 11227.14746094  1157727.62500000 921520.37500000 
0.11600    30272938.00000000 19275534.00000000 48305092.00000000 10977.62695312  1136800.62500000 904996.50000000 
0.11700    29891282.00000000 19042606.00000000 47708200.00000000 10731.83496094  1116087.00000000 888635.31250000 
0.11800    29512018.00000000 18811078.00000000 47115604.00000000 10489.79101562  1095560.50000000 872415.87500000 
0.11900    29135666.00000000 18581388.00000000 46526848.00000000 10251.75683594  1075250.25000000 856354.25000000 
0.12000    28761634.00000000 18352726.00000000 45941676.00000000 10017.42968750  1055112.87500000 840431.75000000 
0.12100    28389994.00000000 18125466.00000000 45360304.00000000 9787.10742188   1035190.43750000 824669.18750000 
0.12200    28020762.00000000 17899282.00000000 44782040.00000000 9560.62695312   1015465.81250000 809049.18750000 
0.12300    27653528.00000000 17674102.00000000 44206448.00000000 9338.14453125   995935.00000000 793579.00000000 
0.12400    27288136.00000000 17450058.00000000 43633844.00000000 9119.51171875   976606.93750000 778254.50000000 
0.12500    26924908.00000000 17226830.00000000 43063928.00000000 8904.93261719   957484.12500000 763087.75000000 
0.12600    26563404.00000000 17004596.00000000 42497052.00000000 8694.28906250   938570.68750000 748070.62500000 
0.12700    26203930.00000000 16783194.00000000 41932140.00000000 8487.62207031   919855.00000000 733214.37500000 
0.12800    25846270.00000000 16562705.00000000 41370312.00000000 8284.95019531   901357.62500000 718513.37500000 
0.12900    25490344.00000000 16343087.00000000 40811048.00000000 8086.40527344   883076.31250000 703984.81250000 
0.13000    25136350.00000000 16124302.00000000 40254020.00000000 7891.74902344   865005.43750000 689617.75000000 
0.13100    24784180.00000000 15906378.00000000 39699540.00000000 7701.09619141   847161.68750000 675409.93750000 
0.13200    24433998.00000000 15689405.00000000 39148264.00000000 7514.45263672   829547.25000000 661376.37500000 
0.13300    24085904.00000000 15473340.00000000 38599368.00000000 7331.76562500   812151.25000000 647522.31250000 
0.13400    23739720.00000000 15258161.00000000 38053520.00000000 7153.07080078   794984.06250000 633839.43750000 
0.13500    23395718.00000000 15044130.00000000 37510220.00000000 6978.22998047   778057.75000000 620331.06250000 
0.13600    23053618.00000000 14831090.00000000 36970384.00000000 6807.34179688   761367.75000000 607015.12500000 
0.13700    22713926.00000000 14619120.00000000 36433148.00000000 6640.23779297   744916.31250000 593885.25000000 
0.13800    22376432.00000000 14408242.00000000 35899644.00000000 6477.00976562   728702.00000000 580931.62500000 
0.13900    22041402.00000000 14198530.00000000 35369292.00000000 6317.48144531   712738.62500000 568171.25000000 
0.14000    21708612.00000000 13990220.00000000 34842796.00000000 6161.70605469   697017.18750000 555609.62500000 
0.14100    21378560.00000000 13783069.00000000 34319516.00000000 6009.46582031   681544.37500000 543229.06250000 
0.14200    21051026.00000000 13577340.00000000 33800052.00000000 5860.87109375   666322.00000000 531045.56250000 
0.14300    20726306.00000000 13372939.00000000 33284686.00000000 5715.73095703   651343.81250000 519057.81250000 
0.14400    20404002.00000000 13170128.00000000 32773186.00000000 5574.00732422   636611.12500000 507266.59375000 
0.14500    20084840.00000000 12968703.00000000 32265932.00000000 5435.69482422   622137.18750000 495673.18750000 
0.14600    19768366.00000000 12768965.00000000 31762804.00000000 5300.58056641   607913.25000000 484272.46875000 
0.14700    19454942.00000000 12570895.00000000 31264368.00000000 5168.71435547   593930.56250000 473071.06250000 
0.14800    19144658.00000000 12374406.00000000 30770420.00000000 5039.89501953   580198.50000000 462061.81250000 
0.14900    18837216.00000000 12179689.00000000 30281232.00000000 4914.12500000   566710.81250000 451251.53125000 
0.15000    18533162.00000000 11986728.00000000 29796650.00000000 4791.27685547   553470.81250000 440630.96875000 
0.15100    18232376.00000000 11795637.00000000 29316884.00000000 4671.28027344   540472.62500000 430207.18750000 
0.15200    17934884.00000000 11606512.00000000 28842394.00000000 4554.08105469   527717.25000000 419976.34375000 
0.15300    17640516.00000000 11419224.00000000 28372894.00000000 4439.55712891   515201.15625000 409937.78125000 
0.15400    17349532.00000000 11233834.00000000 27908274.00000000 4327.56738281   502920.81250000 400083.18750000 
0.15500    17062166.00000000 11050557.00000000 27449156.00000000 4218.14111328   490874.40625000 390421.78125000 
0.15600    16777986.00000000 10869247.00000000 26995336.00000000 4111.12500000   479052.81250000 380939.21875000 
0.15700    16497737.00000000 10690027.00000000 26546850.00000000 4006.53173828   467464.25000000 371644.43750000 
0.15800    16220692.00000000 10512855.00000000 26103526.00000000 3904.14648438   456096.31250000 362527.00000000 
0.15900    15947186.00000000 10337814.00000000 25666080.00000000 3804.03149414   444950.62500000 353590.56250000 
0.16000    15677152.00000000 10164878.00000000 25233744.00000000 3706.00366211   434020.03125000 344825.65625000 
0.16100    15410779.00000000 9994136.00000000 24807418.00000000 3610.11425781   423306.84375000 336239.31250000 
0.16200    15147890.00000000 9825591.00000000 24386248.00000000 3516.22412109   412802.31250000 327817.96875000 
0.16300    14888641.00000000 9659132.00000000 23970774.00000000 3424.27172852   402504.96875000 319564.43750000 
0.16400    14632839.00000000 9494944.00000000 23561052.00000000 3334.29443359   392409.37500000 311477.93750000 
0.16500    14380749.00000000 9332926.00000000 23156810.00000000 3246.14208984   382514.78125000 303554.68750000 
0.16600    14132160.00000000 9173088.00000000 22758196.00000000 3159.80786133   372815.21875000 295788.53125000 
0.16700    13887101.00000000 9015505.00000000 22365062.00000000 3075.25854492   363307.78125000 288181.00000000 
0.16800    13645557.00000000 8860042.00000000 21977662.00000000 2992.44238281   353990.25000000 280721.96875000 
0.16900    13407584.00000000 8706917.00000000 21595960.00000000 2911.37475586   344858.75000000 273417.50000000 
0.17000    13173144.00000000 8555774.00000000 21219622.00000000 2831.97436523   335908.87500000 266260.43750000 
