# SAXS profile: number of points = 501, q_min = 0, q_max = 0.5, delta_q = 0.001
#    q    intensity 
0.00000    162234736.00000000 101202256.00000000 256270928.00000000 105259.60156250 8264932.50000000 6527630.50000000 
0.00100    162201680.00000000 101180568.00000000 256216064.00000000 105230.96875000 8262889.00000000 6526032.00000000 
0.00200    162099808.00000000 101115760.00000000 256052176.00000000 105146.05468750 8256847.50000000 6521254.00000000 
0.00300    161929504.00000000 101008872.00000000 255779072.00000000 105003.86718750 8246742.00000000 6513314.00000000 
0.00400    161685248.00000000 100858816.00000000 255396672.00000000 104805.45312500 8232677.00000000 6502258.50000000 
0.00500    161372112.00000000 100665896.00000000 254906624.00000000 104550.89843750 8214564.00000000 6488049.50000000 
0.00600    160988544.00000000 100429808.00000000 254305216.00000000 104240.41406250 8192509.50000000 6470678.00000000 
0.00700    160540864.00000000 100153520.00000000 253601232.00000000 103875.33593750 8166553.50000000 6450257.00000000 
0.00800    160019856.00000000 99835224.00000000 252790448.00000000 103455.69531250 8136676.50000000 6426789.50000000 
0.00900    159436048.00000000 99475672.00000000 251874432.00000000 102982.75000000 8103008.00000000 6400317.50000000 
0.01000    158787408.00000000 99076576.00000000 250857536.00000000 102456.22656250 8065539.50000000 6370836.50000000 
0.01100    158075008.00000000 98637680.00000000 249736272.00000000 101878.07812500 8024351.50000000 6338481.50000000 
0.01200    157299792.00000000 98158264.00000000 248516224.00000000 101249.60156250 7979510.00000000 6303259.50000000 
0.01300    156458432.00000000 97640528.00000000 247196432.00000000 100570.55468750 7931158.00000000 6265159.50000000 
0.01400    155556176.00000000 97083992.00000000 245780368.00000000 99842.93750000  7879269.00000000 6224375.00000000 
0.01500    154594288.00000000 96491336.00000000 244271392.00000000 99068.46875000  7823964.00000000 6180900.50000000 
0.01600    153574560.00000000 95863240.00000000 242669296.00000000 98247.87500000  7765336.00000000 6134808.00000000 
0.01700    152497648.00000000 95198704.00000000 240976768.00000000 97382.37500000  7703477.50000000 6086173.00000000 
0.01800    151364000.00000000 94500304.00000000 239198544.00000000 96474.63281250  7638460.50000000 6035082.50000000 
0.01900    150177024.00000000 93767792.00000000 237333168.00000000 95524.29687500  7570452.00000000 5981553.00000000 
0.02000    148937104.00000000 93003256.00000000 235385952.00000000 94535.56250000  7499492.00000000 5925734.00000000 
0.02100    147646640.00000000 92207720.00000000 233358592.00000000 93507.30468750  7425749.00000000 5867710.00000000 
0.02200    146307248.00000000 91381112.00000000 231254544.00000000 92442.95312500  7349287.50000000 5807624.00000000 
0.02300    144922656.00000000 90526224.00000000 229077552.00000000 91343.11718750  7270265.50000000 5745409.00000000 
0.02400    143490208.00000000 89642672.00000000 226827168.00000000 90211.16406250  7188759.50000000 5681268.00000000 
0.02500    142015312.00000000 88732256.00000000 224510416.00000000 89047.95312500  7104948.00000000 5615344.00000000 
0.02600    140499840.00000000 87796616.00000000 222127920.00000000 87855.33593750  7018877.50000000 5547623.00000000 
0.02700    138944144.00000000 86836104.00000000 219685216.00000000 86634.89062500  6930714.50000000 5478271.00000000 
0.02800    137353280.00000000 85853008.00000000 217181840.00000000 85389.86718750  6840604.50000000 5407337.50000000 
0.02900    135725232.00000000 84847192.00000000 214623920.00000000 84120.60937500  6748627.00000000 5335012.00000000 
0.03000    134065144.00000000 83821584.00000000 212012896.00000000 82829.75781250  6654999.50000000 5261315.50000000 
0.03100    132373848.00000000 82776648.00000000 209355904.00000000 81519.26562500  6559800.00000000 5186339.50000000 
0.03200    130654440.00000000 81713624.00000000 206650944.00000000 80191.08593750  6463170.00000000 5110252.00000000 
0.03300    128908840.00000000 80634664.00000000 203904832.00000000 78847.15625000  6365192.00000000 5033157.00000000 
0.03400    127137768.00000000 79538840.00000000 201119952.00000000 77489.14843750  6266087.50000000 4955123.50000000 
0.03500    125345712.00000000 78429576.00000000 198299488.00000000 76119.07031250  6165927.00000000 4876258.00000000 
0.03600    123532816.00000000 77308432.00000000 195447040.00000000 74739.02343750  6064843.00000000 4796678.00000000 
0.03700    121702536.00000000 76176400.00000000 192568656.00000000 73351.75781250  5962983.50000000 4716480.00000000 
0.03800    119856552.00000000 75033776.00000000 189664544.00000000 71957.24218750  5860526.50000000 4635773.00000000 
0.03900    117997184.00000000 73882152.00000000 186736928.00000000 70558.81250000  5757525.50000000 4554639.00000000 
0.04000    116125952.00000000 72723664.00000000 183792160.00000000 69157.25781250  5654083.00000000 4473156.00000000 
0.04100    114245512.00000000 71558448.00000000 180830864.00000000 67755.43750000  5550428.00000000 4391485.00000000 
0.04200    112358488.00000000 70388368.00000000 177859232.00000000 66353.76562500  5446566.50000000 4309659.50000000 
0.04300    110466024.00000000 69215008.00000000 174878624.00000000 64954.48437500  5342685.00000000 4227827.00000000 
0.04400    108569568.00000000 68039064.00000000 171892688.00000000 63559.39843750  5238930.00000000 4145995.25000000 
0.04500    106672744.00000000 66862608.00000000 168906112.00000000 62170.26562500  5135307.00000000 4064352.50000000 
0.04600    104776240.00000000 65685528.00000000 165917152.00000000 60787.85546875  5032061.00000000 3982936.25000000 
0.04700    102882728.00000000 64509976.00000000 162933584.00000000 59414.54296875  4929143.50000000 3901826.00000000 
0.04800    100993312.00000000 63336964.00000000 159955312.00000000 58051.41406250  4826840.00000000 3821115.50000000 
0.04900    99109912.00000000 62167552.00000000 156986352.00000000 56699.65625000  4725066.50000000 3740896.50000000 
0.05000    97235120.00000000 61002568.00000000 154029232.00000000 55360.58203125  4624047.00000000 3661189.00000000 
0.05100    95369640.00000000 59843120.00000000 151089104.00000000 54035.25390625  4523837.00000000 3582143.75000000 
0.05200    93515464.00000000 58690396.00000000 148165200.00000000 52724.80859375  4424495.50000000 3503763.75000000 
0.05300    91674048.00000000 57545144.00000000 145261216.00000000 51430.98437500  4326088.00000000 3426145.25000000 
0.05400    89847352.00000000 56408812.00000000 142378640.00000000 50154.07421875  4228809.50000000 3349369.75000000 
0.05500    88035888.00000000 55281940.00000000 139521856.00000000 48895.48828125  4132619.50000000 3273468.50000000 
0.05600    86242184.00000000 54165028.00000000 136691072.00000000 47655.92187500  4037634.00000000 3198459.75000000 
0.05700    84466816.00000000 53059600.00000000 133889104.00000000 46436.00000000  3943899.00000000 3124472.50000000 
0.05800    82711448.00000000 51965608.00000000 131118280.00000000 45236.86328125  3851489.25000000 3051518.00000000 
0.05900    80976328.00000000 50884860.00000000 128379872.00000000 44059.43359375  3760483.00000000 2979638.00000000 
0.06000    79264184.00000000 49817424.00000000 125676024.00000000 42903.39453125  3670903.75000000 2908896.75000000 
0.06100    77574560.00000000 48764480.00000000 123007488.00000000 41769.91796875  3582813.00000000 2839299.75000000 
0.06200    75909672.00000000 47725900.00000000 120377328.00000000 40659.24218750  3496248.75000000 2770916.00000000 
0.06300    74269552.00000000 46702560.00000000 117787224.00000000 39572.40625000  3411265.00000000 2703743.25000000 
0.06400    72655632.00000000 45695396.00000000 115236912.00000000 38509.02734375  3327846.00000000 2637848.25000000 
0.06500    71068120.00000000 44704244.00000000 112728056.00000000 37469.65625000  3246105.50000000 2573219.75000000 
0.06600    69508512.00000000 43730076.00000000 110262640.00000000 36454.33984375  3166006.00000000 2509904.50000000 
0.06700    67976224.00000000 42772928.00000000 107841088.00000000 35463.51562500  3087576.00000000 2447902.00000000 
0.06800    66473812.00000000 41833808.00000000 105464160.00000000 34497.42578125  3010870.75000000 2387214.75000000 
0.06900    64999596.00000000 40912444.00000000 103133264.00000000 33555.42187500  2935879.25000000 2327912.00000000 
0.07000    63555136.00000000 40009288.00000000 100849280.00000000 32638.35742188  2862604.00000000 2269935.50000000 
0.07100    62140624.00000000 39124412.00000000 98611856.00000000 31745.51757812  2791059.25000000 2213344.25000000 
0.07200    60756668.00000000 38258668.00000000 96422032.00000000 30876.99414062  2721279.50000000 2158081.25000000 
0.07300    59403476.00000000 37411620.00000000 94281416.00000000 30033.09960938  2653202.00000000 2104213.50000000 
0.07400    58080580.00000000 36583632.00000000 92188032.00000000 29213.07421875  2586871.00000000 2051696.87500000 
0.07500    56788944.00000000 35774772.00000000 90144128.00000000 28416.70507812  2522263.00000000 2000552.87500000 
0.07600    55528128.00000000 34985116.00000000 88148048.00000000 27644.02734375  2459361.00000000 1950761.62500000 
0.07700    54298380.00000000 34215068.00000000 86202696.00000000 26894.44726562  2398164.75000000 1902295.00000000 
0.07800    53099576.00000000 33464122.00000000 84303936.00000000 26167.85546875  2338677.50000000 1855160.50000000 
0.07900    51932108.00000000 32732268.00000000 82455464.00000000 25463.62109375  2280848.75000000 1809338.37500000 
0.08000    50794812.00000000 32019806.00000000 80654992.00000000 24781.35351562  2224662.75000000 1764834.12500000 
0.08100    49688688.00000000 31326394.00000000 78903240.00000000 24121.06640625  2170107.50000000 1721602.00000000 
0.08200    48612388.00000000 30652074.00000000 77199296.00000000 23481.67578125  2117140.75000000 1679620.12500000 
0.08300    47566424.00000000 29996408.00000000 75543456.00000000 22862.99023438  2065754.87500000 1638889.62500000 
0.08400    46550440.00000000 29359580.00000000 73934128.00000000 22264.39648438  2015909.75000000 1599378.37500000 
0.08500    45563784.00000000 28740856.00000000 72371688.00000000 21685.58203125  1967588.25000000 1561055.50000000 
0.08600    44606592.00000000 28140652.00000000 70855824.00000000 21125.96875000  1920747.00000000 1523915.12500000 
0.08700    43677780.00000000 27558302.00000000 69384736.00000000 20584.84179688  1875337.12500000 1487907.62500000 
0.08800    42777296.00000000 26993738.00000000 67957896.00000000 20061.55078125  1831347.87500000 1453021.37500000 
0.08900    41904124.00000000 26446642.00000000 66575788.00000000 19555.87304688  1788745.50000000 1419225.00000000 
0.09000    41058496.00000000 25916758.00000000 65237068.00000000 19067.01367188  1747466.12500000 1386486.87500000 
0.09100    40239876.00000000 25403788.00000000 63940328.00000000 18594.55078125  1707503.50000000 1354779.37500000 
0.09200    39446824.00000000 24906932.00000000 62685116.00000000 18137.94726562  1668794.37500000 1324074.50000000 
0.09300    38679772.00000000 24426510.00000000 61470428.00000000 17696.30664062  1631309.25000000 1294335.12500000 
0.09400    37937656.00000000 23961692.00000000 60295860.00000000 17269.33984375  1595022.87500000 1265544.00000000 
0.09500    37219364.00000000 23512378.00000000 59159112.00000000 16856.30273438  1559892.12500000 1237666.25000000 
0.09600    36525120.00000000 23077902.00000000 58060900.00000000 16456.87500000  1525864.87500000 1210664.62500000 
0.09700    35854188.00000000 22658246.00000000 56999144.00000000 16070.24121094  1492906.37500000 1184519.50000000 
0.09800    35205200.00000000 22252726.00000000 55973144.00000000 15696.07910156  1460979.87500000 1159180.25000000 
0.09900    34578640.00000000 21861014.00000000 54981788.00000000 15333.81152344  1430062.12500000 1134647.87500000 
0.10000    33972456.00000000 21482782.00000000 54024404.00000000 14982.96777344  1400066.37500000 1110866.87500000 
0.10100    33386966.00000000 21117346.00000000 53098904.00000000 14642.80957031  1371020.87500000 1087814.62500000 
0.10200    32821128.00000000 20764744.00000000 52205412.00000000 14313.08691406  1342856.50000000 1065457.00000000 
0.10300    32274564.00000000 20423846.00000000 51341800.00000000 13993.09179688  1315523.87500000 1043780.00000000 
0.10400    31746028.00000000 20094856.00000000 50507980.00000000 13682.65820312  1288991.87500000 1022748.18750000 
0.10500    31235670.00000000 19777214.00000000 49702404.00000000 13381.18457031  1263263.12500000 1002329.06250000 
0.10600    30742002.00000000 19470484.00000000 48923860.00000000 13088.21777344  1238258.75000000 982497.50000000 
0.10700    30264844.00000000 19174106.00000000 48171428.00000000 12803.42382812  1213961.62500000 963224.68750000 
0.10800    29803444.00000000 18887610.00000000 47444340.00000000 12526.18261719  1190340.62500000 944499.87500000 
0.10900    29356968.00000000 18610886.00000000 46741044.00000000 12256.45703125  1167356.25000000 926283.68750000 
0.11000    28924738.00000000 18343322.00000000 46060668.00000000 11993.65234375  1144991.37500000 908554.93750000 
0.11100    28506444.00000000 18084578.00000000 45402176.00000000 11737.45800781  1123219.62500000 891289.56250000 
0.11200    28101412.00000000 17834304.00000000 44765068.00000000 11487.63964844  1102002.00000000 874473.75000000 
0.11300    27708550.00000000 17591814.00000000 44147544.00000000 11243.74023438  1081300.87500000 858074.25000000 
0.11400    27327930.00000000 17356936.00000000 43549376.00000000 11005.75000000  1061112.25000000 842079.50000000 
0.11500    26958318.00000000 17129328.00000000 42969060.00000000 10773.08398438  1041397.93750000 826458.00000000 
0.11600    26599442.00000000 16908658.00000000 42405980.00000000 10545.67382812  1022141.25000000 811211.06250000 
0.11700    26251108.00000000 16694363.00000000 41859292.00000000 10323.14355469  1003316.81250000 796300.18750000 
0.11800    25911974.00000000 16486258.00000000 41327872.00000000 10105.35937500  984899.87500000 781719.43750000 
0.11900    25582194.00000000 16283955.00000000 40810692.00000000 9892.08984375   966871.81250000 767443.00000000 
0.12000    25260706.00000000 16086952.00000000 40307352.00000000 9683.06835938   949214.37500000 753468.18750000 
0.12100    24947530.00000000 15895213.00000000 39816808.00000000 9478.35742188   931905.06250000 739772.81250000 
0.12200    24641740.00000000 15708284.00000000 39338648.00000000 9277.55566406   914938.31250000 726343.12500000 
0.12300    24343250.00000000 15525833.00000000 38871448.00000000 9080.56054688   898290.93750000 713168.00000000 
0.12400    24051330.00000000 15347483.00000000 38415388.00000000 8887.29589844   881947.25000000 700234.68750000 
0.12500    23765544.00000000 15173292.00000000 37968644.00000000 8697.54199219   865885.31250000 687524.75000000 
0.12600    23485840.00000000 15002646.00000000 37531348.00000000 8511.25292969   850110.50000000 675043.81250000 
0.12700    23211564.00000000 14835364.00000000 37102524.00000000 8328.28222656   834591.93750000 662769.43750000 
0.12800    22942234.00000000 14671206.00000000 36681872.00000000 8148.58789062   819323.25000000 650689.87500000 
0.12900    22677454.00000000 14510020.00000000 36268372.00000000 7972.02880859   804302.81250000 638811.50000000 
0.13000    22417110.00000000 14351562.00000000 35861748.00000000 7798.57226562   789516.50000000 627111.18750000 
0.13100    22160692.00000000 14195331.00000000 35461220.00000000 7628.12304688   774948.37500000 615584.18750000 
0.13200    21908000.00000000 14041402.00000000 35066660.00000000 7460.49414062   760592.12500000 604230.81250000 
0.13300    21658732.00000000 13889592.00000000 34677808.00000000 7295.93017578   746446.50000000 593045.87500000 
0.13400    21412550.00000000 13739719.00000000 34292860.00000000 7134.13232422   732506.56250000 582009.06250000 
0.13500    21169372.00000000 13591418.00000000 33912980.00000000 6975.09960938   718749.50000000 571125.43750000 
0.13600    20928732.00000000 13444650.00000000 33536912.00000000 6818.90478516   705193.37500000 560396.68750000 
0.13700    20690460.00000000 13299232.00000000 33164448.00000000 6665.38037109   691806.87500000 549804.50000000 
0.13800    20454278.00000000 13155088.00000000 32795056.00000000 6514.55371094   678607.06250000 539356.50000000 
0.13900    20220180.00000000 13012032.00000000 32428976.00000000 6366.38525391   665577.93750000 529040.43750000 
0.14000    19987822.00000000 12869937.00000000 32065256.00000000 6220.87890625   652719.75000000 518860.03125000 
0.14100    19757194.00000000 12728652.00000000 31704018.00000000 6077.95263672   640032.25000000 508812.12500000 
0.14200    19527848.00000000 12588132.00000000 31345008.00000000 5937.60205078   627501.37500000 498889.37500000 
0.14300    19299904.00000000 12448231.00000000 30987622.00000000 5799.82910156   615138.93750000 489090.71875000 
0.14400    19073066.00000000 12308873.00000000 30631730.00000000 5664.60888672   602927.50000000 479416.28125000 
0.14500    18847402.00000000 12170075.00000000 30277658.00000000 5531.90527344   590875.31250000 469858.25000000 
0.14600    18622606.00000000 12031542.00000000 29924796.00000000 5401.74414062   578977.56250000 460431.31250000 
0.14700    18398838.00000000 11893502.00000000 29573028.00000000 5274.07568359   567237.68750000 451118.40625000 
0.14800    18175668.00000000 11755533.00000000 29222084.00000000 5148.85156250   555645.93750000 441919.50000000 
0.14900    17953218.00000000 11617940.00000000 28872146.00000000 5026.11523438   544202.50000000 432837.84375000 
0.15000    17731428.00000000 11480492.00000000 28522814.00000000 4905.83837891   532906.50000000 423875.00000000 
0.15100    17510426.00000000 11343160.00000000 28174120.00000000 4787.93750000   521757.28125000 415022.06250000 
0.15200    17289726.00000000 11205930.00000000 27826112.00000000 4672.47216797   510765.75000000 406288.03125000 
0.15300    17069558.00000000 11068901.00000000 27478510.00000000 4559.40136719   499910.84375000 397666.93750000 
0.15400    16849840.00000000 10931852.00000000 27131580.00000000 4448.60498047   489201.78125000 389151.75000000 
0.15500    16630613.00000000 10794881.00000000 26785004.00000000 4340.24707031   478640.68750000 380754.53125000 
0.15600    16411922.00000000 10657986.00000000 26438850.00000000 4234.16015625   468220.75000000 372466.84375000 
0.15700    16193754.00000000 10521106.00000000 26093140.00000000 4130.41650391   457949.15625000 364292.78125000 
0.15800    15975809.00000000 10384246.00000000 25747714.00000000 4028.84545898   447813.09375000 356225.56250000 
0.15900    15758405.00000000 10247558.00000000 25402936.00000000 3929.55834961   437822.84375000 348268.81250000 
0.16000    15541634.00000000 10110896.00000000 25058550.00000000 3832.48046875   427973.59375000 340421.31250000 
0.16100    15325117.00000000 9974367.00000000 24714794.00000000 3737.63085938   418267.15625000 332689.50000000 
0.16200    15109276.00000000 9837893.00000000 24371508.00000000 3644.90063477   408701.78125000 325060.34375000 
0.16300    14893937.00000000 9701609.00000000 24028864.00000000 3554.28198242   399272.56250000 317541.03125000 
0.16400    14679220.00000000 9565408.00000000 23686826.00000000 3465.84375000   389988.18750000 310133.65625000 
0.16500    14465078.00000000 9429479.00000000 23345610.00000000 3379.40478516   380839.81250000 302830.56250000 
0.16600    14251605.00000000 9293772.00000000 23005250.00000000 3295.04614258   371832.34375000 295637.56250000 
0.16700    14038914.00000000 9158217.00000000 22665604.00000000 3212.64843750   362958.75000000 288550.93750000 
0.16800    13826809.00000000 9023037.00000000 22327182.00000000 3132.28833008   354226.28125000 281569.53125000 
0.16900    13615733.00000000 8888235.00000000 21989580.00000000 3053.86157227   345631.78125000 274697.56250000 
0.17000    13405404.00000000 8753747.00000000 21653338.00000000 2977.34423828   337169.21875000 267933.37500000 
