# SAXS profile: number of points = 501, q_min = 0, q_max = 0.5, delta_q = 0.001
#    q    intensity 
0.00000    162229888.00000000 101202808.00000000 256270032.00000000 105300.12500000 8266538.00000000 6528846.00000000 
0.00100    162190960.00000000 101174656.00000000 256200672.00000000 105262.07812500 8263897.50000000 6526834.00000000 
0.00200    162066320.00000000 101091560.00000000 255991040.00000000 105150.98437500 8255994.00000000 6520663.00000000 
0.00300    161847040.00000000 100954832.00000000 255640336.00000000 104965.49218750 8242853.50000000 6510296.50000000 
0.00400    161528208.00000000 100762824.00000000 255151296.00000000 104706.36718750 8224556.00000000 6495963.50000000 
0.00500    161125456.00000000 100515048.00000000 254519808.00000000 104374.77343750 8201139.50000000 6477535.00000000 
0.00600    160637648.00000000 100215824.00000000 253756304.00000000 103971.77343750 8172540.00000000 6455120.00000000 
0.00700    160055232.00000000 99863568.00000000 252856688.00000000 103497.09375000 8138934.00000000 6428806.00000000 
0.00800    159394240.00000000 99459200.00000000 251821872.00000000 102953.11718750 8100446.50000000 6398526.50000000 
0.00900    158655040.00000000 99004512.00000000 250658176.00000000 102341.39843750 8057104.00000000 6364527.50000000 
0.01000    157832064.00000000 98496992.00000000 249364240.00000000 101662.42968750 8008973.50000000 6326722.00000000 
0.01100    156924464.00000000 97940616.00000000 247943984.00000000 100919.53906250 7956241.00000000 6285314.00000000 
0.01200    155939040.00000000 97335008.00000000 246401888.00000000 100113.06250000 7898962.50000000 6240355.00000000 
0.01300    154877824.00000000 96683872.00000000 244737680.00000000 99246.07812500  7837348.50000000 6191985.50000000 
0.01400    153744128.00000000 95987256.00000000 242960288.00000000 98320.82031250  7771483.50000000 6140256.50000000 
0.01500    152536976.00000000 95245952.00000000 241067744.00000000 97340.24218750  7701569.50000000 6085375.00000000 
0.01600    151260912.00000000 94461896.00000000 239067664.00000000 96305.40625000  7627710.00000000 6027336.00000000 
0.01700    149917088.00000000 93636336.00000000 236962256.00000000 95218.55468750  7550118.50000000 5966453.50000000 
0.01800    148510608.00000000 92771568.00000000 234756224.00000000 94084.16406250  7469046.00000000 5902676.00000000 
0.01900    147041216.00000000 91868648.00000000 232452720.00000000 92904.20312500  7384463.50000000 5836307.00000000 
0.02000    145515344.00000000 90929456.00000000 230056256.00000000 91681.38281250  7296768.50000000 5767394.00000000 
0.02100    143933792.00000000 89956856.00000000 227574736.00000000 90418.82812500  7206048.00000000 5696118.50000000 
0.02200    142297952.00000000 88950216.00000000 225009056.00000000 89119.47656250  7112523.00000000 5622598.50000000 
0.02300    140616048.00000000 87913472.00000000 222367104.00000000 87785.00000000  7016385.00000000 5547026.00000000 
0.02400    138885600.00000000 86848048.00000000 219652560.00000000 86420.86718750  6917823.00000000 5469530.50000000 
0.02500    137111664.00000000 85754904.00000000 216870592.00000000 85027.77343750  6817055.50000000 5390335.00000000 
0.02600    135300896.00000000 84638160.00000000 214025008.00000000 83610.94531250  6714341.00000000 5309579.00000000 
0.02700    133452432.00000000 83498600.00000000 211120304.00000000 82171.90625000  6609806.50000000 5227315.00000000 
0.02800    131569976.00000000 82337048.00000000 208164496.00000000 80714.21875000  6503637.50000000 5143834.00000000 
0.02900    129659128.00000000 81157736.00000000 205160704.00000000 79239.60937500  6396117.00000000 5059253.50000000 
0.03000    127721832.00000000 79961728.00000000 202116240.00000000 77753.41406250  6287483.50000000 4973727.50000000 
0.03100    125760880.00000000 78751344.00000000 199034608.00000000 76256.96875000  6177804.00000000 4887435.00000000 
0.03200    123779992.00000000 77527712.00000000 195919664.00000000 74753.53125000  6067316.50000000 4800497.50000000 
0.03300    121781512.00000000 76292912.00000000 192777648.00000000 73246.05468750  5956249.50000000 4713070.00000000 
0.03400    119770088.00000000 75047616.00000000 189613664.00000000 71736.62500000  5844773.00000000 4625344.50000000 
0.03500    117749024.00000000 73797080.00000000 186431984.00000000 70227.51562500  5733072.50000000 4537337.50000000 
0.03600    115718608.00000000 72539552.00000000 183238064.00000000 68722.03906250  5621354.50000000 4449276.50000000 
0.03700    113684832.00000000 71279992.00000000 180037824.00000000 67222.60156250  5509734.50000000 4361378.00000000 
0.03800    111649536.00000000 70018288.00000000 176831728.00000000 65731.28906250  5398406.50000000 4273640.00000000 
0.03900    109615752.00000000 68757456.00000000 173627120.00000000 64250.37109375  5287570.00000000 4186241.25000000 
0.04000    107584560.00000000 67497432.00000000 170427200.00000000 62781.37109375  5177340.50000000 4099328.00000000 
0.04100    105560904.00000000 66240864.00000000 167238304.00000000 61327.34765625  5067820.00000000 4012958.00000000 
0.04200    103546728.00000000 64989524.00000000 164063824.00000000 59888.79687500  4959178.50000000 3927280.75000000 
0.04300    101543552.00000000 63744928.00000000 160904944.00000000 58468.41406250  4851586.00000000 3842407.25000000 
0.04400    99554280.00000000 62508004.00000000 157767152.00000000 57067.64453125  4745131.50000000 3758406.50000000 
0.04500    97580632.00000000 61280188.00000000 154655040.00000000 55687.54296875  4639955.50000000 3675392.25000000 
0.04600    95625288.00000000 60063532.00000000 151569616.00000000 54329.83593750  4536114.00000000 3593441.75000000 
0.04700    93690208.00000000 58858532.00000000 148515296.00000000 52995.55468750  4433798.50000000 3512616.75000000 
0.04800    91777920.00000000 57666360.00000000 145496352.00000000 51685.46093750  4332965.50000000 3432999.75000000 
0.04900    89888024.00000000 56488592.00000000 142513760.00000000 50401.00781250  4233840.50000000 3354679.25000000 
0.05000    88024736.00000000 55326040.00000000 139569472.00000000 49142.62890625  4136355.75000000 3277665.25000000 
0.05100    86188192.00000000 54180088.00000000 136668192.00000000 47911.30468750  4040656.25000000 3202051.00000000 
0.05200    84378872.00000000 53050560.00000000 133809368.00000000 46707.25781250  3946807.50000000 3127884.75000000 
0.05300    82599536.00000000 51939412.00000000 130998168.00000000 45531.28906250  3854863.00000000 3055155.00000000 
0.05400    80851456.00000000 50847140.00000000 128232928.00000000 44383.16796875  3764794.50000000 2983947.00000000 
0.05500    79135328.00000000 49773560.00000000 125518512.00000000 43263.91015625  3676739.25000000 2914293.75000000 
0.05600    77451992.00000000 48720684.00000000 122854736.00000000 42173.10156250  3590633.00000000 2846168.50000000 
0.05700    75801136.00000000 47687968.00000000 120244320.00000000 41110.76953125  3506551.50000000 2779656.75000000 
0.05800    74184536.00000000 46676036.00000000 117686624.00000000 40076.80468750  3424501.50000000 2714705.25000000 
0.05900    72603512.00000000 45685028.00000000 115183280.00000000 39071.50000000  3344468.25000000 2651344.25000000 
0.06000    71057216.00000000 44716132.00000000 112734848.00000000 38093.93359375  3266450.00000000 2589573.25000000 
0.06100    69546592.00000000 43769128.00000000 110342576.00000000 37144.79296875  3190467.00000000 2529404.75000000 
0.06200    68071584.00000000 42844292.00000000 108007200.00000000 36222.83984375  3116480.50000000 2470843.75000000 
0.06300    66633204.00000000 41941960.00000000 105728704.00000000 35328.19921875  3044535.75000000 2413832.50000000 
0.06400    65230316.00000000 41061828.00000000 103505456.00000000 34459.58984375  2974544.75000000 2358397.00000000 
0.06500    63863460.00000000 40204328.00000000 101341624.00000000 33616.96875000  2906509.00000000 2304504.00000000 
0.06600    62532844.00000000 39369508.00000000 99232744.00000000 32800.22265625  2840390.50000000 2252140.25000000 
0.06700    61238032.00000000 38556728.00000000 97181016.00000000 32008.07421875  2776183.00000000 2201244.00000000 
0.06800    59979096.00000000 37766112.00000000 95185424.00000000 31240.00390625  2713818.25000000 2151870.75000000 
0.06900    58755508.00000000 36998088.00000000 93247080.00000000 30495.41015625  2653318.75000000 2103903.75000000 
0.07000    57566720.00000000 36251444.00000000 91362336.00000000 29773.65625000  2594561.50000000 2057362.87500000 
0.07100    56412524.00000000 35526808.00000000 89533456.00000000 29073.81640625  2537580.25000000 2012192.00000000 
0.07200    55291884.00000000 34824024.00000000 87757840.00000000 28394.94921875  2482254.00000000 1968359.87500000 
0.07300    54205340.00000000 34141280.00000000 86036824.00000000 27737.02343750  2428603.00000000 1925843.87500000 
0.07400    53151292.00000000 33480676.00000000 84366640.00000000 27098.87500000  2376558.75000000 1884606.25000000 
0.07500    52130000.00000000 32839750.00000000 82747912.00000000 26479.51171875  2326056.25000000 1844585.75000000 
0.07600    51139964.00000000 32218864.00000000 81179360.00000000 25878.79687500  2277054.50000000 1805768.62500000 
0.07700    50180652.00000000 31617730.00000000 79661888.00000000 25295.51171875  2229528.25000000 1768110.00000000 
0.07800    49251808.00000000 31035474.00000000 78190312.00000000 24729.17187500  2183395.25000000 1731570.75000000 
0.07900    48352284.00000000 30472310.00000000 76766808.00000000 24179.23242188  2138615.00000000 1696108.12500000 
0.08000    47481844.00000000 29927532.00000000 75389040.00000000 23644.38867188  2095173.62500000 1661691.87500000 
0.08100    46639068.00000000 29400242.00000000 74056416.00000000 23124.97656250  2052949.62500000 1628271.75000000 
0.08200    45823316.00000000 28890546.00000000 72766368.00000000 22619.20507812  2011963.37500000 1595809.00000000 
0.08300    45034116.00000000 28397322.00000000 71518488.00000000 22127.38476562  1972133.37500000 1564278.00000000 
0.08400    44270348.00000000 27920482.00000000 70311272.00000000 21648.49804688  1933419.37500000 1533650.37500000 
0.08500    43531048.00000000 27459588.00000000 69144016.00000000 21182.14062500  1895783.75000000 1503874.37500000 
0.08600    42815864.00000000 27013544.00000000 68014560.00000000 20727.93359375  1859180.25000000 1474915.50000000 
0.08700    42123548.00000000 26582688.00000000 66921688.00000000 20285.20312500  1823577.62500000 1446735.00000000 
0.08800    41453344.00000000 26166074.00000000 65864340.00000000 19853.19140625  1788896.00000000 1419318.37500000 
0.08900    40804356.00000000 25763074.00000000 64841824.00000000 19431.97070312  1755141.00000000 1392621.87500000 
0.09000    40176052.00000000 25372828.00000000 63851220.00000000 19020.74804688  1722260.87500000 1366612.87500000 
0.09100    39567496.00000000 24995884.00000000 62892972.00000000 18619.46289062  1690191.62500000 1341285.37500000 
0.09200    38977820.00000000 24630682.00000000 61964708.00000000 18227.31250000  1658937.25000000 1316580.62500000 
0.09300    38406320.00000000 24277374.00000000 61065484.00000000 17844.44726562  1628440.12500000 1292489.75000000 
0.09400    37852064.00000000 23934876.00000000 60194224.00000000 17470.06054688  1598683.87500000 1268971.00000000 
0.09500    37314684.00000000 23603230.00000000 59349688.00000000 17104.23242188  1569628.87500000 1246001.37500000 
0.09600    36793200.00000000 23281870.00000000 58530416.00000000 16746.47070312  1541241.62500000 1223584.62500000 
0.09700    36286732.00000000 22969992.00000000 57735904.00000000 16396.53515625  1513502.50000000 1201670.37500000 
0.09800    35795052.00000000 22667654.00000000 56963836.00000000 16054.35742188  1486378.87500000 1180255.50000000 
0.09900    35317020.00000000 22373952.00000000 56214204.00000000 15719.60937500  1459863.50000000 1159313.87500000 
0.10000    34851776.00000000 22088446.00000000 55485248.00000000 15391.86425781  1433929.12500000 1138815.00000000 
0.10100    34399012.00000000 21810982.00000000 54775864.00000000 15071.38476562  1408517.62500000 1118748.62500000 
0.10200    33957796.00000000 21540962.00000000 54085476.00000000 14757.64062500  1383653.62500000 1099111.87500000 
0.10300    33528260.00000000 21277880.00000000 53412888.00000000 14450.57812500  1359294.12500000 1079869.00000000 
0.10400    33109400.00000000 21021732.00000000 52757376.00000000 14149.97949219  1335427.37500000 1061004.87500000 
0.10500    32700346.00000000 20771802.00000000 52117688.00000000 13855.92773438  1312032.25000000 1042524.62500000 
0.10600    32300872.00000000 20527794.00000000 51492184.00000000 13567.87695312  1289085.50000000 1024390.18750000 
0.10700    31909818.00000000 20289210.00000000 50881396.00000000 13285.93066406  1266587.00000000 1006610.68750000 
0.10800    31527506.00000000 20055852.00000000 50283880.00000000 13009.94335938  1244516.75000000 989164.81250000 
0.10900    31152856.00000000 19827344.00000000 49698436.00000000 12739.73925781  1222836.12500000 972026.43750000 
0.11000    30785628.00000000 19603636.00000000 49124568.00000000 12475.24511719  1201576.50000000 955214.68750000 
0.11100    30425670.00000000 19383992.00000000 48561612.00000000 12216.18261719  1180688.87500000 938688.87500000 
0.11200    30071624.00000000 19168202.00000000 48008588.00000000 11962.63183594  1160184.50000000 922450.93750000 
0.11300    29723958.00000000 18956206.00000000 47464960.00000000 11714.36230469  1140017.37500000 906501.12500000 
0.11400    29382004.00000000 18747516.00000000 46930340.00000000 11471.39355469  1120210.62500000 890817.00000000 
0.11500    29045162.00000000 18541684.00000000 46403148.00000000 11233.29785156  1100728.50000000 875392.06250000 
0.11600    28712908.00000000 18339054.00000000 45884116.00000000 11000.14550781  1081589.87500000 860216.00000000 
0.11700    28385478.00000000 18138888.00000000 45371604.00000000 10771.83398438  1062735.75000000 845286.00000000 
0.11800    28062030.00000000 17940932.00000000 44865660.00000000 10548.04589844  1044193.75000000 830593.37500000 
0.11900    27742680.00000000 17745432.00000000 44365016.00000000 10328.88964844  1025947.18750000 816123.56250000 
0.12000    27426470.00000000 17551668.00000000 43869796.00000000 10113.90722656  1007985.93750000 801870.56250000 
0.12100    27113712.00000000 17359820.00000000 43379836.00000000 9903.46386719   990293.62500000 787836.25000000 
0.12200    26803774.00000000 17169580.00000000 42893820.00000000 9696.94921875   972870.18750000 774002.18750000 
0.12300    26496544.00000000 16980544.00000000 42411320.00000000 9494.67382812   955693.68750000 760368.68750000 
0.12400    26191678.00000000 16792922.00000000 41933360.00000000 9296.16894531   938777.12500000 746926.00000000 
0.12500    25889034.00000000 16606465.00000000 41457596.00000000 9101.29882812   922090.31250000 733668.62500000 
0.12600    25588622.00000000 16421093.00000000 40985248.00000000 8910.28906250   905633.62500000 720590.12500000 
0.12700    25289740.00000000 16236465.00000000 40515140.00000000 8722.52343750   889400.25000000 707689.12500000 
0.12800    24992622.00000000 16052498.00000000 40047544.00000000 8538.26953125   873384.75000000 694954.43750000 
0.12900    24696896.00000000 15869255.00000000 39581416.00000000 8357.27441406   857578.31250000 682374.50000000 
0.13000    24402454.00000000 15686559.00000000 39117544.00000000 8179.39111328   841974.68750000 669956.87500000 
0.13100    24109060.00000000 15504341.00000000 38654868.00000000 8004.56250000   826556.75000000 657696.50000000 
0.13200    23816876.00000000 15322512.00000000 38193720.00000000 7832.61962891   811334.56250000 645575.12500000 
0.13300    23525486.00000000 15140943.00000000 37733544.00000000 7663.60742188   796286.68750000 633598.25000000 
0.13400    23235238.00000000 14959696.00000000 37274388.00000000 7497.21484375   781427.06250000 621766.06250000 
0.13500    22945180.00000000 14778595.00000000 36816112.00000000 7333.57275391   766728.62500000 610069.31250000 
0.13600    22656280.00000000 14597730.00000000 36358788.00000000 7172.42041016   752207.62500000 598496.68750000 
0.13700    22367834.00000000 14417078.00000000 35901952.00000000 7013.81347656   737849.31250000 587055.18750000 
0.13800    22080030.00000000 14236516.00000000 35445880.00000000 6857.56738281   723649.50000000 575741.68750000 
0.13900    21792924.00000000 14056085.00000000 34990576.00000000 6703.70751953   709597.06250000 564543.06250000 
0.14000    21506336.00000000 13875795.00000000 34535792.00000000 6552.17285156   695703.25000000 553477.37500000 
0.14100    21220236.00000000 13695642.00000000 34081792.00000000 6402.94384766   681963.75000000 542521.43750000 
0.14200    20934518.00000000 13515533.00000000 33627980.00000000 6255.86132812   668367.87500000 531689.50000000 
0.14300    20649662.00000000 13335729.00000000 33175224.00000000 6110.98779297   654916.43750000 520970.06250000 
0.14400    20365102.00000000 13156134.00000000 32723038.00000000 5968.25439453   641615.37500000 510362.37500000 
0.14500    20081486.00000000 12976620.00000000 32271654.00000000 5827.67675781   628453.00000000 499871.50000000 
0.14600    19798416.00000000 12797374.00000000 31821098.00000000 5689.19091797   615437.50000000 489498.25000000 
0.14700    19516118.00000000 12618516.00000000 31371614.00000000 5552.81835938   602563.75000000 479237.87500000 
0.14800    19234450.00000000 12439966.00000000 30923254.00000000 5418.63232422   589832.87500000 469087.90625000 
0.14900    18953670.00000000 12261832.00000000 30475638.00000000 5286.50000000   577242.37500000 459053.18750000 
0.15000    18673916.00000000 12084148.00000000 30030008.00000000 5156.53173828   564802.43750000 449133.53125000 
0.15100    18395284.00000000 11906883.00000000 29585542.00000000 5028.66650391   552506.68750000 439329.43750000 
0.15200    18117818.00000000 11730317.00000000 29142880.00000000 4902.96875000   540356.12500000 429645.56250000 
0.15300    17841322.00000000 11554387.00000000 28701710.00000000 4779.42578125   528350.25000000 420072.75000000 
0.15400    17566246.00000000 11379101.00000000 28262672.00000000 4658.11914062   516494.18750000 410619.62500000 
0.15500    17292774.00000000 11204728.00000000 27825722.00000000 4539.02148438   504797.87500000 401292.93750000 
0.15600    17020398.00000000 11030997.00000000 27390746.00000000 4422.12548828   493250.21875000 392084.43750000 
0.15700    16749950.00000000 10858338.00000000 26958726.00000000 4307.55322266   481860.90625000 382999.84375000 
0.15800    16481244.00000000 10686560.00000000 26528954.00000000 4195.27001953   470624.37500000 374038.53125000 
0.15900    16214227.00000000 10516052.00000000 26102064.00000000 4085.28857422   459551.96875000 365206.75000000 
0.16000    15949211.00000000 10346540.00000000 25678130.00000000 3977.65991211   448642.21875000 356503.12500000 
0.16100    15686277.00000000 10178210.00000000 25257660.00000000 3872.38769531   437898.90625000 347933.31250000 
0.16200    15425460.00000000 10011211.00000000 24840220.00000000 3769.56396484   427321.87500000 339492.18750000 
0.16300    15166765.00000000 9845568.00000000 24426484.00000000 3669.10107422   416912.03125000 331188.12500000 
0.16400    14910673.00000000 9681381.00000000 24016154.00000000 3571.09082031   406675.31250000 323015.53125000 
0.16500    14656894.00000000 9518630.00000000 23609810.00000000 3475.56860352   396608.62500000 314984.90625000 
0.16600    14405682.00000000 9357453.00000000 23207614.00000000 3382.44775391   386722.87500000 307087.87500000 
0.16700    14156999.00000000 9197830.00000000 22809112.00000000 3291.80249023   377006.50000000 299329.71875000 
0.16800    13911139.00000000 9040004.00000000 22415234.00000000 3203.61132812   367471.31250000 291712.21875000 
0.16900    13668109.00000000 8883819.00000000 22025754.00000000 3117.90258789   358115.87500000 284240.43750000 
0.17000    13427866.00000000 8729409.00000000 21640648.00000000 3034.64184570   348938.90625000 276906.62500000 
