# SAXS profile: number of points = 501, q_min = 0, q_max = 0.5, delta_q = 0.001
#    q    intensity 
0.00000    162231056.00000000 101202600.00000000 256268912.00000000 106673.00781250 8320203.50000000 6571277.50000000 
0.00100    162194336.00000000 101176608.00000000 256204784.00000000 106635.07812500 8317693.50000000 6569277.50000000 
0.00200    162078560.00000000 101100720.00000000 256013040.00000000 106523.04687500 8310102.00000000 6563358.00000000 
0.00300    161879552.00000000 100974392.00000000 255692144.00000000 106336.79687500 8297486.50000000 6553468.50000000 
0.00400    161590224.00000000 100798040.00000000 255242816.00000000 106076.89062500 8279859.50000000 6539623.50000000 
0.00500    161217696.00000000 100570384.00000000 254662288.00000000 105743.81250000 8257280.00000000 6521827.50000000 
0.00600    160768928.00000000 100293704.00000000 253960592.00000000 105338.50781250 8229798.50000000 6500221.00000000 
0.00700    160234320.00000000 99969384.00000000 253133680.00000000 104862.21875000 8197458.50000000 6474835.50000000 
0.00800    159627552.00000000 99597960.00000000 252180976.00000000 104316.61718750 8160338.50000000 6445639.50000000 
0.00900    158946736.00000000 99178576.00000000 251110320.00000000 103701.53906250 8118559.00000000 6412785.50000000 
0.01000    158190752.00000000 98711168.00000000 249919392.00000000 103019.71093750 8072171.00000000 6376334.00000000 
0.01100    157357072.00000000 98197880.00000000 248609936.00000000 102272.68750000 8021294.00000000 6336372.00000000 
0.01200    156448992.00000000 97640232.00000000 247190032.00000000 101463.00781250 7966032.00000000 6292978.00000000 
0.01300    155470144.00000000 97037336.00000000 245654320.00000000 100591.81250000 7906586.50000000 6246218.00000000 
0.01400    154423568.00000000 96393592.00000000 244012560.00000000 99662.14062500  7842957.50000000 6196186.50000000 
0.01500    153311408.00000000 95708624.00000000 242264240.00000000 98675.39062500  7775401.50000000 6143072.50000000 
0.01600    152131792.00000000 94982208.00000000 240414576.00000000 97634.60156250  7703994.50000000 6086924.50000000 
0.01700    150891184.00000000 94217768.00000000 238465952.00000000 96542.05468750  7628932.00000000 6027901.00000000 
0.01800    149588480.00000000 93416120.00000000 236422480.00000000 95401.17187500  7550311.50000000 5966158.00000000 
0.01900    148228912.00000000 92578344.00000000 234288448.00000000 94213.33593750  7468428.50000000 5901743.00000000 
0.02000    146813760.00000000 91706032.00000000 232065440.00000000 92982.89843750  7383390.00000000 5834861.00000000 
0.02100    145345072.00000000 90801024.00000000 229759760.00000000 91711.44531250  7295284.50000000 5765538.50000000 
0.02200    143826256.00000000 89864160.00000000 227373088.00000000 90402.80468750  7204462.00000000 5694117.50000000 
0.02300    142258768.00000000 88898368.00000000 224914144.00000000 89059.71875000  7111029.00000000 5620591.00000000 
0.02400    140649504.00000000 87903680.00000000 222381552.00000000 87684.69531250  7015063.00000000 5545099.50000000 
0.02500    138994448.00000000 86883208.00000000 219784080.00000000 86281.28906250  6916955.50000000 5467900.00000000 
0.02600    137301776.00000000 85837400.00000000 217123872.00000000 84852.90625000  6816791.50000000 5389047.00000000 
0.02700    135572384.00000000 84770400.00000000 214406592.00000000 83401.35937500  6714727.50000000 5308753.00000000 
0.02800    133810520.00000000 83680904.00000000 211635792.00000000 81930.69531250  6611011.50000000 5227116.00000000 
0.02900    132017072.00000000 82572544.00000000 208814288.00000000 80443.49218750  6505825.50000000 5144314.00000000 
0.03000    130195344.00000000 81446232.00000000 205950448.00000000 78943.17968750  6399399.00000000 5060453.50000000 
0.03100    128349360.00000000 80305776.00000000 203047984.00000000 77432.46093750  6291894.00000000 4975776.50000000 
0.03200    126481680.00000000 79150856.00000000 200109856.00000000 75914.34375000  6183476.00000000 4890418.00000000 
0.03300    124594464.00000000 77983360.00000000 197139760.00000000 74391.60937500  6074275.00000000 4804421.50000000 
0.03400    122690696.00000000 76805416.00000000 194144752.00000000 72866.01562500  5964634.50000000 4718001.00000000 
0.03500    120773768.00000000 75617648.00000000 191127728.00000000 71341.48437500  5854544.00000000 4631287.50000000 
0.03600    118845120.00000000 74423312.00000000 188091792.00000000 69819.53906250  5744268.50000000 4544465.00000000 
0.03700    116908936.00000000 73222968.00000000 185043648.00000000 68303.39062500  5634054.50000000 4457538.50000000 
0.03800    114967608.00000000 72018456.00000000 181985600.00000000 66794.89843750  5523946.50000000 4370679.00000000 
0.03900    113023200.00000000 70812432.00000000 178922928.00000000 65296.54296875  5414132.00000000 4284129.50000000 
0.04000    111078264.00000000 69606280.00000000 175857120.00000000 63810.47656250  5304765.00000000 4197859.50000000 
0.04100    109135584.00000000 68400128.00000000 172795088.00000000 62338.60937500  5195999.50000000 4112063.25000000 
0.04200    107196832.00000000 67196360.00000000 169739872.00000000 60882.85546875  5087951.50000000 4026838.75000000 
0.04300    105264568.00000000 65995196.00000000 166693552.00000000 59445.13281250  4980775.50000000 3942285.50000000 
0.04400    103341352.00000000 64799712.00000000 163662192.00000000 58026.73437500  4874628.50000000 3858488.25000000 
0.04500    101428576.00000000 63610648.00000000 160644640.00000000 56629.45312500  4769549.00000000 3775558.00000000 
0.04600    99529320.00000000 62429476.00000000 157648512.00000000 55254.41796875  4665724.00000000 3693588.00000000 
0.04700    97644944.00000000 61256660.00000000 154675552.00000000 53903.41796875  4563171.50000000 3612645.75000000 
0.04800    95777144.00000000 60093456.00000000 151727808.00000000 52577.05859375  4461998.50000000 3532771.00000000 
0.04900    93926984.00000000 58941400.00000000 148809056.00000000 51275.98828125  4362418.00000000 3454089.75000000 
0.05000    92097480.00000000 57801664.00000000 145920160.00000000 50001.76562500  4264294.00000000 3376646.75000000 
0.05100    90289456.00000000 56674832.00000000 143065712.00000000 48755.06250000  4167896.75000000 3300489.75000000 
0.05200    88504264.00000000 55561664.00000000 140247488.00000000 47536.28906250  4073202.25000000 3225673.75000000 
0.05300    86743264.00000000 54463308.00000000 137465328.00000000 46345.75781250  3980241.50000000 3152248.50000000 
0.05400    85008816.00000000 53381248.00000000 134723248.00000000 45183.94921875  3889155.25000000 3080248.25000000 
0.05500    83300416.00000000 52314256.00000000 132025528.00000000 44051.40625000  3799920.00000000 3009698.75000000 
0.05600    81618896.00000000 51264696.00000000 129367616.00000000 42948.07421875  3712580.25000000 2940667.25000000 
0.05700    79965216.00000000 50232204.00000000 126755336.00000000 41873.96093750  3627169.75000000 2873132.25000000 
0.05800    78342704.00000000 49218108.00000000 124189264.00000000 40828.92578125  3543679.75000000 2807146.75000000 
0.05900    76749144.00000000 48222292.00000000 121669776.00000000 39812.98437500  3462158.25000000 2742652.25000000 
0.06000    75186936.00000000 47245380.00000000 119198592.00000000 38826.25000000  3382618.50000000 2679778.00000000 
0.06100    73654656.00000000 46287164.00000000 116776392.00000000 37867.84765625  3305062.25000000 2618423.25000000 
0.06200    72155120.00000000 45349220.00000000 114403488.00000000 36937.60546875  3229431.00000000 2558636.50000000 
0.06300    70686688.00000000 44430480.00000000 112081144.00000000 36034.98437500  3155831.25000000 2500392.00000000 
0.06400    69249656.00000000 43531912.00000000 109809072.00000000 35159.88281250  3084126.00000000 2443665.50000000 
0.06500    67847208.00000000 42653628.00000000 107587648.00000000 34311.44140625  3014378.75000000 2388504.25000000 
0.06600    66475680.00000000 41795608.00000000 105418696.00000000 33488.92578125  2946550.00000000 2334833.25000000 
0.06700    65136508.00000000 40957404.00000000 103299448.00000000 32691.80078125  2880580.75000000 2282660.25000000 
0.06800    63830548.00000000 40139420.00000000 101233720.00000000 31919.46289062  2816470.00000000 2231936.75000000 
0.06900    62556268.00000000 39341868.00000000 99217064.00000000 31171.19335938  2754205.75000000 2182690.00000000 
0.07000    61314396.00000000 38564348.00000000 97251376.00000000 30446.12695312  2693718.75000000 2134840.75000000 
0.07100    60103952.00000000 37806820.00000000 95336400.00000000 29743.39843750  2634976.25000000 2088380.50000000 
0.07200    58925460.00000000 37069216.00000000 93470904.00000000 29062.47851562  2577927.75000000 2043288.00000000 
0.07300    57777900.00000000 36350956.00000000 91655536.00000000 28402.39062500  2522595.75000000 1999499.25000000 
0.07400    56661652.00000000 35652004.00000000 89889936.00000000 27762.43359375  2468857.50000000 1957011.00000000 
0.07500    55575180.00000000 34972716.00000000 88171088.00000000 27141.79296875  2416683.50000000 1915774.00000000 
0.07600    54518504.00000000 34311344.00000000 86499328.00000000 26539.75390625  2366067.00000000 1875730.50000000 
0.07700    53491708.00000000 33669772.00000000 84875064.00000000 25955.21484375  2316897.75000000 1836873.37500000 
0.07800    52493192.00000000 33046234.00000000 83297264.00000000 25388.03320312  2269164.00000000 1799162.62500000 
0.07900    51523028.00000000 32440192.00000000 81762984.00000000 24836.64843750  2222823.50000000 1762527.50000000 
0.08000    50580012.00000000 31851276.00000000 80273312.00000000 24300.85156250  2177832.00000000 1726968.50000000 
0.08100    49664464.00000000 31279768.00000000 78825552.00000000 23779.89257812  2134085.00000000 1692426.87500000 
0.08200    48774668.00000000 30724980.00000000 77420352.00000000 23272.73632812  2091632.50000000 1658865.62500000 
0.08300    47910636.00000000 30186126.00000000 76055536.00000000 22779.20507812  2050323.87500000 1626246.25000000 
0.08400    47071752.00000000 29663310.00000000 74730672.00000000 22298.20312500  2010150.37500000 1594515.62500000 
0.08500    46256504.00000000 29155646.00000000 73444392.00000000 21829.35156250  1971084.75000000 1563669.12500000 
0.08600    45465324.00000000 28663060.00000000 72195592.00000000 21371.95507812  1933045.50000000 1533648.50000000 
0.08700    44696120.00000000 28184874.00000000 70983136.00000000 20925.76757812  1896022.25000000 1504413.00000000 
0.08800    43949240.00000000 27720812.00000000 69805112.00000000 20489.85742188  1859946.25000000 1475936.37500000 
0.08900    43223852.00000000 27269730.00000000 68661216.00000000 20064.05859375  1824780.62500000 1448195.87500000 
0.09000    42518376.00000000 26832522.00000000 67550016.00000000 19647.90039062  1790491.87500000 1421143.62500000 
0.09100    41833064.00000000 26407642.00000000 66470704.00000000 19240.38085938  1757032.00000000 1394754.12500000 
0.09200    41166808.00000000 25994988.00000000 65421400.00000000 18841.97460938  1724387.00000000 1368971.37500000 
0.09300    40518976.00000000 25593982.00000000 64402520.00000000 18451.88867188  1692485.25000000 1343825.25000000 
0.09400    39888564.00000000 25204212.00000000 63410168.00000000 18069.54492188  1661304.12500000 1319239.37500000 
0.09500    39275076.00000000 24825152.00000000 62446004.00000000 17694.85937500  1630816.00000000 1295190.75000000 
0.09600    38678144.00000000 24456662.00000000 61507364.00000000 17327.65820312  1600992.50000000 1271675.00000000 
0.09700    38096856.00000000 24098152.00000000 60594416.00000000 16967.67578125  1571790.50000000 1248642.37500000 
0.09800    37530284.00000000 23749018.00000000 59703832.00000000 16614.54687500  1543199.87500000 1226082.87500000 
0.09900    36978080.00000000 23408918.00000000 58837328.00000000 16267.94335938  1515181.12500000 1203976.25000000 
0.10000    36439692.00000000 23077534.00000000 57992244.00000000 15928.03222656  1487700.37500000 1182312.75000000 
0.10100    35914576.00000000 22754528.00000000 57168092.00000000 15594.41503906  1460762.75000000 1161039.75000000 
0.10200    35401324.00000000 22439216.00000000 56363528.00000000 15267.00976562  1434309.87500000 1140190.62500000 
0.10300    34899844.00000000 22131512.00000000 55577908.00000000 14945.50488281  1408348.50000000 1119689.87500000 
0.10400    34410632.00000000 21831230.00000000 54810324.00000000 14629.88769531  1382830.12500000 1099554.00000000 
0.10500    33931468.00000000 21537474.00000000 54060116.00000000 14320.27148438  1357785.25000000 1079773.37500000 
0.10600    33462928.00000000 21250008.00000000 53326156.00000000 14016.19140625  1333145.25000000 1060320.75000000 
0.10700    33004240.00000000 20968976.00000000 52607448.00000000 13717.84667969  1308932.87500000 1041184.75000000 
0.10800    32554844.00000000 20693470.00000000 51902936.00000000 13424.82617188  1285108.37500000 1022360.93750000 
0.10900    32114096.00000000 20423594.00000000 51212692.00000000 13137.36328125  1261663.75000000 1003833.12500000 
0.11000    31681710.00000000 20158746.00000000 50535744.00000000 12855.20312500  1238602.00000000 985600.75000000 
0.11100    31257354.00000000 19898854.00000000 49871672.00000000 12578.34082031  1215888.75000000 967631.31250000 
0.11200    30840520.00000000 19643514.00000000 49218228.00000000 12306.81542969  1193537.00000000 949944.12500000 
0.11300    30430750.00000000 19392730.00000000 48576860.00000000 12040.38574219  1171507.25000000 932514.25000000 
0.11400    30027546.00000000 19145926.00000000 47945672.00000000 11779.06250000  1149828.87500000 915339.87500000 
0.11500    29631352.00000000 18903018.00000000 47324568.00000000 11522.79980469  1128447.25000000 898415.25000000 
0.11600    29240744.00000000 18663572.00000000 46712700.00000000 11271.46093750  1107397.75000000 881728.31250000 
0.11700    28856182.00000000 18427772.00000000 46110268.00000000 11025.03125000  1086653.37500000 865284.87500000 
0.11800    28476600.00000000 18195104.00000000 45515456.00000000 10783.53027344  1066208.37500000 849065.31250000 
0.11900    28102612.00000000 17965482.00000000 44928748.00000000 10546.67480469  1046049.68750000 833070.18750000 
0.12000    27733228.00000000 17738596.00000000 44349696.00000000 10314.57031250  1026173.81250000 817302.06250000 
0.12100    27368522.00000000 17514394.00000000 43777600.00000000 10087.04589844  1006591.12500000 801746.12500000 
0.12200    27008176.00000000 17292584.00000000 43211704.00000000 9864.12500000   987291.93750000 786408.56250000 
0.12300    26652106.00000000 17073360.00000000 42652704.00000000 9645.65136719   968256.12500000 771279.18750000 
0.12400    26299796.00000000 16856170.00000000 42099436.00000000 9431.55957031   949480.18750000 756359.87500000 
0.12500    25951146.00000000 16641167.00000000 41551496.00000000 9221.72167969   930981.50000000 741638.37500000 
0.12600    25606350.00000000 16428084.00000000 41009180.00000000 9016.16406250   912738.75000000 727122.56250000 
0.12700    25264746.00000000 16216966.00000000 40471880.00000000 8814.62207031   894752.62500000 712806.87500000 
0.12800    24926466.00000000 16007453.00000000 39939168.00000000 8617.22167969   877009.12500000 698678.81250000 
0.12900    24591098.00000000 15799730.00000000 39411336.00000000 8423.70019531   859525.31250000 684746.75000000 
0.13000    24258680.00000000 15593572.00000000 38887348.00000000 8234.09960938   842281.06250000 671012.12500000 
0.13100    23929290.00000000 15388807.00000000 38367504.00000000 8048.20800781   825287.68750000 657456.18750000 
0.13200    23602310.00000000 15185651.00000000 37851896.00000000 7865.95751953   808521.81250000 644101.12500000 
0.13300    23278230.00000000 14983698.00000000 37340048.00000000 7687.30908203   791998.12500000 630922.43750000 
0.13400    22956652.00000000 14783246.00000000 36832468.00000000 7512.18798828   775709.43750000 617928.06250000 
0.13500    22637384.00000000 14583930.00000000 36327344.00000000 7340.40380859   759647.25000000 605116.12500000 
0.13600    22320396.00000000 14385892.00000000 35826420.00000000 7171.97509766   743822.56250000 592483.18750000 
0.13700    22006112.00000000 14189129.00000000 35328864.00000000 7006.80908203   728222.62500000 580022.50000000 
0.13800    21693710.00000000 13993472.00000000 34834356.00000000 6844.74853516   712845.37500000 567751.50000000 
0.13900    21383996.00000000 13799008.00000000 34343452.00000000 6685.78710938   697688.62500000 555647.62500000 
0.14000    21076134.00000000 13605837.00000000 33855600.00000000 6529.84912109   682754.50000000 543722.37500000 
0.14100    20770690.00000000 13413678.00000000 33371276.00000000 6376.82714844   668041.00000000 531970.06250000 
0.14200    20467412.00000000 13222771.00000000 32889638.00000000 6226.75000000   653540.68750000 520385.71875000 
0.14300    20166274.00000000 13032990.00000000 32411544.00000000 6079.42578125   639260.56250000 508975.46875000 
0.14400    19867350.00000000 12844306.00000000 31936610.00000000 5934.91162109   625185.50000000 497731.50000000 
0.14500    19570582.00000000 12656926.00000000 31464942.00000000 5793.14404297   611334.75000000 486661.40625000 
0.14600    19275956.00000000 12470642.00000000 30996304.00000000 5654.00244141   597695.12500000 475761.28125000 
0.14700    18983766.00000000 12285599.00000000 30531332.00000000 5517.52392578   584264.68750000 465027.18750000 
0.14800    18693840.00000000 12101722.00000000 30069466.00000000 5383.63623047   571037.18750000 454456.75000000 
0.14900    18406036.00000000 11919112.00000000 29610910.00000000 5252.26806641   558028.68750000 444055.06250000 
0.15000    18120550.00000000 11737726.00000000 29155904.00000000 5123.49804688   545216.50000000 433818.75000000 
0.15100    17837430.00000000 11557882.00000000 28704644.00000000 4997.19677734   532621.31250000 423746.59375000 
0.15200    17556824.00000000 11379190.00000000 28256780.00000000 4873.42626953   520235.43750000 413843.93750000 
0.15300    17278550.00000000 11202003.00000000 27812586.00000000 4752.11621094   508051.90625000 404101.71875000 
0.15400    17002602.00000000 11026197.00000000 27372070.00000000 4633.24023438   496067.28125000 394525.46875000 
0.15500    16729316.00000000 10851829.00000000 26935602.00000000 4516.83203125   484295.62500000 385109.21875000 
0.15600    16458680.00000000 10678887.00000000 26502818.00000000 4402.83984375   472722.37500000 375855.09375000 
0.15700    16190600.00000000 10507616.00000000 26074144.00000000 4291.33886719   461362.37500000 366768.78125000 
0.15800    15925008.00000000 10337697.00000000 25649576.00000000 4182.18994141   450199.53125000 357840.62500000 
0.15900    15662385.00000000 10169577.00000000 25229118.00000000 4075.51171875   439234.87500000 349073.12500000 
0.16000    15402257.00000000 10002916.00000000 24812812.00000000 3971.21020508   428481.56250000 340467.00000000 
0.16100    15145094.00000000 9838166.00000000 24401292.00000000 3869.35717773   417926.31250000 332027.65625000 
0.16200    14890660.00000000 9674987.00000000 23993724.00000000 3769.88525391   407571.15625000 323742.65625000 
0.16300    14639283.00000000 9513557.00000000 23590840.00000000 3672.80932617   397417.90625000 315618.06250000 
0.16400    14390787.00000000 9353938.00000000 23192620.00000000 3578.15917969   387463.53125000 307651.18750000 
0.16500    14145109.00000000 9196035.00000000 22798816.00000000 3485.84472656   377707.00000000 299844.46875000 
0.16600    13902637.00000000 9040040.00000000 22409816.00000000 3395.96484375   368147.43750000 292190.50000000 
0.16700    13663092.00000000 8885901.00000000 22025504.00000000 3308.35156250   358785.18750000 284697.62500000 
0.16800    13426616.00000000 8733638.00000000 21646004.00000000 3223.12231445   349613.46875000 277352.62500000 
0.16900    13193226.00000000 8583283.00000000 21271674.00000000 3140.22949219   340639.00000000 270167.71875000 
0.17000    12963072.00000000 8434889.00000000 20901884.00000000 3059.63745117   331856.18750000 263132.96875000 
