# SAXS profile: number of points = 501, q_min = 0, q_max = 0.5, delta_q = 0.001
#    q    intensity 
0.00000    162236224.00000000 101201984.00000000 256271360.00000000 104457.42968750 8233399.50000000 6502731.00000000 
0.00100    162211280.00000000 101186056.00000000 256230864.00000000 104434.42187500 8231801.00000000 6501482.00000000 
0.00200    162138000.00000000 101139792.00000000 256110944.00000000 104364.22656250 8227086.50000000 6497750.50000000 
0.00300    162011984.00000000 101061568.00000000 255912272.00000000 104246.58593750 8219140.50000000 6491543.00000000 
0.00400    161835888.00000000 100952680.00000000 255633728.00000000 104082.89843750 8208121.00000000 6482886.50000000 
0.00500    161605456.00000000 100812392.00000000 255276176.00000000 103872.58593750 8193895.50000000 6471763.00000000 
0.00600    161326256.00000000 100641592.00000000 254839888.00000000 103616.56250000 8176613.50000000 6458192.00000000 
0.00700    160995216.00000000 100439248.00000000 254323840.00000000 103314.79687500 8156208.50000000 6442227.00000000 
0.00800    160615712.00000000 100208016.00000000 253731840.00000000 102967.46093750 8132741.50000000 6423844.50000000 
0.00900    160184384.00000000 99945128.00000000 253061552.00000000 102575.65625000 8106248.50000000 6403074.50000000 
0.01000    159706480.00000000 99654128.00000000 252314432.00000000 102139.96093750 8076734.50000000 6379925.00000000 
0.01100    159181680.00000000 99333256.00000000 251493488.00000000 101659.47656250 8044226.50000000 6354495.50000000 
0.01200    158609328.00000000 98982808.00000000 250595072.00000000 101136.91406250 8008839.00000000 6326749.00000000 
0.01300    157988528.00000000 98603128.00000000 249625504.00000000 100571.64843750 7970520.50000000 6296705.50000000 
0.01400    157322128.00000000 98195240.00000000 248581952.00000000 99965.75781250  7929405.00000000 6264487.00000000 
0.01500    156608016.00000000 97759016.00000000 247464832.00000000 99318.83593750  7885471.50000000 6230012.50000000 
0.01600    155849312.00000000 97294512.00000000 246279104.00000000 98632.42187500  7838844.00000000 6193480.50000000 
0.01700    155047152.00000000 96803368.00000000 245024048.00000000 97907.17968750  7789531.50000000 6154819.00000000 
0.01800    154201024.00000000 96286016.00000000 243701216.00000000 97144.75000000  7737561.50000000 6114092.50000000 
0.01900    153312656.00000000 95742296.00000000 242310400.00000000 96345.30468750  7683103.50000000 6071356.00000000 
0.02000    152383216.00000000 95173320.00000000 240855360.00000000 95510.50000000  7626113.00000000 6026691.50000000 
0.02100    151411472.00000000 94579320.00000000 239335760.00000000 94641.45312500  7566705.50000000 5980108.50000000 
0.02200    150401088.00000000 93960464.00000000 237754208.00000000 93738.61718750  7504955.00000000 5931676.50000000 
0.02300    149352256.00000000 93318120.00000000 236112112.00000000 92805.10937500  7440952.00000000 5881471.00000000 
0.02400    148265312.00000000 92652288.00000000 234411504.00000000 91840.34375000  7374713.00000000 5829525.00000000 
0.02500    147141488.00000000 91964640.00000000 232652336.00000000 90845.94531250  7306373.00000000 5775920.50000000 
0.02600    145983520.00000000 91254696.00000000 230837184.00000000 89822.78906250  7236006.00000000 5720697.50000000 
0.02700    144789584.00000000 90523528.00000000 228970192.00000000 88773.64843750  7163653.50000000 5663950.00000000 
0.02800    143563440.00000000 89771888.00000000 227050448.00000000 87699.06250000  7089450.50000000 5605728.00000000 
0.02900    142305472.00000000 89000720.00000000 225080832.00000000 86600.03125000  7013418.00000000 5546072.00000000 
0.03000    141016928.00000000 88210408.00000000 223062000.00000000 85478.30468750  6935693.00000000 5485068.00000000 
0.03100    139699456.00000000 87402016.00000000 220997488.00000000 84336.06250000  6856364.00000000 5422779.00000000 
0.03200    138352544.00000000 86575760.00000000 218887808.00000000 83173.45312500  6775442.50000000 5359298.50000000 
0.03300    136978752.00000000 85733248.00000000 216736768.00000000 81992.46093750  6693135.50000000 5294656.50000000 
0.03400    135579200.00000000 84874544.00000000 214544320.00000000 80794.01562500  6609438.00000000 5228933.00000000 
0.03500    134156944.00000000 84001320.00000000 212313024.00000000 79580.44531250  6524466.00000000 5162244.00000000 
0.03600    132710112.00000000 83113264.00000000 210046416.00000000 78352.89062500  6438313.50000000 5094556.00000000 
0.03700    131242048.00000000 82211112.00000000 207745232.00000000 77112.03906250  6351068.50000000 5026043.00000000 
0.03800    129753416.00000000 81296168.00000000 205411456.00000000 75860.71093750  6262829.50000000 4956735.00000000 
0.03900    128245752.00000000 80370080.00000000 203046864.00000000 74599.07812500  6173676.00000000 4886669.00000000 
0.04000    126720704.00000000 79432200.00000000 200655312.00000000 73329.04687500  6083730.00000000 4815959.50000000 
0.04100    125178400.00000000 78484280.00000000 198237008.00000000 72052.08593750  5993003.50000000 4744720.50000000 
0.04200    123621376.00000000 77526704.00000000 195793776.00000000 70769.38281250  5901665.50000000 4672878.50000000 
0.04300    122050608.00000000 76560552.00000000 193329776.00000000 69482.18750000  5809728.50000000 4600677.50000000 
0.04400    120467096.00000000 75585872.00000000 190845392.00000000 68191.81250000  5717334.00000000 4528040.50000000 
0.04500    118872016.00000000 74603936.00000000 188342320.00000000 66899.64062500  5624559.00000000 4455083.00000000 
0.04600    117267600.00000000 73616008.00000000 185823232.00000000 65607.72656250  5531510.50000000 4381861.50000000 
0.04700    115654120.00000000 72621504.00000000 183290368.00000000 64316.10546875  5438197.00000000 4308465.50000000 
0.04800    114033240.00000000 71622704.00000000 180746144.00000000 63026.56250000  5344750.50000000 4234977.00000000 
0.04900    112405848.00000000 70619432.00000000 178190240.00000000 61740.56250000  5251272.00000000 4161385.75000000 
0.05000    110774176.00000000 69613048.00000000 175627232.00000000 60458.58984375  5157765.50000000 4087815.50000000 
0.05100    109138072.00000000 68604000.00000000 173056240.00000000 59182.40234375  5064387.00000000 4014290.75000000 
0.05200    107499632.00000000 67592344.00000000 170481200.00000000 57912.86718750  4971138.00000000 3940904.50000000 
0.05300    105860144.00000000 66579888.00000000 167905040.00000000 56650.85156250  4878166.00000000 3867694.50000000 
0.05400    104220024.00000000 65566964.00000000 165327648.00000000 55397.43750000  4785493.50000000 3794710.50000000 
0.05500    102580280.00000000 64554220.00000000 162749760.00000000 54153.75390625  4693223.50000000 3722018.00000000 
0.05600    100943712.00000000 63541956.00000000 160174624.00000000 52920.57812500  4601380.00000000 3649667.75000000 
0.05700    99309776.00000000 62531588.00000000 157603744.00000000 51699.30468750  4510076.00000000 3577691.00000000 
0.05800    97679680.00000000 61523004.00000000 155040672.00000000 50489.91015625  4419307.50000000 3506175.25000000 
0.05900    96054344.00000000 60517348.00000000 152482016.00000000 49293.91015625  4329190.00000000 3435120.25000000 
0.06000    94435296.00000000 59514788.00000000 149934240.00000000 48111.37109375  4239779.50000000 3364599.25000000 
0.06100    92823336.00000000 58516284.00000000 147396560.00000000 46943.83593750  4151109.50000000 3294660.00000000 
0.06200    91219296.00000000 57522176.00000000 144870656.00000000 45791.49609375  4063220.50000000 3225330.75000000 
0.06300    89623624.00000000 56533132.00000000 142359216.00000000 44655.05468750  3976164.75000000 3156654.00000000 
0.06400    88038464.00000000 55549764.00000000 139861632.00000000 43535.01953125  3890041.00000000 3088658.25000000 
0.06500    86463224.00000000 54572472.00000000 137380128.00000000 42432.01562500  3804833.25000000 3021394.25000000 
0.06600    84899576.00000000 53601776.00000000 134916240.00000000 41346.67968750  3720612.50000000 2954913.00000000 
0.06700    83347376.00000000 52638168.00000000 132471304.00000000 40279.04687500  3637421.00000000 2889197.25000000 
0.06800    81809176.00000000 51682200.00000000 130044032.00000000 39229.97265625  3555258.50000000 2824284.50000000 
0.06900    80283688.00000000 50734060.00000000 127639144.00000000 38199.57812500  3474220.50000000 2760262.25000000 
0.07000    78772824.00000000 49794080.00000000 125255816.00000000 37188.29687500  3394271.75000000 2697080.75000000 
0.07100    77275888.00000000 48863104.00000000 122894584.00000000 36196.34375000  3315480.50000000 2634798.50000000 
0.07200    75795240.00000000 47941360.00000000 120557928.00000000 35223.68750000  3237871.50000000 2573421.75000000 
0.07300    74330096.00000000 47028932.00000000 118244904.00000000 34270.95312500  3161470.25000000 2512998.25000000 
0.07400    72880960.00000000 46126504.00000000 115958288.00000000 33338.19140625  3086311.00000000 2453528.00000000 
0.07500    71449408.00000000 45233984.00000000 113697488.00000000 32425.56250000  3012360.75000000 2395029.25000000 
0.07600    70035552.00000000 44351760.00000000 111463608.00000000 31532.67578125  2939688.00000000 2337504.50000000 
0.07700    68639112.00000000 43480972.00000000 109257416.00000000 30660.42773438  2868295.75000000 2280966.50000000 
0.07800    67260616.00000000 42620240.00000000 107079752.00000000 29807.80664062  2798176.25000000 2225451.00000000 
0.07900    65901528.00000000 41771108.00000000 104930064.00000000 28975.79101562  2729360.50000000 2170931.25000000 
0.08000    64560892.00000000 40933656.00000000 102810400.00000000 28163.63476562  2661846.75000000 2117432.25000000 
0.08100    63239328.00000000 40107388.00000000 100721488.00000000 27371.66601562  2595643.25000000 2064958.50000000 
0.08200    61937320.00000000 39293088.00000000 98661560.00000000 26599.42578125  2530739.50000000 2013526.00000000 
0.08300    60655360.00000000 38490536.00000000 96632424.00000000 25846.85546875  2467157.75000000 1963117.75000000 
0.08400    59392636.00000000 37700536.00000000 94635064.00000000 25114.08007812  2404909.50000000 1913725.50000000 
0.08500    58150512.00000000 36922376.00000000 92668624.00000000 24400.75585938  2343953.50000000 1865379.62500000 
0.08600    56928736.00000000 36156584.00000000 90734456.00000000 23706.15625000  2284331.00000000 1818060.37500000 
0.08700    55727020.00000000 35403480.00000000 88830760.00000000 23030.92187500  2225990.25000000 1771751.50000000 
0.08800    54545648.00000000 34662556.00000000 86959984.00000000 22374.29492188  2168954.50000000 1726470.75000000 
0.08900    53385436.00000000 33934420.00000000 85121104.00000000 21736.04492188  2113198.75000000 1682197.25000000 
0.09000    52245268.00000000 33218604.00000000 83313952.00000000 21115.82617188  2058738.87500000 1638934.75000000 
0.09100    51125492.00000000 32515574.00000000 81539680.00000000 20513.39062500  2005544.00000000 1596661.75000000 
0.09200    50026776.00000000 31825038.00000000 79797472.00000000 19928.44531250  1953596.12500000 1555378.87500000 
0.09300    48948600.00000000 31147390.00000000 78087592.00000000 19360.65820312  1902883.12500000 1515068.50000000 
0.09400    47890788.00000000 30482198.00000000 76409264.00000000 18809.44531250  1853391.75000000 1475725.00000000 
0.09500    46853304.00000000 29829438.00000000 74763936.00000000 18274.85351562  1805119.25000000 1437330.50000000 
0.09600    45836252.00000000 29189410.00000000 73149520.00000000 17756.20703125  1758037.62500000 1399874.37500000 
0.09700    44839716.00000000 28561842.00000000 71567680.00000000 17253.16015625  1712134.75000000 1363349.37500000 
0.09800    43862800.00000000 27946592.00000000 70017160.00000000 16765.47460938  1667387.12500000 1327736.75000000 
0.09900    42906104.00000000 27343648.00000000 68498576.00000000 16292.75097656  1623771.50000000 1293024.37500000 
0.10000    41969368.00000000 26752974.00000000 67010204.00000000 15834.40136719  1581274.50000000 1259189.50000000 
0.10100    41052172.00000000 26174628.00000000 65553916.00000000 15390.16601562  1539870.62500000 1226213.75000000 
0.10200    40154060.00000000 25608396.00000000 64127224.00000000 14959.58203125  1499537.12500000 1194102.87500000 
0.10300    39275604.00000000 25053748.00000000 62731144.00000000 14542.40332031  1460257.50000000 1162811.87500000 
0.10400    38416040.00000000 24511374.00000000 61365228.00000000 14138.05273438  1422009.87500000 1132338.25000000 
0.10500    37575424.00000000 23980502.00000000 60029336.00000000 13746.26562500  1384783.62500000 1102668.00000000 
0.10600    36753012.00000000 23461016.00000000 58721956.00000000 13366.56738281  1348529.37500000 1073769.12500000 
0.10700    35949356.00000000 22953292.00000000 57444004.00000000 12998.68359375  1313240.87500000 1045642.00000000 
0.10800    35163560.00000000 22456592.00000000 56194796.00000000 12642.24902344  1278894.12500000 1018258.68750000 
0.10900    34395708.00000000 21970986.00000000 54973384.00000000 12296.54394531  1245458.87500000 991601.93750000 
0.11000    33645440.00000000 21496682.00000000 53779760.00000000 11961.58496094  1212914.62500000 965655.43750000 
0.11100    32912220.00000000 21032832.00000000 52613496.00000000 11636.93554688  1181256.12500000 940403.75000000 
0.11200    32196050.00000000 20579812.00000000 51474264.00000000 11322.17578125  1150454.12500000 915820.18750000 
0.11300    31496668.00000000 20137144.00000000 50361272.00000000 11016.92187500  1120449.75000000 891899.81250000 
0.11400    30813744.00000000 19704846.00000000 49274704.00000000 10720.85058594  1091274.75000000 868615.37500000 
0.11500    30147060.00000000 19282684.00000000 48213268.00000000 10433.71386719  1062870.25000000 845953.50000000 
0.11600    29495714.00000000 18870496.00000000 47177320.00000000 10155.14453125  1035233.31250000 823900.12500000 
0.11700    28860438.00000000 18468080.00000000 46165936.00000000 9884.81835938   1008328.56250000 802434.06250000 
0.11800    28240156.00000000 18075158.00000000 45178188.00000000 9622.42285156   982141.62500000 781538.31250000 
0.11900    27634886.00000000 17691724.00000000 44214616.00000000 9367.64355469   956655.87500000 761190.00000000 
0.12000    27044056.00000000 17317506.00000000 43274068.00000000 9120.24804688   931835.56250000 741386.06250000 
0.12100    26467684.00000000 16952380.00000000 42356524.00000000 8880.02246094   907686.50000000 722108.25000000 
0.12200    25905366.00000000 16596072.00000000 41461064.00000000 8646.57617188   884169.00000000 703337.81250000 
0.12300    25356704.00000000 16248262.00000000 40587360.00000000 8419.73828125   861265.62500000 685053.43750000 
0.12400    24821438.00000000 15909133.00000000 39735312.00000000 8199.21484375   838965.81250000 667253.93750000 
0.12500    24299338.00000000 15578204.00000000 38903720.00000000 7984.77246094   817240.06250000 649913.43750000 
0.12600    23790142.00000000 15255426.00000000 38092884.00000000 7776.34667969   796081.43750000 633026.87500000 
0.12700    23293412.00000000 14940543.00000000 37301684.00000000 7573.52832031   775464.62500000 616572.93750000 
0.12800    22808826.00000000 14633452.00000000 36530344.00000000 7376.19140625   755386.18750000 600539.56250000 
0.12900    22336586.00000000 14333979.00000000 35778008.00000000 7184.17871094   735821.31250000 584921.06250000 
0.13000    21875574.00000000 14041853.00000000 35044256.00000000 6997.27441406   716752.18750000 569700.87500000 
0.13100    21426162.00000000 13757011.00000000 34328296.00000000 6815.26025391   698160.12500000 554863.25000000 
0.13200    20987936.00000000 13479125.00000000 33630256.00000000 6638.08544922   680038.37500000 540399.81250000 
0.13300    20560444.00000000 13208215.00000000 32949686.00000000 6465.52587891   662378.18750000 526301.18750000 
0.13400    20143580.00000000 12943974.00000000 32285764.00000000 6297.45019531   645155.81250000 512553.03125000 
0.13500    19736996.00000000 12686255.00000000 31638478.00000000 6133.73388672   628364.56250000 499147.84375000 
0.13600    19340578.00000000 12434959.00000000 31006988.00000000 5974.19140625   611987.31250000 486074.93750000 
0.13700    18953914.00000000 12189894.00000000 30391348.00000000 5818.74511719   596010.25000000 473323.90625000 
0.13800    18576832.00000000 11950908.00000000 29790876.00000000 5667.28466797   580426.75000000 460884.84375000 
0.13900    18209096.00000000 11717803.00000000 29205124.00000000 5519.70214844   565230.06250000 448753.28125000 
0.14000    17850354.00000000 11490502.00000000 28633794.00000000 5375.92187500   550404.81250000 436915.78125000 
0.14100    17500496.00000000 11268809.00000000 28076840.00000000 5235.79443359   535937.56250000 425369.37500000 
0.14200    17159340.00000000 11052501.00000000 27533576.00000000 5099.22998047   521825.59375000 414101.15625000 
0.14300    16826548.00000000 10841565.00000000 27003484.00000000 4966.16601562   508051.18750000 403106.09375000 
0.14400    16501789.00000000 10635812.00000000 26486400.00000000 4836.53955078   494612.06250000 392376.68750000 
0.14500    16185144.00000000 10435128.00000000 25982332.00000000 4710.26074219   481501.93750000 381904.84375000 
0.14600    15876340.00000000 10239251.00000000 25490316.00000000 4587.24462891   468708.31250000 371688.71875000 
0.14700    15574898.00000000 10048273.00000000 25010406.00000000 4467.45947266   456225.65625000 361718.06250000 
0.14800    15280826.00000000 9861841.00000000 24541966.00000000 4350.82421875   444044.87500000 351989.31250000 
0.14900    14993990.00000000 9679973.00000000 24085090.00000000 4237.20556641   432155.43750000 342493.31250000 
0.15000    14714084.00000000 9502470.00000000 23639260.00000000 4126.67871094   420557.50000000 333224.31250000 
0.15100    14440877.00000000 9329245.00000000 23204116.00000000 4019.08300781   409243.18750000 324183.46875000 
0.15200    14174478.00000000 9160267.00000000 22779558.00000000 3914.41992188   398208.09375000 315362.43750000 
0.15300    13914423.00000000 8995315.00000000 22365228.00000000 3812.65502930   387441.28125000 306754.34375000 
0.15400    13660505.00000000 8834126.00000000 21960574.00000000 3713.65356445   376937.75000000 298357.56250000 
0.15500    13412755.00000000 8676916.00000000 21565788.00000000 3617.45507812   366695.34375000 290162.28125000 
0.15600    13170851.00000000 8523321.00000000 21180264.00000000 3523.96118164   356702.90625000 282170.93750000 
0.15700    12934835.00000000 8373459.00000000 20804016.00000000 3433.18847656   346963.28125000 274380.56250000 
0.15800    12704285.00000000 8226992.00000000 20436398.00000000 3344.98925781   337466.68750000 266778.00000000 
0.15900    12479192.00000000 8084005.00000000 20077552.00000000 3259.40356445   328209.12500000 259365.81250000 
0.16000    12259315.00000000 7944267.50000000 19726854.00000000 3176.37475586   319184.37500000 252138.01562500 
0.16100    12044866.00000000 7807783.00000000 19384614.00000000 3095.85107422   310395.71875000 245097.89062500 
0.16200    11835171.00000000 7674501.50000000 19050206.00000000 3017.78076172   301830.65625000 238232.28125000 
0.16300    11630390.00000000 7544203.00000000 18723422.00000000 2942.11669922   293482.78125000 231542.98437500 
0.16400    11430468.00000000 7416877.00000000 18404170.00000000 2868.86206055   285358.40625000 225027.14062500 
0.16500    11235155.00000000 7292389.50000000 18092178.00000000 2797.90039062   277446.96875000 218677.73437500 
0.16600    11044177.00000000 7170687.50000000 17787166.00000000 2729.25390625   269743.87500000 212496.31250000 
0.16700    10857521.00000000 7051714.50000000 17489038.00000000 2662.82543945   262240.87500000 206473.95312500 
0.16800    10675167.00000000 6935312.00000000 17197664.00000000 2598.58569336   254942.25000000 200611.57812500 
0.16900    10496967.00000000 6821503.50000000 16912788.00000000 2536.55639648   247845.73437500 194909.25000000 
0.17000    10322818.00000000 6710187.00000000 16634099.00000000 2476.57373047   240937.54687500 189356.90625000 
