# SAXS profile: number of points = 501, q_min = 0, q_max = 0.5, delta_q = 0.001
#    q    intensity 
0.00000    162237232.00000000 101202144.00000000 256271008.00000000 97820.89843750  7967531.50000000 6292716.50000000 
0.00100    162207264.00000000 101182104.00000000 256223040.00000000 97795.67968750  7965734.00000000 6291320.50000000 
0.00200    162116400.00000000 101124656.00000000 256076848.00000000 97720.85156250  7960337.50000000 6287082.00000000 
0.00300    161961936.00000000 101028216.00000000 255832352.00000000 97596.51562500  7951364.00000000 6280004.00000000 
0.00400    161744592.00000000 100893520.00000000 255489856.00000000 97422.29687500  7938808.50000000 6270161.50000000 
0.00500    161464032.00000000 100720592.00000000 255050240.00000000 97199.18750000  7922697.00000000 6257485.50000000 
0.00600    161122384.00000000 100509784.00000000 254512736.00000000 96927.03125000  7903127.50000000 6242014.00000000 
0.00700    160721888.00000000 100261000.00000000 253881120.00000000 96606.38281250  7880007.50000000 6223828.00000000 
0.00800    160257952.00000000 99975600.00000000 253154976.00000000 96238.17187500  7853422.50000000 6202916.00000000 
0.00900    159733488.00000000 99653120.00000000 252335728.00000000 95822.53125000  7823418.50000000 6179293.50000000 
0.01000    159152400.00000000 99294592.00000000 251421216.00000000 95359.91406250  7790075.00000000 6153017.50000000 
0.01100    158514624.00000000 98900200.00000000 250416448.00000000 94851.62500000  7753403.50000000 6124142.00000000 
0.01200    157821472.00000000 98469648.00000000 249322032.00000000 94299.21875000  7713394.50000000 6092675.50000000 
0.01300    157068576.00000000 98003952.00000000 248138176.00000000 93701.85937500  7670257.00000000 6058700.50000000 
0.01400    156258784.00000000 97503864.00000000 246867744.00000000 93061.75781250  7623923.00000000 6022233.00000000 
0.01500    155396960.00000000 96970264.00000000 245511776.00000000 92379.39062500  7574513.00000000 5983321.50000000 
0.01600    154480512.00000000 96403336.00000000 244069824.00000000 91656.42187500  7522124.00000000 5942052.00000000 
0.01700    153514144.00000000 95805248.00000000 242547504.00000000 90893.89843750  7466756.00000000 5898486.00000000 
0.01800    152495024.00000000 95174992.00000000 240945632.00000000 90092.36718750  7408604.50000000 5852681.50000000 
0.01900    151427024.00000000 94514624.00000000 239265248.00000000 89254.03125000  7347691.50000000 5804684.00000000 
0.02000    150310576.00000000 93823576.00000000 237510704.00000000 88379.22656250  7284016.50000000 5754563.00000000 
0.02100    149148512.00000000 93104304.00000000 235681920.00000000 87470.72656250  7217858.50000000 5702456.50000000 
0.02200    147940976.00000000 92356744.00000000 233780512.00000000 86528.51562500  7149193.50000000 5648356.00000000 
0.02300    146688560.00000000 91582808.00000000 231812432.00000000 85555.10156250  7078088.50000000 5592352.00000000 
0.02400    145396944.00000000 90782800.00000000 229777504.00000000 84550.95312500  7004695.50000000 5534567.00000000 
0.02500    144062992.00000000 89956960.00000000 227679552.00000000 83519.18750000  6929160.50000000 5475068.50000000 
0.02600    142690864.00000000 89107792.00000000 225519008.00000000 82459.83593750  6851504.50000000 5413903.50000000 
0.02700    141280880.00000000 88235232.00000000 223300768.00000000 81375.25781250  6771862.50000000 5351205.50000000 
0.02800    139836144.00000000 87340464.00000000 221027776.00000000 80266.68750000  6690392.00000000 5286999.50000000 
0.02900    138358880.00000000 86424888.00000000 218701040.00000000 79135.75000000  6607124.00000000 5221426.50000000 
0.03000    136847632.00000000 85489936.00000000 216324400.00000000 77984.39843750  6522212.00000000 5154520.50000000 
0.03100    135308048.00000000 84535960.00000000 213898976.00000000 76814.56250000  6435809.50000000 5086415.00000000 
0.03200    133739088.00000000 83564048.00000000 211430960.00000000 75627.27343750  6347914.50000000 5017193.50000000 
0.03300    132144760.00000000 82575864.00000000 208920784.00000000 74424.56250000  6258734.50000000 4946944.00000000 
0.03400    130525440.00000000 81573896.00000000 206371664.00000000 73207.78906250  6168355.50000000 4875718.00000000 
0.03500    128884000.00000000 80555800.00000000 203787952.00000000 71978.95312500  6076930.50000000 4803661.00000000 
0.03600    127221224.00000000 79525344.00000000 201169312.00000000 70739.15625000  5984458.00000000 4730833.00000000 
0.03700    125539768.00000000 78483248.00000000 198521904.00000000 69491.32812500  5891196.50000000 4657302.00000000 
0.03800    123841144.00000000 77430232.00000000 195846544.00000000 68235.35156250  5797163.50000000 4583194.00000000 
0.03900    122127248.00000000 76367384.00000000 193146496.00000000 66974.28125000  5702494.00000000 4508583.00000000 
0.04000    120400208.00000000 75297136.00000000 190426928.00000000 65708.84375000  5607333.00000000 4433566.00000000 
0.04100    118661056.00000000 74219104.00000000 187689984.00000000 64440.87500000  5511724.00000000 4358185.50000000 
0.04200    116912376.00000000 73134544.00000000 184935424.00000000 63171.65234375  5415833.50000000 4282587.00000000 
0.04300    115155296.00000000 72044856.00000000 182167216.00000000 61902.97656250  5319711.50000000 4206818.50000000 
0.04400    113392248.00000000 70951288.00000000 179389728.00000000 60636.75000000  5223525.50000000 4130946.50000000 
0.04500    111625584.00000000 69854256.00000000 176604848.00000000 59373.09375000  5127311.50000000 4055103.25000000 
0.04600    109854824.00000000 68755608.00000000 173815456.00000000 58114.58984375  5031255.50000000 3979350.75000000 
0.04700    108083144.00000000 67655368.00000000 171024944.00000000 56862.08203125  4935322.00000000 3903703.00000000 
0.04800    106311984.00000000 66556148.00000000 168233664.00000000 55617.05078125  4839704.00000000 3828319.75000000 
0.04900    104543904.00000000 65458032.00000000 165446320.00000000 54380.29687500  4744539.50000000 3753228.50000000 
0.05000    102778624.00000000 64361656.00000000 162663584.00000000 53153.87109375  4649791.00000000 3678513.75000000 
0.05100    101018288.00000000 63268520.00000000 159889856.00000000 51938.20312500  4555634.50000000 3604242.50000000 
0.05200    99264856.00000000 62179000.00000000 157124832.00000000 50734.19921875  4462106.00000000 3530454.75000000 
0.05300    97519224.00000000 61094524.00000000 154373296.00000000 49543.65234375  4369311.00000000 3457238.75000000 
0.05400    95783744.00000000 60015984.00000000 151636640.00000000 48367.21093750  4277335.50000000 3384670.25000000 
0.05500    94058712.00000000 58943928.00000000 148916288.00000000 47205.53906250  4186243.00000000 3312772.50000000 
0.05600    92345872.00000000 57879140.00000000 146214960.00000000 46060.10937500  4096080.75000000 3241616.50000000 
0.05700    90646648.00000000 56822536.00000000 143534048.00000000 44931.28515625  4006913.25000000 3171249.75000000 
0.05800    88961680.00000000 55774748.00000000 140877264.00000000 43819.63671875  3918823.25000000 3101721.75000000 
0.05900    87292120.00000000 54736416.00000000 138243920.00000000 42726.33593750  3831873.25000000 3033099.00000000 
0.06000    85639696.00000000 53708368.00000000 135637712.00000000 41652.10156250  3746107.75000000 2965391.25000000 
0.06100    84005168.00000000 52691256.00000000 133059696.00000000 40597.11328125  3661565.25000000 2898665.00000000 
0.06200    82389072.00000000 51685516.00000000 130509720.00000000 39562.12890625  3578344.50000000 2832931.00000000 
0.06300    80792888.00000000 50692108.00000000 127990296.00000000 38547.25000000  3496430.75000000 2768261.25000000 
0.06400    79216904.00000000 49710688.00000000 125503368.00000000 37553.65625000  3415887.75000000 2704642.25000000 
0.06500    77662272.00000000 48743312.00000000 123050376.00000000 36580.79687500  3336738.25000000 2642155.00000000 
0.06600    76129880.00000000 47788988.00000000 120631568.00000000 35629.81250000  3259036.75000000 2580772.00000000 
0.06700    74619368.00000000 46848668.00000000 118248720.00000000 34700.03125000  3182798.25000000 2520556.50000000 
0.06800    73133944.00000000 45922968.00000000 115903272.00000000 33792.55078125  3108036.50000000 2461508.75000000 
0.06900    71671144.00000000 45011764.00000000 113594056.00000000 32907.16015625  3034814.00000000 2403654.50000000 
0.07000    70233880.00000000 44115420.00000000 111324344.00000000 32043.74218750  2963104.00000000 2347002.75000000 
0.07100    68820280.00000000 43235128.00000000 109093376.00000000 31202.49609375  2892922.00000000 2291555.25000000 
0.07200    67433224.00000000 42370028.00000000 106901248.00000000 30383.42578125  2824318.00000000 2237347.00000000 
0.07300    66070992.00000000 41520988.00000000 104750120.00000000 29586.57421875  2757278.00000000 2184350.00000000 
0.07400    64734812.00000000 40687724.00000000 102640424.00000000 28811.61914062  2691793.50000000 2132609.75000000 
0.07500    63424816.00000000 39870528.00000000 100571304.00000000 28058.59179688  2627875.25000000 2082088.62500000 
0.07600    62141092.00000000 39069884.00000000 98543760.00000000 27327.03515625  2565523.75000000 2032791.37500000 
0.07700    60884712.00000000 38286216.00000000 96557952.00000000 26617.16601562  2504717.25000000 1984734.00000000 
0.07800    59654012.00000000 37518280.00000000 94614288.00000000 25928.39453125  2445490.25000000 1937901.75000000 
0.07900    58449848.00000000 36767080.00000000 92711824.00000000 25260.58593750  2387778.25000000 1892296.00000000 
0.08000    57273044.00000000 36032400.00000000 90851752.00000000 24613.37304688  2331614.25000000 1847880.37500000 
0.08100    56122324.00000000 35314000.00000000 89033960.00000000 23986.39843750  2276971.75000000 1804676.62500000 
0.08200    54998212.00000000 34612584.00000000 87257880.00000000 23379.17578125  2223820.75000000 1762636.75000000 
0.08300    53900328.00000000 33927260.00000000 85522216.00000000 22791.36523438  2172153.75000000 1721775.50000000 
0.08400    52828840.00000000 33257990.00000000 83828944.00000000 22222.54882812  2121916.75000000 1682055.37500000 
0.08500    51783088.00000000 32605160.00000000 82176432.00000000 21672.25585938  2073130.25000000 1643472.87500000 
0.08600    50763212.00000000 31968298.00000000 80564232.00000000 21140.21289062  2025755.37500000 1605988.75000000 
0.08700    49768516.00000000 31347368.00000000 78992384.00000000 20625.42968750  1979746.50000000 1569606.25000000 
0.08800    48799152.00000000 30741752.00000000 77459904.00000000 20127.90625000  1935081.25000000 1534276.87500000 
0.08900    47854680.00000000 30152106.00000000 75967352.00000000 19646.91210938  1891749.00000000 1499996.37500000 
0.09000    46934512.00000000 29577298.00000000 74512304.00000000 19181.88867188  1849707.62500000 1466729.00000000 
0.09100    46037980.00000000 29017448.00000000 73095992.00000000 18732.36328125  1808911.50000000 1434455.75000000 
0.09200    45165284.00000000 28472568.00000000 71715792.00000000 18297.77539062  1769335.12500000 1403154.50000000 
0.09300    44316040.00000000 27942012.00000000 70372992.00000000 17877.74609375  1730960.25000000 1372800.75000000 
0.09400    43488824.00000000 27425596.00000000 69066344.00000000 17471.17968750  1693730.75000000 1343328.25000000 
0.09500    42684044.00000000 26922962.00000000 67793680.00000000 17078.14453125  1657620.62500000 1314760.37500000 
0.09600    41900928.00000000 26433870.00000000 66556292.00000000 16697.79296875  1622588.00000000 1287041.37500000 
0.09700    41138928.00000000 25958160.00000000 65351792.00000000 16329.68261719  1588607.12500000 1260154.75000000 
0.09800    40397780.00000000 25495342.00000000 64180124.00000000 15973.20214844  1555626.62500000 1234061.87500000 
0.09900    39676388.00000000 25045130.00000000 63040544.00000000 15627.87402344  1523625.50000000 1208739.87500000 
0.10000    38974516.00000000 24607042.00000000 61931080.00000000 15293.20800781  1492558.12500000 1184152.75000000 
0.10100    38291628.00000000 24181000.00000000 60852172.00000000 14968.60937500  1462394.75000000 1160284.75000000 
0.10200    37627164.00000000 23766376.00000000 59802344.00000000 14653.62988281  1433080.12500000 1137089.37500000 
0.10300    36980208.00000000 23363004.00000000 58780640.00000000 14347.59277344  1404601.62500000 1114555.62500000 
0.10400    36351056.00000000 22970478.00000000 57786244.00000000 14050.28710938  1376916.62500000 1092651.37500000 
0.10500    35738312.00000000 22588432.00000000 56818308.00000000 13761.24121094  1349982.50000000 1071342.00000000 
0.10600    35141464.00000000 22216414.00000000 55875620.00000000 13479.76367188  1323766.75000000 1050593.25000000 
0.10700    34560732.00000000 21854288.00000000 54958220.00000000 13205.58105469  1298249.37500000 1030396.50000000 
0.10800    33994044.00000000 21501494.00000000 54063752.00000000 12938.30664062  1273377.37500000 1010720.06250000 
0.10900    33442270.00000000 21157700.00000000 53192712.00000000 12677.44238281  1249138.25000000 991538.25000000 
0.11000    32904234.00000000 20822572.00000000 52343436.00000000 12422.68066406  1225482.25000000 972814.75000000 
0.11100    32379438.00000000 20495876.00000000 51515084.00000000 12173.58496094  1202390.62500000 954542.25000000 
0.11200    31867586.00000000 20177292.00000000 50707132.00000000 11929.84863281  1179834.62500000 936689.75000000 
0.11300    31367856.00000000 19866298.00000000 49918524.00000000 11691.13476562  1157780.75000000 919230.25000000 
0.11400    30879780.00000000 19562712.00000000 49148500.00000000 11457.27832031  1136199.87500000 902150.75000000 
0.11500    30402998.00000000 19266212.00000000 48396372.00000000 11227.75781250  1115071.12500000 885430.00000000 
0.11600    29936650.00000000 18976286.00000000 47660656.00000000 11002.50097656  1094375.75000000 869044.00000000 
0.11700    29480654.00000000 18693036.00000000 46941704.00000000 10781.21777344  1074072.87500000 852969.50000000 
0.11800    29034418.00000000 18415776.00000000 46237804.00000000 10563.38476562  1054141.12500000 837200.25000000 
0.11900    28597366.00000000 18144376.00000000 45548632.00000000 10349.17675781  1034579.25000000 821704.56250000 
0.12000    28168986.00000000 17878410.00000000 44873616.00000000 10138.23144531  1015348.12500000 806477.00000000 
0.12100    27749152.00000000 17617858.00000000 44211836.00000000 9930.44140625   996442.12500000 791501.31250000 
0.12200    27337284.00000000 17362314.00000000 43562712.00000000 9725.57324219   977830.93750000 776764.81250000 
0.12300    26933220.00000000 17111380.00000000 42926004.00000000 9523.49902344   959497.12500000 762245.50000000 
0.12400    26536170.00000000 16865158.00000000 42300016.00000000 9324.05957031   941435.62500000 747934.06250000 
0.12500    26145736.00000000 16623171.00000000 41685408.00000000 9127.22265625   923626.68750000 733822.31250000 
0.12600    25762158.00000000 16385320.00000000 41081096.00000000 8932.89550781   906056.50000000 719905.56250000 
0.12700    25384726.00000000 16151136.00000000 40486256.00000000 8740.87109375   888719.00000000 706156.81250000 
0.12800    25012954.00000000 15920870.00000000 39900760.00000000 8551.19042969   871594.62500000 692576.81250000 
0.12900    24646868.00000000 15693985.00000000 39324068.00000000 8363.89062500   854674.93750000 679163.12500000 
0.13000    24286100.00000000 15470345.00000000 38755716.00000000 8178.75683594   837958.56250000 665901.43750000 
0.13100    23930376.00000000 15249828.00000000 38195396.00000000 7995.74609375   821415.50000000 652783.06250000 
0.13200    23579474.00000000 15032365.00000000 37642604.00000000 7814.96777344   805069.50000000 639810.75000000 
0.13300    23233062.00000000 14817688.00000000 37097192.00000000 7636.29589844   788894.18750000 626973.87500000 
0.13400    22890810.00000000 14605678.00000000 36558168.00000000 7459.82080078   772890.18750000 614267.50000000 
0.13500    22552918.00000000 14396213.00000000 36025812.00000000 7285.49658203   757051.75000000 601692.00000000 
0.13600    22218986.00000000 14189180.00000000 35499672.00000000 7113.39404297   741379.62500000 589243.87500000 
0.13700    21888900.00000000 13984427.00000000 34979484.00000000 6943.49902344   725865.00000000 576913.43750000 
0.13800    21562238.00000000 13781909.00000000 34465148.00000000 6775.84765625   710508.25000000 564714.25000000 
0.13900    21239436.00000000 13581577.00000000 33956104.00000000 6610.39257812   695311.31250000 552630.87500000 
0.14000    20919666.00000000 13383285.00000000 33452268.00000000 6447.28564453   680268.06250000 540668.50000000 
0.14100    20603380.00000000 13186909.00000000 32953452.00000000 6286.52539062   665379.68750000 528827.37500000 
0.14200    20290332.00000000 12992373.00000000 32459612.00000000 6128.15917969   650642.00000000 517107.09375000 
0.14300    19980024.00000000 12799821.00000000 31970600.00000000 5972.18798828   636072.18750000 505506.09375000 
0.14400    19672932.00000000 12609020.00000000 31486202.00000000 5818.61914062   621655.43750000 494024.21875000 
0.14500    19368902.00000000 12419870.00000000 31006300.00000000 5667.69140625   607396.18750000 482674.75000000 
0.14600    19067502.00000000 12232475.00000000 30531050.00000000 5519.27343750   593300.25000000 471442.15625000 
0.14700    18769148.00000000 12046865.00000000 30060114.00000000 5373.47119141   579372.93750000 460341.09375000 
0.14800    18473432.00000000 11862715.00000000 29593352.00000000 5230.31591797   565598.93750000 449363.40625000 
0.14900    18180596.00000000 11680349.00000000 29130760.00000000 5089.84130859   552000.50000000 438520.06250000 
0.15000    17890442.00000000 11499446.00000000 28672524.00000000 4952.09423828   538572.50000000 427808.31250000 
0.15100    17603174.00000000 11320207.00000000 28218638.00000000 4817.12109375   525317.68750000 417229.68750000 
0.15200    17318560.00000000 11142580.00000000 27768686.00000000 4685.00000000   512240.71875000 406798.56250000 
0.15300    17036736.00000000 10966572.00000000 27322944.00000000 4555.73681641   499346.62500000 396502.28125000 
0.15400    16757370.00000000 10792074.00000000 26881380.00000000 4429.23193359   486630.75000000 386346.96875000 
0.15500    16480986.00000000 10619184.00000000 26443980.00000000 4305.64208984   474105.03125000 376337.78125000 
0.15600    16207309.00000000 10447920.00000000 26010794.00000000 4184.96142578   461766.46875000 366475.71875000 
0.15700    15936505.00000000 10278383.00000000 25582078.00000000 4067.24731445   449621.46875000 356767.25000000 
0.15800    15668327.00000000 10110223.00000000 25157162.00000000 3952.40209961   437669.00000000 347207.90625000 
0.15900    15403010.00000000 9943869.00000000 24736812.00000000 3840.51293945   425912.68750000 337807.12500000 
0.16000    15140427.00000000 9779062.00000000 24320722.00000000 3731.53613281   414356.03125000 328560.34375000 
0.16100    14880913.00000000 9615918.00000000 23909102.00000000 3625.52221680   403002.50000000 319473.71875000 
0.16200    14624146.00000000 9454570.00000000 23501850.00000000 3522.42553711   391854.15625000 310549.25000000 
0.16300    14370327.00000000 9294881.00000000 23099178.00000000 3422.19848633   380908.15625000 301786.65625000 
0.16400    14119494.00000000 9136862.00000000 22701008.00000000 3324.87084961   370174.53125000 293188.87500000 
0.16500    13871684.00000000 8980661.00000000 22307370.00000000 3230.37353516   359647.65625000 284753.34375000 
0.16600    13626796.00000000 8826170.00000000 21918166.00000000 3138.75341797   349331.34375000 276488.37500000 
0.16700    13384857.00000000 8673497.00000000 21533742.00000000 3049.88940430   339222.18750000 268384.87500000 
0.16800    13146050.00000000 8522577.00000000 21153908.00000000 2963.77270508   329323.53125000 260450.03125000 
0.16900    12910340.00000000 8373605.50000000 20779126.00000000 2880.41528320   319642.90625000 252687.93750000 
0.17000    12677731.00000000 8226350.50000000 20408816.00000000 2799.69482422   310170.21875000 245091.42187500 
