# SAXS profile: number of points = 501, q_min = 0, q_max = 0.5, delta_q = 0.001
#    q    intensity 
0.00000    162238208.00000000 101201632.00000000 256271008.00000000 104415.61718750 8231697.00000000 6501409.00000000 
0.00100    162205728.00000000 101181600.00000000 256219712.00000000 104388.25781250 8229756.00000000 6499851.00000000 
0.00200    162107184.00000000 101119616.00000000 256062224.00000000 104306.53906250 8223966.50000000 6495302.50000000 
0.00300    161943360.00000000 101017016.00000000 255801776.00000000 104171.03125000 8214356.00000000 6487744.50000000 
0.00400    161710224.00000000 100873824.00000000 255437184.00000000 103981.31250000 8200917.50000000 6477120.50000000 
0.00500    161411952.00000000 100689336.00000000 254968224.00000000 103738.16406250 8183619.50000000 6463531.50000000 
0.00600    161048352.00000000 100464912.00000000 254396512.00000000 103442.06250000 8162554.00000000 6446940.00000000 
0.00700    160620256.00000000 100198824.00000000 253722416.00000000 103092.52343750 8137761.00000000 6427380.00000000 
0.00800    160127632.00000000 99894728.00000000 252948480.00000000 102691.17968750 8109224.00000000 6404943.50000000 
0.00900    159568672.00000000 99551416.00000000 252074576.00000000 102238.39062500 8077032.00000000 6379575.50000000 
0.01000    158948912.00000000 99168048.00000000 251100448.00000000 101734.54687500 8041210.00000000 6351359.50000000 
0.01100    158267904.00000000 98747296.00000000 250029152.00000000 101181.14062500 8001785.50000000 6320363.00000000 
0.01200    157527392.00000000 98288368.00000000 248861056.00000000 100578.38281250 7958865.50000000 6286556.00000000 
0.01300    156725856.00000000 97792168.00000000 247599968.00000000 99927.64062500  7912471.00000000 6250043.00000000 
0.01400    155863472.00000000 97259592.00000000 246243056.00000000 99229.85156250  7862728.00000000 6210873.00000000 
0.01500    154943520.00000000 96690576.00000000 244797920.00000000 98486.09375000  7809652.50000000 6169078.00000000 
0.01600    153965040.00000000 96085808.00000000 243261840.00000000 97697.64062500  7753377.50000000 6124783.50000000 
0.01700    152933840.00000000 95447984.00000000 241638432.00000000 96865.85937500  7693892.00000000 6077949.50000000 
0.01800    151848576.00000000 94776176.00000000 239930080.00000000 95991.21875000  7631439.50000000 6028761.00000000 
0.01900    150710832.00000000 94072232.00000000 238137904.00000000 95076.14062500  7565934.50000000 5977155.50000000 
0.02000    149520112.00000000 93336000.00000000 236267136.00000000 94121.69531250  7497575.00000000 5923337.50000000 
0.02100    148280304.00000000 92568872.00000000 234316032.00000000 93129.60156250  7426447.00000000 5867316.50000000 
0.02200    146993168.00000000 91772056.00000000 232291424.00000000 92101.30468750  7352619.00000000 5809155.00000000 
0.02300    145658304.00000000 90946808.00000000 230192176.00000000 91037.32031250  7276234.00000000 5748978.00000000 
0.02400    144279680.00000000 90093736.00000000 228022416.00000000 89940.78125000  7197365.00000000 5686910.00000000 
0.02500    142857568.00000000 89213976.00000000 225785280.00000000 88812.75781250  7116121.50000000 5622913.00000000 
0.02600    141394032.00000000 88308064.00000000 223483232.00000000 87654.49218750  7032670.50000000 5557180.00000000 
0.02700    139891584.00000000 87377616.00000000 221118480.00000000 86468.85156250  6947076.50000000 5489751.00000000 
0.02800    138351504.00000000 86423960.00000000 218694384.00000000 85256.51562500  6859430.00000000 5420733.50000000 
0.02900    136775248.00000000 85449240.00000000 216215168.00000000 84019.57031250  6769929.00000000 5350257.00000000 
0.03000    135165856.00000000 84452232.00000000 213682000.00000000 82759.35156250  6678603.50000000 5278294.50000000 
0.03100    133524520.00000000 83435976.00000000 211098960.00000000 81478.39843750  6585658.50000000 5205062.50000000 
0.03200    131853312.00000000 82400680.00000000 208467760.00000000 80178.78906250  6491156.50000000 5130614.50000000 
0.03300    130154520.00000000 81348384.00000000 205793632.00000000 78860.86718750  6395288.00000000 5055068.00000000 
0.03400    128429280.00000000 80279928.00000000 203078512.00000000 77527.66406250  6298046.00000000 4978501.50000000 
0.03500    126680384.00000000 79196728.00000000 200325984.00000000 76181.15625000  6199684.00000000 4900982.50000000 
0.03600    124910120.00000000 78099144.00000000 197537680.00000000 74822.13281250  6100285.50000000 4822658.50000000 
0.03700    123119056.00000000 76990080.00000000 194718368.00000000 73453.07031250  5999958.50000000 4743606.50000000 
0.03800    121310992.00000000 75869832.00000000 191871776.00000000 72075.67968750  5898808.00000000 4663916.00000000 
0.03900    119486880.00000000 74738616.00000000 188999152.00000000 70691.72656250  5797013.00000000 4583680.00000000 
0.04000    117649152.00000000 73599104.00000000 186104704.00000000 69302.53906250  5694645.50000000 4502996.00000000 
0.04100    115799304.00000000 72452496.00000000 183191984.00000000 67910.42968750  5591845.50000000 4421970.00000000 
0.04200    113939640.00000000 71300056.00000000 180263424.00000000 66516.63281250  5488738.00000000 4340718.50000000 
0.04300    112072128.00000000 70141776.00000000 177323056.00000000 65123.11328125  5385397.00000000 4259272.00000000 
0.04400    110198192.00000000 68979976.00000000 174370272.00000000 63731.09375000  5282003.00000000 4177745.25000000 
0.04500    108321088.00000000 67814696.00000000 171412704.00000000 62342.91406250  5178596.50000000 4096244.00000000 
0.04600    106441560.00000000 66648348.00000000 168451680.00000000 60959.43359375  5075349.50000000 4014816.50000000 
0.04700    104561120.00000000 65481632.00000000 165490400.00000000 59582.34765625  4972303.50000000 3933592.50000000 
0.04800    102682136.00000000 64315448.00000000 162528896.00000000 58212.99218750  4869603.00000000 3852622.25000000 
0.04900    100806880.00000000 63151532.00000000 159574096.00000000 56852.95703125  4767385.00000000 3772023.75000000 
0.05000    98936280.00000000 61990252.00000000 156626192.00000000 55503.63281250  4665704.50000000 3691817.25000000 
0.05100    97072664.00000000 60833156.00000000 153689232.00000000 54166.25390625  4564638.50000000 3612125.50000000 
0.05200    95217080.00000000 59680904.00000000 150765648.00000000 52841.87890625  4464316.00000000 3532998.00000000 
0.05300    93371824.00000000 58534360.00000000 147856000.00000000 51531.90625000  4364810.50000000 3454529.00000000 
0.05400    91537736.00000000 57394988.00000000 144965296.00000000 50237.39453125  4266204.00000000 3376774.75000000 
0.05500    89717280.00000000 56263828.00000000 142094608.00000000 48959.52343750  4168634.25000000 3299788.00000000 
0.05600    87910568.00000000 55141016.00000000 139245552.00000000 47698.88281250  4072078.75000000 3223622.75000000 
0.05700    86119952.00000000 54028084.00000000 136422160.00000000 46457.37500000  3976697.25000000 3148371.25000000 
0.05800    84346624.00000000 52925524.00000000 133625560.00000000 45235.09765625  3882522.25000000 3074063.50000000 
0.05900    82591656.00000000 51833984.00000000 130857496.00000000 44032.89062500  3789616.25000000 3000746.75000000 
0.06000    80856136.00000000 50755104.00000000 128120664.00000000 42851.59765625  3698058.50000000 2928508.25000000 
0.06100    79141976.00000000 49688492.00000000 125416696.00000000 41692.31640625  3607912.50000000 2857360.25000000 
0.06200    77449168.00000000 48635796.00000000 122746464.00000000 40555.07421875  3519222.00000000 2787357.75000000 
0.06300    75780344.00000000 47596920.00000000 120112800.00000000 39441.12890625  3432021.75000000 2718537.00000000 
0.06400    74134352.00000000 46572800.00000000 117516696.00000000 38350.28906250  3346370.00000000 2650955.00000000 
0.06500    72513728.00000000 45564448.00000000 114959968.00000000 37283.85156250  3262343.00000000 2584596.00000000 
0.06600    70918816.00000000 44571296.00000000 112442496.00000000 36241.61328125  3179913.00000000 2519546.25000000 
0.06700    69350712.00000000 43594748.00000000 109967976.00000000 35223.64453125  3099194.00000000 2455781.50000000 
0.06800    67809792.00000000 42635212.00000000 107535512.00000000 34230.66796875  3020124.00000000 2393370.00000000 
0.06900    66297228.00000000 41693068.00000000 105147576.00000000 33263.11328125  2942806.25000000 2332300.75000000 
0.07000    64812660.00000000 40768132.00000000 102805024.00000000 32320.25781250  2867224.50000000 2272611.75000000 
0.07100    63357376.00000000 39861640.00000000 100507208.00000000 31403.10351562  2793403.25000000 2214299.75000000 
0.07200    61931936.00000000 38973268.00000000 98256832.00000000 30511.26757812  2721366.50000000 2157417.50000000 
0.07300    60536380.00000000 38103456.00000000 96052944.00000000 29645.05078125  2651119.75000000 2101915.25000000 
0.07400    59171148.00000000 37252252.00000000 93896904.00000000 28803.91601562  2582661.50000000 2047839.50000000 
0.07500    57836788.00000000 36420060.00000000 91789200.00000000 27988.12109375  2515998.25000000 1995171.50000000 
0.07600    56533292.00000000 35607360.00000000 89730672.00000000 27197.29687500  2451133.25000000 1943921.62500000 
0.07700    55260584.00000000 34813520.00000000 87720184.00000000 26431.27734375  2388080.50000000 1894079.25000000 
0.07800    54019280.00000000 34039296.00000000 85759272.00000000 25689.93750000  2326782.75000000 1845660.87500000 
0.07900    52808872.00000000 33284424.00000000 83848048.00000000 24972.79101562  2267279.25000000 1798627.87500000 
0.08000    51630092.00000000 32549010.00000000 81985688.00000000 24279.57617188  2209544.00000000 1752994.62500000 
0.08100    50482596.00000000 31832680.00000000 80172784.00000000 23610.11132812  2153546.75000000 1708734.37500000 
0.08200    49366084.00000000 31135922.00000000 78408544.00000000 22963.75976562  2099281.75000000 1665825.37500000 
0.08300    48280420.00000000 30458322.00000000 76693080.00000000 22340.12500000  2046717.12500000 1624272.62500000 
0.08400    47225892.00000000 29800086.00000000 75026336.00000000 21738.64843750  1995843.37500000 1584051.12500000 
0.08500    46201636.00000000 29160814.00000000 73408056.00000000 21159.16015625  1946616.25000000 1545134.62500000 
0.08600    45207964.00000000 28540386.00000000 71837408.00000000 20600.91796875  1899039.25000000 1507509.50000000 
0.08700    44244304.00000000 27938664.00000000 70314488.00000000 20063.29492188  1853034.37500000 1471125.62500000 
0.08800    43309964.00000000 27355292.00000000 68837744.00000000 19545.80273438  1808603.12500000 1435993.37500000 
0.08900    42404644.00000000 26790402.00000000 67407664.00000000 19047.96289062  1765709.37500000 1402052.25000000 
0.09000    41528380.00000000 26243306.00000000 66022716.00000000 18569.16601562  1724306.50000000 1369306.12500000 
0.09100    40680316.00000000 25713860.00000000 64682740.00000000 18108.59765625  1684362.00000000 1337698.00000000 
0.09200    39860064.00000000 25201866.00000000 63386048.00000000 17665.63476562  1645821.25000000 1307216.37500000 
0.09300    39067084.00000000 24706808.00000000 62132344.00000000 17240.09570312  1608678.50000000 1277827.75000000 
0.09400    38300748.00000000 24228374.00000000 60922236.00000000 16830.79882812  1572861.25000000 1249479.12500000 
0.09500    37560596.00000000 23766458.00000000 59752092.00000000 16437.51171875  1538334.87500000 1222168.50000000 
0.09600    36845708.00000000 23320350.00000000 58622864.00000000 16059.27636719  1505069.37500000 1195840.25000000 
0.09700    36156100.00000000 22889954.00000000 57532932.00000000 15695.59863281  1473010.75000000 1170468.75000000 
0.09800    35490328.00000000 22474674.00000000 56481200.00000000 15345.81835938  1442108.12500000 1146011.37500000 
0.09900    34848280.00000000 22074074.00000000 55467232.00000000 15009.33203125  1412350.62500000 1122444.87500000 
0.10000    34229232.00000000 21687986.00000000 54488848.00000000 14685.50097656  1383648.62500000 1099732.75000000 
0.10100    33631860.00000000 21315614.00000000 53545812.00000000 14373.63574219  1355966.62500000 1077827.87500000 
0.10200    33055926.00000000 20956894.00000000 52636572.00000000 14073.17578125  1329297.25000000 1056704.50000000 
0.10300    32500896.00000000 20611174.00000000 51760152.00000000 13783.40234375  1303572.00000000 1036337.62500000 
0.10400    31965960.00000000 20277916.00000000 50915988.00000000 13503.83984375  1278735.37500000 1016673.75000000 
0.10500    31450492.00000000 19956892.00000000 50102008.00000000 13234.00683594  1254765.75000000 997690.31250000 
0.10600    30953338.00000000 19647556.00000000 49317436.00000000 12973.06933594  1231593.50000000 979347.31250000 
0.10700    30474168.00000000 19349406.00000000 48561512.00000000 12720.79589844  1209209.25000000 961623.12500000 
0.10800    30011848.00000000 19062106.00000000 47832280.00000000 12476.30175781  1187542.87500000 944465.00000000 
0.10900    29566096.00000000 18785050.00000000 47129188.00000000 12239.26464844  1166577.25000000 927855.25000000 
0.11000    29135862.00000000 18517776.00000000 46450908.00000000 12009.09960938  1146263.12500000 911764.37500000 
0.11100    28720634.00000000 18260002.00000000 45796180.00000000 11785.55664062  1126548.37500000 896148.81250000 
0.11200    28319616.00000000 18011196.00000000 45164080.00000000 11567.96777344  1107403.50000000 880990.18750000 
0.11300    27931770.00000000 17770842.00000000 44553780.00000000 11355.84863281  1088805.00000000 866255.68750000 
0.11400    27557048.00000000 17538514.00000000 43963512.00000000 11148.91699219  1070710.62500000 851915.62500000 
0.11500    27194380.00000000 17314112.00000000 43392612.00000000 10946.78222656  1053079.25000000 837946.12500000 
0.11600    26843212.00000000 17096776.00000000 42839960.00000000 10749.01171875  1035883.37500000 824321.00000000 
0.11700    26502818.00000000 16886300.00000000 42304452.00000000 10555.28515625  1019084.43750000 811009.93750000 
0.11800    26172472.00000000 16682269.00000000 41784996.00000000 10365.16601562  1002662.62500000 797990.43750000 
0.11900    25851812.00000000 16484075.00000000 41280492.00000000 10178.56054688  986576.12500000 785238.18750000 
0.12000    25539942.00000000 16291636.00000000 40790208.00000000 9994.99804688   970804.12500000 772738.12500000 
0.12100    25236518.00000000 16104491.00000000 40313404.00000000 9814.29003906   955324.25000000 760472.37500000 
0.12200    24940730.00000000 15922169.00000000 39848716.00000000 9636.21093750   940113.06250000 748404.00000000 
0.12300    24652150.00000000 15744472.00000000 39395976.00000000 9460.51269531   925142.00000000 736527.12500000 
0.12400    24370348.00000000 15570859.00000000 38953216.00000000 9286.96386719   910380.81250000 724822.56250000 
0.12500    24094354.00000000 15401181.00000000 38520056.00000000 9115.39257812   895823.62500000 713279.87500000 
0.12600    23824226.00000000 15235029.00000000 38096424.00000000 8945.72753906   881450.68750000 701873.62500000 
0.12700    23559238.00000000 15072196.00000000 37680408.00000000 8777.74218750   867239.56250000 690592.00000000 
0.12800    23299024.00000000 14912210.00000000 37272292.00000000 8611.32421875   853168.62500000 679424.12500000 
0.12900    23043090.00000000 14754878.00000000 36870556.00000000 8446.45117188   839231.56250000 668369.62500000 
0.13000    22790868.00000000 14600080.00000000 36475428.00000000 8282.88574219   825412.50000000 657394.68750000 
0.13100    22542366.00000000 14447382.00000000 36085380.00000000 8120.65527344   811704.62500000 646505.31250000 
0.13200    22296724.00000000 14296535.00000000 35700336.00000000 7959.66064453   798085.56250000 635692.68750000 
0.13300    22054160.00000000 14147485.00000000 35319756.00000000 7799.96240234   784560.50000000 624944.12500000 
0.13400    21813800.00000000 13999914.00000000 34942804.00000000 7641.37158203   771107.81250000 614252.31250000 
0.13500    21575612.00000000 13853594.00000000 34569392.00000000 7484.00292969   757734.87500000 603618.87500000 
0.13600    21339346.00000000 13708285.00000000 34198504.00000000 7327.80859375   744415.50000000 593037.12500000 
0.13700    21104640.00000000 13564042.00000000 33830528.00000000 7172.79785156   731167.25000000 582499.50000000 
0.13800    20871216.00000000 13420537.00000000 33464296.00000000 7018.95849609   717966.18750000 572003.81250000 
0.13900    20639014.00000000 13277738.00000000 33099672.00000000 6866.44824219   704825.56250000 561550.00000000 
0.14000    20407756.00000000 13135364.00000000 32736666.00000000 6715.08105469   691744.75000000 551132.37500000 
0.14100    20177248.00000000 12993439.00000000 32374682.00000000 6565.05078125   678710.25000000 540763.87500000 
0.14200    19947276.00000000 12851640.00000000 32013512.00000000 6416.42187500   665730.06250000 530424.00000000 
0.14300    19717836.00000000 12710166.00000000 31652880.00000000 6269.22558594   652802.50000000 520129.34375000 
0.14400    19488610.00000000 12568653.00000000 31292376.00000000 6123.43750000   639926.50000000 509871.93750000 
0.14500    19259836.00000000 12427207.00000000 30932338.00000000 5979.22802734   627114.56250000 499658.21875000 
0.14600    19031000.00000000 12285700.00000000 30572390.00000000 5836.61132812   614355.43750000 489493.53125000 
0.14700    18802260.00000000 12144078.00000000 30212374.00000000 5695.70703125   601668.00000000 479376.18750000 
0.14800    18573366.00000000 12002368.00000000 29852022.00000000 5556.50292969   589040.50000000 469309.09375000 
0.14900    18344696.00000000 11860434.00000000 29491542.00000000 5419.17529297   576487.50000000 459293.03125000 
0.15000    18115824.00000000 11718235.00000000 29130520.00000000 5283.69335938   564015.75000000 449341.00000000 
0.15100    17886742.00000000 11575882.00000000 28769222.00000000 5150.19628906   551623.75000000 439449.68750000 
0.15200    17657756.00000000 11433291.00000000 28407588.00000000 5018.73046875   539321.25000000 429628.59375000 
0.15300    17428570.00000000 11290507.00000000 28045730.00000000 4889.43359375   527107.81250000 419876.37500000 
0.15400    17199094.00000000 11147446.00000000 27683354.00000000 4762.18994141   514994.18750000 410200.28125000 
0.15500    16969826.00000000 11004146.00000000 27320648.00000000 4637.24902344   502989.12500000 400611.46875000 
0.15600    16740315.00000000 10860708.00000000 26957590.00000000 4514.55468750   491093.62500000 391102.40625000 
0.15700    16510946.00000000 10717091.00000000 26594750.00000000 4394.26806641   479316.62500000 381688.18750000 
0.15800    16281549.00000000 10573270.00000000 26231336.00000000 4276.30224609   467661.28125000 372370.15625000 
0.15900    16052448.00000000 10429470.00000000 25868038.00000000 4160.83496094   456137.03125000 363153.03125000 
0.16000    15823380.00000000 10285622.00000000 25504856.00000000 4047.82885742   444747.31250000 354041.15625000 
0.16100    15594673.00000000 10141609.00000000 25141970.00000000 3937.37011719   433503.56250000 345044.59375000 
0.16200    15366363.00000000 9997771.00000000 24779370.00000000 3829.45336914   422402.40625000 336160.65625000 
0.16300    15138341.00000000 9853962.00000000 24417100.00000000 3724.14672852   411459.31250000 327396.37500000 
0.16400    14910954.00000000 9710363.00000000 24055764.00000000 3621.42333984   400673.34375000 318760.65625000 
0.16500    14684113.00000000 9566936.00000000 23694932.00000000 3521.31176758   390047.40625000 310251.46875000 
0.16600    14458039.00000000 9423763.00000000 23334986.00000000 3423.83959961   379592.87500000 301875.12500000 
0.16700    14232683.00000000 9280858.00000000 22976160.00000000 3328.98461914   369311.93750000 293636.06250000 
0.16800    14008238.00000000 9138411.00000000 22618316.00000000 3236.73583984   359206.65625000 285537.93750000 
0.16900    13784788.00000000 8996396.00000000 22262208.00000000 3147.16162109   349284.00000000 277586.62500000 
0.17000    13562472.00000000 8854862.00000000 21907490.00000000 3060.17529297   339547.40625000 269778.43750000 
