# SAXS profile: number of points = 501, q_min = 0, q_max = 0.5, delta_q = 0.001
#    q    intensity 
0.00000    162236704.00000000 101202080.00000000 256270848.00000000 107677.99218750 8359325.00000000 6602152.00000000 
0.00100    162206432.00000000 101182984.00000000 256221872.00000000 107649.48437500 8357423.00000000 6600695.00000000 
0.00200    162116592.00000000 101126624.00000000 256078768.00000000 107564.64062500 8351727.00000000 6596205.00000000 
0.00300    161966496.00000000 101032200.00000000 255838928.00000000 107423.78125000 8342210.00000000 6588746.50000000 
0.00400    161752432.00000000 100900080.00000000 255503120.00000000 107226.85937500 8328929.50000000 6578272.50000000 
0.00500    161476080.00000000 100731568.00000000 255072736.00000000 106974.45312500 8311850.50000000 6564897.50000000 
0.00600    161140576.00000000 100524736.00000000 254545216.00000000 106666.24218750 8291080.00000000 6548560.50000000 
0.00700    160743472.00000000 100280112.00000000 253924496.00000000 106303.72656250 8266551.00000000 6529324.50000000 
0.00800    160287568.00000000 100000832.00000000 253211504.00000000 105887.27343750 8238403.00000000 6507190.50000000 
0.00900    159770864.00000000 99685256.00000000 252404688.00000000 105416.32031250 8206610.50000000 6482229.00000000 
0.01000    159199072.00000000 99334328.00000000 251507472.00000000 104893.34375000 8171242.50000000 6454436.50000000 
0.01100    158570272.00000000 98947632.00000000 250521040.00000000 104319.28906250 8132347.00000000 6423867.00000000 
0.01200    157886272.00000000 98525360.00000000 249445136.00000000 103693.75000000 8089996.00000000 6390622.00000000 
0.01300    157144384.00000000 98069280.00000000 248281536.00000000 103018.94531250 8044258.00000000 6354704.00000000 
0.01400    156347328.00000000 97579120.00000000 247032368.00000000 102295.62500000 7995136.50000000 6316127.00000000 
0.01500    155495936.00000000 97055712.00000000 245697984.00000000 101525.07812500 7942800.50000000 6275018.50000000 
0.01600    154591888.00000000 96500544.00000000 244280976.00000000 100707.85937500 7887252.00000000 6231359.50000000 
0.01700    153638544.00000000 95913560.00000000 242783472.00000000 99845.89843750  7828652.00000000 6185282.00000000 
0.01800    152634896.00000000 95295224.00000000 241207856.00000000 98940.82812500  7766963.50000000 6136871.00000000 
0.01900    151579312.00000000 94647240.00000000 239554880.00000000 97994.16406250  7702380.00000000 6086076.50000000 
0.02000    150478800.00000000 93969304.00000000 237826512.00000000 97007.33593750  7634963.00000000 6033149.00000000 
0.02100    149330576.00000000 93263536.00000000 236025552.00000000 95981.80468750  7564810.00000000 5978026.00000000 
0.02200    148138688.00000000 92529088.00000000 234153456.00000000 94918.03125000  7492071.50000000 5920833.00000000 
0.02300    146901728.00000000 91768072.00000000 232214736.00000000 93820.18750000  7416770.50000000 5861642.50000000 
0.02400    145624192.00000000 90982008.00000000 230208864.00000000 92688.31250000  7339009.00000000 5800540.00000000 
0.02500    144305824.00000000 90170312.00000000 228140416.00000000 91524.85937500  7258961.50000000 5737616.50000000 
0.02600    142948528.00000000 89334464.00000000 226010352.00000000 90331.07812500  7176743.00000000 5672962.50000000 
0.02700    141554496.00000000 88475952.00000000 223823232.00000000 89109.35937500  7092359.00000000 5606655.50000000 
0.02800    140125296.00000000 87595216.00000000 221579040.00000000 87860.54687500  7006076.00000000 5538780.00000000 
0.02900    138662944.00000000 86693296.00000000 219280864.00000000 86587.37500000  6917886.00000000 5469429.50000000 
0.03000    137167120.00000000 85772240.00000000 216932992.00000000 85291.95312500  6827948.50000000 5398735.00000000 
0.03100    135640976.00000000 84832032.00000000 214538288.00000000 83975.62500000  6736391.00000000 5326748.00000000 
0.03200    134087024.00000000 83873160.00000000 212098496.00000000 82640.56250000  6643316.00000000 5253546.00000000 
0.03300    132507024.00000000 82899592.00000000 209615600.00000000 81288.69531250  6548885.00000000 5179239.00000000 
0.03400    130900568.00000000 81909520.00000000 207093456.00000000 79921.50000000  6453180.00000000 5103983.50000000 
0.03500    129271784.00000000 80904448.00000000 204534256.00000000 78541.13281250  6356346.00000000 5027792.50000000 
0.03600    127621848.00000000 79885992.00000000 201941552.00000000 77149.57812500  6258444.50000000 4950766.00000000 
0.03700    125951584.00000000 78855160.00000000 199318176.00000000 75749.14843750  6159677.00000000 4873051.00000000 
0.03800    124264208.00000000 77813264.00000000 196666080.00000000 74340.20312500  6060091.50000000 4794679.50000000 
0.03900    122560064.00000000 76761632.00000000 193987840.00000000 72926.10156250  5959892.00000000 4715805.50000000 
0.04000    120841520.00000000 75700752.00000000 191287984.00000000 71508.32031250  5859078.50000000 4636477.00000000 
0.04100    119111904.00000000 74632400.00000000 188567792.00000000 70088.46093750  5757850.50000000 4556764.00000000 
0.04200    117370384.00000000 73557184.00000000 185830896.00000000 68667.63281250  5656327.50000000 4476858.00000000 
0.04300    115619752.00000000 72475160.00000000 183078448.00000000 67248.16406250  5554578.00000000 4396727.50000000 
0.04400    113862152.00000000 71388568.00000000 180313776.00000000 65831.61718750  5452702.50000000 4316526.50000000 
0.04500    112099136.00000000 70297952.00000000 177542080.00000000 64419.32031250  5350857.50000000 4236260.50000000 
0.04600    110331784.00000000 69205232.00000000 174762768.00000000 63013.18359375  5249119.50000000 4156153.75000000 
0.04700    108562792.00000000 68110368.00000000 171978000.00000000 61614.39843750  5147604.50000000 4076169.50000000 
0.04800    106792136.00000000 67015068.00000000 169193040.00000000 60225.16406250  5046384.50000000 3996418.50000000 
0.04900    105022944.00000000 65919732.00000000 166408832.00000000 58845.75390625  4945581.00000000 3916986.50000000 
0.05000    103256232.00000000 64825460.00000000 163627920.00000000 57478.47265625  4845299.50000000 3837934.25000000 
0.05100    101493120.00000000 63733380.00000000 160852400.00000000 56124.02734375  4745571.50000000 3759333.50000000 
0.05200    99736304.00000000 62644428.00000000 158085808.00000000 54783.58203125  4646565.00000000 3681250.25000000 
0.05300    97985472.00000000 61559444.00000000 155329536.00000000 53458.69921875  4548334.50000000 3603775.25000000 
0.05400    96242096.00000000 60479064.00000000 152583584.00000000 52150.38281250  4450893.50000000 3526962.75000000 
0.05500    94509160.00000000 59403984.00000000 149853072.00000000 50859.38281250  4354395.50000000 3450850.75000000 
0.05600    92786568.00000000 58335440.00000000 147139904.00000000 49586.69140625  4258921.00000000 3375506.50000000 
0.05700    91076296.00000000 57273876.00000000 144444848.00000000 48333.44531250  4164492.75000000 3300995.75000000 
0.05800    89379224.00000000 56220448.00000000 141770960.00000000 47100.37109375  4071188.50000000 3227353.75000000 
0.05900    87696416.00000000 55175168.00000000 139119264.00000000 45888.19531250  3979057.50000000 3154647.75000000 
0.06000    86028464.00000000 54139264.00000000 136490112.00000000 44697.60156250  3888181.00000000 3082911.75000000 
0.06100    84378024.00000000 53113196.00000000 133887336.00000000 43529.09375000  3798603.25000000 3012180.00000000 
0.06200    82744080.00000000 52097436.00000000 131310200.00000000 42383.63281250  3710396.00000000 2942500.00000000 
0.06300    81129264.00000000 51093028.00000000 128763024.00000000 41261.41015625  3623570.75000000 2873912.50000000 
0.06400    79532320.00000000 50099868.00000000 126244840.00000000 40162.67578125  3538170.25000000 2806462.50000000 
0.06500    77955888.00000000 49119096.00000000 123758080.00000000 39088.14453125  3454272.50000000 2740160.25000000 
0.06600    76400992.00000000 48150884.00000000 121303560.00000000 38037.88281250  3371847.25000000 2675031.75000000 
0.06700    74867040.00000000 47195556.00000000 118882000.00000000 37012.18750000  3290975.25000000 2611088.50000000 
0.06800    73355680.00000000 46253804.00000000 116496536.00000000 36011.18359375  3211683.00000000 2548379.50000000 
0.06900    71867624.00000000 45325964.00000000 114145616.00000000 35035.12890625  3133948.25000000 2486920.25000000 
0.07000    70401176.00000000 44412500.00000000 111830944.00000000 34083.98828125  3057829.00000000 2426707.50000000 
0.07100    68959568.00000000 43513136.00000000 109553856.00000000 33157.89453125  2983328.00000000 2367767.75000000 
0.07200    67542736.00000000 42628880.00000000 107313504.00000000 32256.35937500  2910450.00000000 2310095.75000000 
0.07300    66149752.00000000 41759160.00000000 105113176.00000000 31379.88476562  2839232.25000000 2253726.50000000 
0.07400    64782172.00000000 40905400.00000000 102951544.00000000 30527.85742188  2769616.75000000 2198638.25000000 
0.07500    63439636.00000000 40066816.00000000 100828976.00000000 29700.56445312  2701682.00000000 2144847.75000000 
0.07600    62122496.00000000 39243760.00000000 98747288.00000000 28897.08984375  2635376.00000000 2092310.50000000 
0.07700    60831432.00000000 38436492.00000000 96705400.00000000 28117.94335938  2570695.00000000 2041077.87500000 
0.07800    59566124.00000000 37645392.00000000 94704328.00000000 27362.01757812  2507641.00000000 1991141.50000000 
0.07900    58326360.00000000 36869988.00000000 92742984.00000000 26629.26953125  2446217.25000000 1942462.12500000 
0.08000    57113068.00000000 36110516.00000000 90823472.00000000 25919.50781250  2386385.00000000 1895042.87500000 
0.08100    55925788.00000000 35367140.00000000 88944960.00000000 25232.29296875  2328138.25000000 1848870.87500000 
0.08200    54764468.00000000 34640092.00000000 87106688.00000000 24566.77734375  2271479.25000000 1803938.75000000 
0.08300    53629052.00000000 33928712.00000000 85308816.00000000 23922.85742188  2216354.50000000 1760216.50000000 
0.08400    52519372.00000000 33233448.00000000 83551656.00000000 23299.78320312  2162768.25000000 1717716.12500000 
0.08500    51435508.00000000 32554130.00000000 81835824.00000000 22696.98632812  2110671.00000000 1676388.75000000 
0.08600    50377244.00000000 31890302.00000000 80159432.00000000 22114.34375000  2060062.25000000 1636220.50000000 
0.08700    49344272.00000000 31242460.00000000 78522640.00000000 21550.95898438  2010890.00000000 1597208.12500000 
0.08800    48335836.00000000 30609898.00000000 76925344.00000000 21006.18359375  1963136.87500000 1559303.37500000 
0.08900    47352772.00000000 29992972.00000000 75367656.00000000 20479.49609375  1916767.62500000 1522498.00000000 
0.09000    46393820.00000000 29391106.00000000 73848368.00000000 19970.43359375  1871758.50000000 1486766.62500000 
0.09100    45459348.00000000 28804296.00000000 72367160.00000000 19478.35351562  1828067.50000000 1452081.50000000 
0.09200    44548180.00000000 28232130.00000000 70922936.00000000 19002.46875000  1785656.75000000 1418405.87500000 
0.09300    43661016.00000000 27674610.00000000 69515904.00000000 18542.19531250  1744525.87500000 1385721.87500000 
0.09400    42796388.00000000 27131536.00000000 68145176.00000000 18097.10742188  1704574.50000000 1353998.12500000 
0.09500    41954684.00000000 26602396.00000000 66810048.00000000 17666.51171875  1665820.87500000 1323215.00000000 
0.09600    41134468.00000000 26086982.00000000 65509784.00000000 17249.63281250  1628208.25000000 1293332.37500000 
0.09700    40336516.00000000 25585284.00000000 64244772.00000000 16846.14843750  1591709.37500000 1264333.12500000 
0.09800    39559364.00000000 25096834.00000000 63012284.00000000 16455.31250000  1556277.37500000 1236185.75000000 
0.09900    38803236.00000000 24621420.00000000 61813256.00000000 16076.66796875  1521880.87500000 1208851.62500000 
0.10000    38067504.00000000 24158678.00000000 60645744.00000000 15709.35742188  1488469.12500000 1182303.25000000 
0.10100    37351148.00000000 23708366.00000000 59509804.00000000 15353.11425781  1456024.87500000 1156525.62500000 
0.10200    36653868.00000000 23270082.00000000 58404212.00000000 15007.23144531  1424506.12500000 1131469.12500000 
0.10300    35975644.00000000 22843440.00000000 57328200.00000000 14671.24121094  1393863.25000000 1107124.87500000 
0.10400    35315644.00000000 22428440.00000000 56281500.00000000 14344.53222656  1364075.25000000 1083463.25000000 
0.10500    34673260.00000000 22024604.00000000 55262700.00000000 14026.79785156  1335101.87500000 1060440.00000000 
0.10600    34047768.00000000 21631326.00000000 54270480.00000000 13717.34375000  1306899.62500000 1038042.68750000 
0.10700    33438968.00000000 21248698.00000000 53305404.00000000 13415.84765625  1279458.62500000 1016227.50000000 
0.10800    32846376.00000000 20876070.00000000 52365296.00000000 13121.82812500  1252716.25000000 995000.00000000 
0.10900    32269300.00000000 20513530.00000000 51450420.00000000 12834.85351562  1226665.50000000 974299.50000000 
0.11000    31707248.00000000 20160338.00000000 50559396.00000000 12554.58984375  1201262.87500000 954123.75000000 
0.11100    31159712.00000000 19816398.00000000 49691344.00000000 12280.52539062  1176461.50000000 934440.43750000 
0.11200    30626280.00000000 19481388.00000000 48845648.00000000 12012.43457031  1152273.25000000 915228.62500000 
0.11300    30106334.00000000 19154772.00000000 48021504.00000000 11749.83984375  1128632.75000000 896466.81250000 
0.11400    29599284.00000000 18836450.00000000 47218112.00000000 11492.78515625  1105536.87500000 878126.50000000 
0.11500    29104938.00000000 18526288.00000000 46434864.00000000 11240.43164062  1082933.75000000 860201.81250000 
0.11600    28622434.00000000 18223556.00000000 45670624.00000000 10993.02050781  1060823.37500000 842656.31250000 
0.11700    28151780.00000000 17928422.00000000 44924856.00000000 10749.84375000  1039181.31250000 825481.93750000 
0.11800    27691934.00000000 17640020.00000000 44196740.00000000 10510.96679688  1017962.56250000 808651.93750000 
0.11900    27242786.00000000 17358624.00000000 43485400.00000000 10276.10449219  997162.25000000 792154.56250000 
0.12000    26803956.00000000 17083708.00000000 42790536.00000000 10045.09277344  976758.87500000 775974.93750000 
0.12100    26374994.00000000 16815170.00000000 42111696.00000000 9817.75976562   956734.62500000 760095.12500000 
0.12200    25955312.00000000 16552483.00000000 41447512.00000000 9593.91015625   937061.06250000 744507.00000000 
0.12300    25544756.00000000 16295575.00000000 40798032.00000000 9373.49316406   917732.87500000 729186.93750000 
0.12400    25142822.00000000 16044126.00000000 40162200.00000000 9156.22460938   898737.31250000 714126.43750000 
0.12500    24749096.00000000 15797943.00000000 39539276.00000000 8942.10546875   880043.62500000 699318.18750000 
0.12600    24363210.00000000 15556761.00000000 38929248.00000000 8731.17968750   861660.37500000 684749.87500000 
0.12700    23984986.00000000 15320397.00000000 38331268.00000000 8523.15527344   843557.06250000 670409.00000000 
0.12800    23614020.00000000 15088643.00000000 37744576.00000000 8318.16406250   825726.43750000 656285.37500000 
0.12900    23249732.00000000 14861276.00000000 37169068.00000000 8116.11083984   808169.75000000 642374.31250000 
0.13000    22892316.00000000 14638135.00000000 36604092.00000000 7916.83544922   790862.87500000 628668.87500000 
0.13100    22541134.00000000 14418982.00000000 36049064.00000000 7720.49560547   773808.87500000 615160.18750000 
0.13200    22195800.00000000 14203659.00000000 35503732.00000000 7526.98242188   756996.68750000 601838.00000000 
0.13300    21856664.00000000 13991847.00000000 34967840.00000000 7336.31152344   740417.93750000 588709.31250000 
0.13400    21522852.00000000 13783814.00000000 34440652.00000000 7148.57128906   724070.50000000 575758.43750000 
0.13500    21194332.00000000 13579090.00000000 33921780.00000000 6963.71191406   707948.25000000 562986.43750000 
0.13600    20871128.00000000 13377522.00000000 33410916.00000000 6781.76464844   692046.37500000 550387.00000000 
0.13700    20552708.00000000 13179021.00000000 32908206.00000000 6602.75146484   676362.56250000 537963.18750000 
0.13800    20238862.00000000 12983482.00000000 32412694.00000000 6426.78417969   660895.56250000 525700.25000000 
0.13900    19929804.00000000 12790821.00000000 31924520.00000000 6253.82666016   645642.00000000 513611.78125000 
0.14000    19625156.00000000 12600786.00000000 31443290.00000000 6083.91503906   630604.93750000 501692.25000000 
0.14100    19324560.00000000 12413531.00000000 30968652.00000000 5917.13037109   615777.06250000 489933.65625000 
0.14200    19028148.00000000 12228690.00000000 30500316.00000000 5753.49951172   601165.37500000 478342.12500000 
0.14300    18735674.00000000 12046361.00000000 30038414.00000000 5593.14746094   586759.25000000 466916.00000000 
0.14400    18447078.00000000 11866247.00000000 29582402.00000000 5435.91943359   572567.87500000 455650.87500000 
0.14500    18162170.00000000 11688511.00000000 29132312.00000000 5282.12402344   558586.50000000 444554.03125000 
0.14600    17880824.00000000 11513056.00000000 28687588.00000000 5131.66210938   544819.56250000 433626.28125000 
0.14700    17603218.00000000 11339677.00000000 28248766.00000000 4984.57421875   531277.50000000 422863.90625000 
0.14800    17328860.00000000 11168275.00000000 27815062.00000000 4840.96923828   517942.37500000 412268.03125000 
0.14900    17057914.00000000 10999082.00000000 27386856.00000000 4700.80029297   504823.18750000 401843.50000000 
0.15000    16790402.00000000 10831789.00000000 26963572.00000000 4564.13476562   491929.50000000 391585.71875000 
0.15100    16526068.00000000 10666440.00000000 26545312.00000000 4430.98974609   479253.62500000 381501.34375000 
0.15200    16265086.00000000 10502971.00000000 26132178.00000000 4301.47265625   466807.37500000 371592.03125000 
0.15300    16007083.00000000 10341493.00000000 25723792.00000000 4175.50488281   454580.96875000 361860.25000000 
0.15400    15752237.00000000 10181703.00000000 25320184.00000000 4053.13500977   442581.87500000 352295.84375000 
0.15500    15500415.00000000 10023839.00000000 24921300.00000000 3934.42626953   430812.21875000 342911.46875000 
0.15600    15251788.00000000 9867690.00000000 24527082.00000000 3819.29443359   419269.53125000 333706.15625000 
0.15700    15006111.00000000 9713412.00000000 24137632.00000000 3707.78100586   407961.59375000 324681.53125000 
0.15800    14763347.00000000 9560817.00000000 23752518.00000000 3599.86132812   396878.96875000 315832.59375000 
0.15900    14523712.00000000 9409974.00000000 23372150.00000000 3495.55834961   386039.87500000 307170.37500000 
0.16000    14286863.00000000 9260838.00000000 22996210.00000000 3394.82812500   375427.50000000 298685.00000000 
0.16100    14053177.00000000 9113532.00000000 22625014.00000000 3297.68090820   365053.09375000 290388.81250000 
0.16200    13822302.00000000 8967880.00000000 22258036.00000000 3204.04199219   354916.46875000 282271.03125000 
0.16300    13594356.00000000 8823894.00000000 21895752.00000000 3113.88964844   345010.50000000 274335.71875000 
0.16400    13369433.00000000 8681645.00000000 21537810.00000000 3027.15502930   335342.28125000 266586.12500000 
0.16500    13147328.00000000 8541072.00000000 21184372.00000000 2943.84179688   325907.50000000 259019.17187500 
0.16600    12928246.00000000 8402279.00000000 20835380.00000000 2863.88818359   316709.25000000 251637.00000000 
0.16700    12711914.00000000 8265104.50000000 20490686.00000000 2787.16992188   307743.34375000 244435.75000000 
0.16800    12498596.00000000 8129577.00000000 20150648.00000000 2713.67749023   299009.12500000 237413.65625000 
0.16900    12288150.00000000 7995816.50000000 19814836.00000000 2643.36132812   290506.21875000 230574.14062500 
0.17000    12080596.00000000 7863763.00000000 19483640.00000000 2576.10717773   282233.53125000 223915.62500000 
