# SAXS profile: number of points = 501, q_min = 0, q_max = 0.5, delta_q = 0.001
#    q    intensity 
0.00000    162230528.00000000 101202256.00000000 256270464.00000000 101823.43750000 8128907.50000000 6420159.50000000 
0.00100    162192432.00000000 101174792.00000000 256199648.00000000 101786.04687500 8126298.50000000 6418124.50000000 
0.00200    162068000.00000000 101093704.00000000 255995712.00000000 101677.06250000 8118521.50000000 6412016.00000000 
0.00300    161854256.00000000 100959744.00000000 255652432.00000000 101495.35937500 8105614.00000000 6401881.00000000 
0.00400    161544416.00000000 100770560.00000000 255172256.00000000 101240.35937500 8087553.00000000 6387695.50000000 
0.00500    161147840.00000000 100526616.00000000 254553360.00000000 100914.60156250 8064422.50000000 6369498.50000000 
0.00600    160672368.00000000 100232536.00000000 253805808.00000000 100517.95312500 8036285.50000000 6347319.00000000 
0.00700    160100384.00000000 99886544.00000000 252923088.00000000 100051.74218750 8003190.00000000 6321265.00000000 
0.00800    159456656.00000000 99489800.00000000 251907392.00000000 99517.27343750  7965189.00000000 6291416.00000000 
0.00900    158728928.00000000 99042344.00000000 250764976.00000000 98916.44531250  7922398.50000000 6257787.50000000 
0.01000    157923424.00000000 98544264.00000000 249496352.00000000 98249.78125000  7874954.50000000 6220466.00000000 
0.01100    157035488.00000000 97996680.00000000 248103984.00000000 97519.99218750  7822931.00000000 6179594.00000000 
0.01200    156070688.00000000 97402136.00000000 246590416.00000000 96729.05468750  7766481.00000000 6135177.50000000 
0.01300    155031600.00000000 96761808.00000000 244958928.00000000 95877.73437500  7705721.00000000 6087379.50000000 
0.01400    153921936.00000000 96076848.00000000 243212752.00000000 94969.68750000  7640804.00000000 6036297.50000000 
0.01500    152737552.00000000 95348512.00000000 241356896.00000000 94006.57031250  7571849.50000000 5982118.00000000 
0.01600    151487808.00000000 94577408.00000000 239393216.00000000 92990.22656250  7499070.50000000 5924810.00000000 
0.01700    150173680.00000000 93766480.00000000 237327904.00000000 91925.55468750  7422612.50000000 5864642.00000000 
0.01800    148794640.00000000 92915912.00000000 235163376.00000000 90812.35156250  7342655.50000000 5801724.50000000 
0.01900    147355264.00000000 92028096.00000000 232901408.00000000 89655.50000000  7259371.00000000 5736139.50000000 
0.02000    145859200.00000000 91104592.00000000 230550560.00000000 88456.89062500  7172905.50000000 5668118.00000000 
0.02100    144308096.00000000 90148136.00000000 228113664.00000000 87219.41406250  7083524.00000000 5597795.00000000 
0.02200    142707328.00000000 89158256.00000000 225597120.00000000 85946.28906250  6991370.00000000 5525244.50000000 
0.02300    141056272.00000000 88138992.00000000 223001920.00000000 84640.47656250  6896680.00000000 5450707.50000000 
0.02400    139361632.00000000 87091472.00000000 220335504.00000000 83305.24218750  6799663.50000000 5374295.00000000 
0.02500    137621280.00000000 86017208.00000000 217603712.00000000 81942.53906250  6700430.50000000 5296207.00000000 
0.02600    135845536.00000000 84918544.00000000 214809632.00000000 80556.69531250  6599274.50000000 5216504.50000000 
0.02700    134032680.00000000 83797752.00000000 211958016.00000000 79149.58593750  6496349.50000000 5135458.00000000 
0.02800    132186896.00000000 82655696.00000000 209055968.00000000 77725.56250000  6391881.50000000 5053152.50000000 
0.02900    130311848.00000000 81495416.00000000 206104096.00000000 76285.99218750  6286088.50000000 4969794.50000000 
0.03000    128410696.00000000 80318656.00000000 203112304.00000000 74836.14843750  6179164.00000000 4885599.00000000 
0.03100    126486776.00000000 79127696.00000000 200084768.00000000 73376.43750000  6071287.00000000 4800640.00000000 
0.03200    124541776.00000000 77924064.00000000 197024832.00000000 71911.15625000  5962706.50000000 4715039.50000000 
0.03300    122580464.00000000 76708880.00000000 193936848.00000000 70443.39062500  5853581.00000000 4629011.50000000 
0.03400    120606504.00000000 75484824.00000000 190827152.00000000 68974.22656250  5744002.50000000 4542677.00000000 
0.03500    118621104.00000000 74254136.00000000 187700128.00000000 67507.10156250  5634291.00000000 4456172.00000000 
0.03600    116628552.00000000 73017856.00000000 184560704.00000000 66044.09375000  5524588.00000000 4369673.00000000 
0.03700    114631056.00000000 71777120.00000000 181412752.00000000 64589.50390625  5415038.50000000 4283243.00000000 
0.03800    112630600.00000000 70536384.00000000 178261136.00000000 63142.90625000  5305842.50000000 4197170.50000000 
0.03900    110631696.00000000 69294664.00000000 175111728.00000000 61708.61718750  5197152.50000000 4111375.75000000 
0.04000    108637544.00000000 68055856.00000000 171966976.00000000 60287.17578125  5089070.00000000 4026106.75000000 
0.04100    106648880.00000000 66818300.00000000 168829664.00000000 58881.63281250  4981803.50000000 3941478.50000000 
0.04200    104667776.00000000 65586748.00000000 165705504.00000000 57493.24609375  4875457.50000000 3857554.25000000 
0.04300    102698632.00000000 64361808.00000000 162598976.00000000 56123.84765625  4770207.50000000 3774457.50000000 
0.04400    100741992.00000000 63143984.00000000 159511792.00000000 54775.23046875  4666084.50000000 3692296.50000000 
0.04500    98801200.00000000 61935676.00000000 156448432.00000000 53448.32421875  4563319.00000000 3611122.75000000 
0.04600    96877784.00000000 60738120.00000000 153413664.00000000 52144.55468750  4461934.50000000 3531056.75000000 
0.04700    94973648.00000000 59551808.00000000 150407888.00000000 50865.16406250  4362040.00000000 3452174.00000000 
0.04800    93091120.00000000 58378136.00000000 147435904.00000000 49611.23437500  4263722.50000000 3374535.50000000 
0.04900    91232632.00000000 57218588.00000000 144498880.00000000 48384.08203125  4167112.00000000 3298191.25000000 
0.05000    89396736.00000000 56073744.00000000 141600784.00000000 47182.89843750  4072238.25000000 3223226.75000000 
0.05100    87587688.00000000 54945244.00000000 138742800.00000000 46010.52734375  3979135.50000000 3149683.25000000 
0.05200    85805632.00000000 53833088.00000000 135927952.00000000 44865.85156250  3887910.75000000 3077597.00000000 
0.05300    84053256.00000000 52738576.00000000 133157576.00000000 43749.80078125  3798627.00000000 3007010.50000000 
0.05400    82330384.00000000 51662344.00000000 130433208.00000000 42662.37500000  3711262.50000000 2937961.25000000 
0.05500    80638096.00000000 50605248.00000000 127757616.00000000 41604.17968750  3625900.00000000 2870461.25000000 
0.05600    78976904.00000000 49566872.00000000 125131736.00000000 40575.03906250  3542518.00000000 2804550.25000000 
0.05700    77349064.00000000 48548892.00000000 122557656.00000000 39574.85546875  3461172.00000000 2740241.50000000 
0.05800    75754064.00000000 47551464.00000000 120034800.00000000 38603.70312500  3381876.25000000 2677520.50000000 
0.05900    74191704.00000000 46574468.00000000 117564264.00000000 37660.98437500  3304588.25000000 2616376.75000000 
0.06000    72665016.00000000 45619016.00000000 115148640.00000000 36745.93750000  3229333.00000000 2556888.50000000 
0.06100    71171904.00000000 44684752.00000000 112786880.00000000 35859.36718750  3156120.75000000 2498971.50000000 
0.06200    69713816.00000000 43772128.00000000 110479384.00000000 34999.89843750  3084925.75000000 2442671.50000000 
0.06300    68290592.00000000 42881156.00000000 108226736.00000000 34167.45312500  3015704.50000000 2387895.75000000 
0.06400    66901624.00000000 42012136.00000000 106028816.00000000 33360.98437500  2948456.00000000 2334696.75000000 
0.06500    65547664.00000000 41164372.00000000 103886688.00000000 32579.98437500  2883154.75000000 2283058.00000000 
0.06600    64228140.00000000 40338488.00000000 101799128.00000000 31824.13671875  2819754.75000000 2232882.25000000 
0.06700    62943572.00000000 39534504.00000000 99767544.00000000 31091.79687500  2758183.25000000 2184201.50000000 
0.06800    61692988.00000000 38751692.00000000 97788712.00000000 30383.26367188  2698447.75000000 2136978.50000000 
0.06900    60476828.00000000 37990572.00000000 95863208.00000000 29697.11132812  2640538.25000000 2091176.75000000 
0.07000    59293436.00000000 37250156.00000000 93990976.00000000 29032.57031250  2584344.00000000 2046734.25000000 
0.07100    58143872.00000000 36530964.00000000 92172928.00000000 28388.83203125  2529814.25000000 2003636.62500000 
0.07200    57026468.00000000 35832048.00000000 90405336.00000000 27765.10351562  2476954.25000000 1961807.37500000 
0.07300    55941316.00000000 35153108.00000000 88689112.00000000 27160.47265625  2425630.50000000 1921271.37500000 
0.07400    54887376.00000000 34494424.00000000 87021608.00000000 26574.16015625  2375905.75000000 1881945.75000000 
0.07500    53863488.00000000 33855036.00000000 85404192.00000000 26005.13085938  2327621.50000000 1843801.87500000 
0.07600    52869864.00000000 33235726.00000000 83833608.00000000 25452.78320312  2280739.75000000 1806784.00000000 
0.07700    51905844.00000000 32634178.00000000 82310552.00000000 24916.09179688  2235260.50000000 1770847.12500000 
0.07800    50970116.00000000 32050594.00000000 80833016.00000000 24394.53906250  2191094.25000000 1735954.25000000 
0.07900    50062264.00000000 31484658.00000000 79399264.00000000 23886.83789062  2148156.25000000 1702065.50000000 
0.08000    49181548.00000000 30936220.00000000 78009024.00000000 23392.83398438  2106437.00000000 1669139.37500000 
0.08100    48326848.00000000 30404254.00000000 76660720.00000000 22911.33984375  2065896.75000000 1637129.00000000 
0.08200    47497104.00000000 29888754.00000000 75352288.00000000 22441.91210938  2026425.37500000 1606006.37500000 
0.08300    46692308.00000000 29388638.00000000 74084048.00000000 21983.77929688  1988014.62500000 1575693.50000000 
0.08400    45910980.00000000 28904092.00000000 72852336.00000000 21536.24023438  1950609.25000000 1546187.00000000 
0.08500    45153296.00000000 28433946.00000000 71659288.00000000 21098.87695312  1914127.87500000 1517443.37500000 
0.08600    44417108.00000000 27977972.00000000 70499192.00000000 20670.98828125  1878584.25000000 1489424.37500000 
0.08700    43702320.00000000 27535626.00000000 69374800.00000000 20252.08593750  1843890.12500000 1462086.00000000 
0.08800    43007616.00000000 27106448.00000000 68283128.00000000 19841.73828125  1809998.12500000 1435398.62500000 
0.08900    42332672.00000000 26689760.00000000 67222048.00000000 19439.58593750  1776902.87500000 1409323.75000000 
0.09000    41676672.00000000 26285446.00000000 66191996.00000000 19044.84960938  1744536.12500000 1383825.75000000 
0.09100    41038832.00000000 25892338.00000000 65190212.00000000 18657.46484375  1712865.87500000 1358903.50000000 
0.09200    40418232.00000000 25510696.00000000 64216228.00000000 18277.22070312  1681865.25000000 1334497.62500000 
0.09300    39814360.00000000 25139302.00000000 63268904.00000000 17903.32812500  1651505.37500000 1310598.25000000 
0.09400    39226212.00000000 24778126.00000000 62346812.00000000 17536.08007812  1621745.62500000 1287183.12500000 
0.09500    38652648.00000000 24426606.00000000 61448536.00000000 17174.66210938  1592550.00000000 1264215.50000000 
0.09600    38093680.00000000 24084478.00000000 60573804.00000000 16819.34570312  1563913.50000000 1241676.37500000 
0.09700    37549096.00000000 23750988.00000000 59720892.00000000 16469.78906250  1535791.50000000 1219564.62500000 
0.09800    37017040.00000000 23425772.00000000 58888648.00000000 16125.85351562  1508173.87500000 1197829.87500000 
0.09900    36497448.00000000 23108464.00000000 58076200.00000000 15787.28222656  1481039.50000000 1176478.87500000 
0.10000    35990224.00000000 22798794.00000000 57283388.00000000 15454.09863281  1454357.62500000 1155488.75000000 
0.10100    35493468.00000000 22496308.00000000 56507616.00000000 15126.15039062  1428124.12500000 1134840.25000000 
0.10200    35008244.00000000 22200272.00000000 55749592.00000000 14803.28515625  1402313.37500000 1114537.00000000 
0.10300    34532924.00000000 21910904.00000000 55007432.00000000 14485.67089844  1376918.00000000 1094544.12500000 
0.10400    34067136.00000000 21627478.00000000 54280664.00000000 14173.27734375  1351924.87500000 1074860.50000000 
0.10500    33610868.00000000 21349902.00000000 53568480.00000000 13865.84375000  1327316.62500000 1055493.12500000 
0.10600    33163236.00000000 21077782.00000000 52869528.00000000 13563.44824219  1303097.75000000 1036411.68750000 
0.10700    32723902.00000000 20810658.00000000 52184408.00000000 13266.18652344  1279242.75000000 1017616.87500000 
0.10800    32292574.00000000 20548554.00000000 51511288.00000000 12973.98535156  1255736.50000000 999099.93750000 
0.10900    31868510.00000000 20290854.00000000 50849756.00000000 12686.77832031  1232587.62500000 980855.81250000 
0.11000    31451742.00000000 20037648.00000000 50199364.00000000 12404.71386719  1209802.75000000 962883.37500000 
0.11100    31041856.00000000 19788188.00000000 49559652.00000000 12127.71191406  1187349.12500000 945175.81250000 
0.11200    30638028.00000000 19542742.00000000 48929716.00000000 11855.77832031  1165233.37500000 927719.93750000 
0.11300    30240294.00000000 19301008.00000000 48309592.00000000 11588.87109375  1143447.25000000 910520.37500000 
0.11400    29848694.00000000 19062520.00000000 47697876.00000000 11327.19726562  1121991.12500000 893588.81250000 
0.11500    29462568.00000000 18827254.00000000 47094856.00000000 11070.55468750  1100867.37500000 876891.50000000 
0.11600    29081604.00000000 18595220.00000000 46499456.00000000 10819.05078125  1080055.00000000 860441.37500000 
0.11700    28705754.00000000 18365934.00000000 45912044.00000000 10572.69531250  1059571.87500000 844244.62500000 
0.11800    28334488.00000000 18139300.00000000 45331508.00000000 10331.19042969  1039399.31250000 828280.31250000 
0.11900    27967960.00000000 17915176.00000000 44758096.00000000 10094.80468750  1019526.25000000 812562.50000000 
0.12000    27605714.00000000 17693374.00000000 44190812.00000000 9863.54003906   999977.68750000 797080.75000000 
0.12100    27247424.00000000 17474222.00000000 43630000.00000000 9637.26171875   980741.43750000 781839.75000000 
0.12200    26893412.00000000 17257018.00000000 43074652.00000000 9415.86523438   961800.93750000 766832.25000000 
0.12300    26543090.00000000 17041644.00000000 42525596.00000000 9199.33105469   943169.62500000 752055.50000000 
0.12400    26196394.00000000 16828554.00000000 41981884.00000000 8987.63671875   924827.06250000 737511.56250000 
0.12500    25853112.00000000 16617309.00000000 41442736.00000000 8780.74316406   906795.37500000 723186.31250000 
0.12600    25513404.00000000 16407676.00000000 40909120.00000000 8578.63378906   889054.68750000 709103.75000000 
0.12700    25177076.00000000 16199790.00000000 40380040.00000000 8381.04785156   871597.62500000 695227.18750000 
0.12800    24843574.00000000 15993710.00000000 39855212.00000000 8187.92285156   854427.31250000 681586.75000000 
0.12900    24513204.00000000 15789232.00000000 39335484.00000000 7999.35693359   837547.06250000 668161.87500000 
0.13000    24185836.00000000 15586029.00000000 38819420.00000000 7815.15087891   820946.93750000 654961.06250000 
0.13100    23861398.00000000 15384257.00000000 38307500.00000000 7635.10937500   804616.75000000 641966.25000000 
0.13200    23539600.00000000 15184062.00000000 37800016.00000000 7459.28759766   788564.31250000 629181.93750000 
0.13300    23220712.00000000 14985280.00000000 37296140.00000000 7287.51416016   772776.62500000 616614.75000000 
0.13400    22904334.00000000 14787736.00000000 36796132.00000000 7119.73828125   757258.56250000 604241.50000000 
0.13500    22590550.00000000 14591615.00000000 36299340.00000000 6955.74902344   742001.18750000 592080.18750000 
0.13600    22279388.00000000 14396670.00000000 35806880.00000000 6795.46630859   726994.43750000 580121.87500000 
0.13700    21970542.00000000 14203142.00000000 35318236.00000000 6638.90478516   712237.81250000 568358.06250000 
0.13800    21664502.00000000 14010788.00000000 34832604.00000000 6485.86083984   697729.75000000 556785.25000000 
0.13900    21360618.00000000 13819714.00000000 34351196.00000000 6336.24267578   683475.75000000 545405.00000000 
0.14000    21059332.00000000 13630046.00000000 33872564.00000000 6189.97656250   669453.31250000 534208.50000000 
0.14100    20760532.00000000 13441467.00000000 33397878.00000000 6046.93554688   655670.00000000 523209.68750000 
0.14200    20464072.00000000 13254255.00000000 32926660.00000000 5906.98925781   642106.18750000 512386.21875000 
0.14300    20170056.00000000 13068297.00000000 32458688.00000000 5770.14013672   628784.31250000 501737.00000000 
0.14400    19878416.00000000 12883595.00000000 31994444.00000000 5636.23242188   615664.62500000 491261.43750000 
0.14500    19589030.00000000 12700069.00000000 31533816.00000000 5505.20263672   602779.56250000 480965.87500000 
0.14600    19302058.00000000 12517907.00000000 31076706.00000000 5377.00830078   590109.75000000 470838.84375000 
0.14700    19017722.00000000 12337210.00000000 30623094.00000000 5251.58105469   577651.62500000 460879.71875000 
0.14800    18735352.00000000 12157699.00000000 30173006.00000000 5128.71923828   565385.37500000 451083.03125000 
0.14900    18455730.00000000 11979532.00000000 29726442.00000000 5008.51855469   553336.87500000 441448.87500000 
0.15000    18178458.00000000 11802782.00000000 29283712.00000000 4890.87841797   541487.50000000 431971.31250000 
0.15100    17903708.00000000 11627459.00000000 28844806.00000000 4775.69042969   529828.81250000 422652.50000000 
0.15200    17631578.00000000 11453523.00000000 28409736.00000000 4662.95751953   518377.59375000 413492.28125000 
0.15300    17361714.00000000 11281130.00000000 27978450.00000000 4552.67285156   507112.06250000 404482.31250000 
0.15400    17094422.00000000 11110064.00000000 27550790.00000000 4444.67919922   496029.03125000 395622.18750000 
0.15500    16829812.00000000 10940594.00000000 27127346.00000000 4339.09814453   485141.71875000 386910.75000000 
0.15600    16567842.00000000 10772614.00000000 26707710.00000000 4235.74609375   474433.87500000 378345.21875000 
0.15700    16308425.00000000 10606237.00000000 26292346.00000000 4134.67431641   463912.90625000 369927.81250000 
0.15800    16051543.00000000 10441370.00000000 25880974.00000000 4035.83276367   453568.37500000 361648.87500000 
0.15900    15797432.00000000 10278175.00000000 25473710.00000000 3939.27197266   443405.03125000 353514.75000000 
0.16000    15546045.00000000 10116587.00000000 25070640.00000000 3844.84204102   433414.15625000 345520.28125000 
0.16100    15297518.00000000 9956758.00000000 24671894.00000000 3752.66845703   423604.87500000 337668.53125000 
0.16200    15051498.00000000 9798439.00000000 24277414.00000000 3662.65722656   413965.50000000 329952.81250000 
0.16300    14808488.00000000 9641923.00000000 23887292.00000000 3574.77392578   404494.62500000 322371.37500000 
0.16400    14568121.00000000 9487228.00000000 23501788.00000000 3489.03588867   395198.37500000 314929.81250000 
0.16500    14330738.00000000 9334157.00000000 23120566.00000000 3405.45825195   386072.00000000 307616.62500000 
0.16600    14096175.00000000 9182922.00000000 22744026.00000000 3323.97534180   377110.75000000 300440.03125000 
0.16700    13864513.00000000 9033300.00000000 22371736.00000000 3244.57910156   368313.06250000 293394.03125000 
0.16800    13635684.00000000 8885681.00000000 22004084.00000000 3167.27246094   359680.12500000 286476.15625000 
0.16900    13409951.00000000 8739819.00000000 21641410.00000000 3092.05493164   351212.18750000 279690.50000000 
0.17000    13187016.00000000 8595809.00000000 21283112.00000000 3018.84790039   342905.90625000 273031.96875000 
