# SAXS profile: number of points = 501, q_min = 0, q_max = 0.5, delta_q = 0.001
#    q    intensity 
0.00000    162238128.00000000 101201664.00000000 256271776.00000000 103887.89062500 8210874.50000000 6484958.50000000 
0.00100    162209216.00000000 101183672.00000000 256226256.00000000 103862.84375000 8209161.50000000 6483585.50000000 
0.00200    162123216.00000000 101130184.00000000 256088720.00000000 103788.00000000 8203959.00000000 6479523.00000000 
0.00300    161977888.00000000 101041272.00000000 255860864.00000000 103662.96093750 8195275.00000000 6472724.00000000 
0.00400    161774720.00000000 100916160.00000000 255541904.00000000 103489.39843750 8183157.50000000 6463219.50000000 
0.00500    161513024.00000000 100756016.00000000 255132688.00000000 103265.60937500 8167644.00000000 6451002.50000000 
0.00600    161193680.00000000 100560504.00000000 254632752.00000000 102992.83593750 8148672.50000000 6436154.00000000 
0.00700    160816304.00000000 100329648.00000000 254043952.00000000 102671.66406250 8126294.50000000 6418641.50000000 
0.00800    160383440.00000000 100063976.00000000 253365840.00000000 102301.65625000 8100571.00000000 6398460.50000000 
0.00900    159893808.00000000 99764352.00000000 252600560.00000000 101884.81250000 8071553.00000000 6375683.50000000 
0.01000    159347680.00000000 99430928.00000000 251746368.00000000 101420.57031250 8039198.50000000 6350318.50000000 
0.01100    158747248.00000000 99063096.00000000 250807680.00000000 100909.64062500 8003625.50000000 6322408.00000000 
0.01200    158091792.00000000 98662008.00000000 249781952.00000000 100353.35156250 7964790.00000000 6292011.00000000 
0.01300    157385968.00000000 98228584.00000000 248674256.00000000 99751.80468750  7922863.50000000 6259100.00000000 
0.01400    156624896.00000000 97762128.00000000 247482688.00000000 99106.74218750  7877812.00000000 6223742.50000000 
0.01500    155811824.00000000 97263976.00000000 246209648.00000000 98417.89843750  7829738.50000000 6186056.50000000 
0.01600    154947744.00000000 96734192.00000000 244856496.00000000 97686.89843750  7778605.00000000 6145963.00000000 
0.01700    154033536.00000000 96174288.00000000 243425792.00000000 96914.88281250  7724597.50000000 6103594.50000000 
0.01800    153069936.00000000 95583616.00000000 241917520.00000000 96102.54687500  7667748.00000000 6058988.50000000 
0.01900    152059056.00000000 94963600.00000000 240333152.00000000 95251.47656250  7608070.50000000 6012197.00000000 
0.02000    151001232.00000000 94315136.00000000 238676848.00000000 94361.99218750  7545688.00000000 5963261.50000000 
0.02100    149897616.00000000 93638232.00000000 236948256.00000000 93436.52343750  7480706.00000000 5912265.00000000 
0.02200    148748992.00000000 92934024.00000000 235149008.00000000 92475.07031250  7413118.00000000 5859249.00000000 
0.02300    147556928.00000000 92203072.00000000 233282672.00000000 91479.67187500  7343094.50000000 5804314.50000000 
0.02400    146324208.00000000 91446720.00000000 231350784.00000000 90451.72656250  7270661.00000000 5747490.00000000 
0.02500    145050128.00000000 90665096.00000000 229355472.00000000 89392.15625000  7195936.50000000 5688841.00000000 
0.02600    143736032.00000000 89859104.00000000 227296736.00000000 88302.74218750  7119019.00000000 5628463.50000000 
0.02700    142385696.00000000 89030176.00000000 225180720.00000000 87184.37500000  7039953.50000000 5566396.00000000 
0.02800    140997392.00000000 88178816.00000000 223006752.00000000 86039.03125000  6958858.50000000 5502750.00000000 
0.02900    139574800.00000000 87305368.00000000 220777504.00000000 84868.31250000  6875834.00000000 5437589.00000000 
0.03000    138119248.00000000 86412104.00000000 218494720.00000000 83673.23437500  6790980.00000000 5370967.00000000 
0.03100    136632144.00000000 85498056.00000000 216162704.00000000 82455.66406250  6704386.00000000 5302974.00000000 
0.03200    135113856.00000000 84565728.00000000 213783216.00000000 81217.08593750  6616163.00000000 5233682.00000000 
0.03300    133567016.00000000 83615168.00000000 211359488.00000000 79959.09375000  6526408.00000000 5163202.50000000 
0.03400    131993536.00000000 82648232.00000000 208891232.00000000 78683.00000000  6435183.50000000 5091567.50000000 
0.03500    130393336.00000000 81664952.00000000 206383440.00000000 77390.46875000  6342655.00000000 5018895.50000000 
0.03600    128769776.00000000 80666888.00000000 203837008.00000000 76082.69531250  6248887.50000000 4945220.50000000 
0.03700    127123952.00000000 79655056.00000000 201255920.00000000 74762.53125000  6154041.50000000 4870684.00000000 
0.03800    125457008.00000000 78630080.00000000 198641680.00000000 73430.11718750  6058134.00000000 4795318.00000000 
0.03900    123771064.00000000 77593200.00000000 195997360.00000000 72088.11718750  5961285.50000000 4719223.50000000 
0.04000    122067992.00000000 76545368.00000000 193325136.00000000 70737.02343750  5863596.50000000 4642452.50000000 
0.04100    120349064.00000000 75487344.00000000 190626912.00000000 69379.27343750  5765254.50000000 4565142.00000000 
0.04200    118615800.00000000 74420144.00000000 187907472.00000000 68015.73437500  5666241.00000000 4487308.50000000 
0.04300    116870048.00000000 73344840.00000000 185167392.00000000 66648.59375000  5566731.00000000 4409072.00000000 
0.04400    115112808.00000000 72262880.00000000 182408880.00000000 65278.68359375  5466823.00000000 4330500.50000000 
0.04500    113346624.00000000 71174832.00000000 179636528.00000000 63907.82031250  5366621.50000000 4251670.50000000 
0.04600    111572696.00000000 70081560.00000000 176851776.00000000 62537.97265625  5266185.00000000 4172667.25000000 
0.04700    109792432.00000000 68984808.00000000 174056304.00000000 61169.49609375  5165624.50000000 4093573.25000000 
0.04800    108006704.00000000 67884272.00000000 171252160.00000000 59804.16406250  5065048.00000000 4014424.75000000 
0.04900    106219480.00000000 66781252.00000000 168443136.00000000 58443.89062500  4964558.50000000 3935333.25000000 
0.05000    104429600.00000000 65677152.00000000 165632336.00000000 57089.54687500  4864230.00000000 3856353.00000000 
0.05100    102640240.00000000 64572616.00000000 162820576.00000000 55742.29687500  4764146.50000000 3777565.75000000 
0.05200    100851888.00000000 63468696.00000000 160010480.00000000 54403.69531250  4664425.50000000 3699030.50000000 
0.05300    99066728.00000000 62365944.00000000 157203808.00000000 53074.85546875  4565134.00000000 3620823.00000000 
0.05400    97285488.00000000 61265672.00000000 154402976.00000000 51756.87500000  4466324.00000000 3543005.25000000 
0.05500    95510576.00000000 60168416.00000000 151612160.00000000 50451.10937500  4368149.00000000 3465636.50000000 
0.05600    93741832.00000000 59075052.00000000 148830992.00000000 49158.54296875  4270611.50000000 3388791.75000000 
0.05700    91982072.00000000 57986600.00000000 146062816.00000000 47880.16015625  4173874.25000000 3312536.25000000 
0.05800    90231416.00000000 56903452.00000000 143309456.00000000 46617.05078125  4077933.75000000 3236894.25000000 
0.05900    88491776.00000000 55826852.00000000 140571344.00000000 45369.88281250  3982883.50000000 3161950.00000000 
0.06000    86764696.00000000 54757272.00000000 137852128.00000000 44139.91796875  3888825.50000000 3087759.00000000 
0.06100    85050720.00000000 53695404.00000000 135154192.00000000 42928.03125000  3795783.00000000 3014362.50000000 
0.06200    83350912.00000000 52642056.00000000 132477800.00000000 41734.97656250  3703844.75000000 2941797.75000000 
0.06300    81666464.00000000 51597628.00000000 129825680.00000000 40561.37500000  3613063.50000000 2870149.50000000 
0.06400    79998992.00000000 50563076.00000000 127197936.00000000 39407.78906250  3523467.00000000 2799436.75000000 
0.06500    78348368.00000000 49539240.00000000 124597872.00000000 38275.25390625  3435165.25000000 2729703.25000000 
0.06600    76716816.00000000 48526004.00000000 122026096.00000000 37164.23828125  3348165.75000000 2660979.50000000 
0.06700    75104288.00000000 47524604.00000000 119484136.00000000 36075.45703125  3262545.00000000 2593326.75000000 
0.06800    73511736.00000000 46534964.00000000 116974040.00000000 35009.08593750  3178330.50000000 2526758.75000000 
0.06900    71941000.00000000 45558272.00000000 114496392.00000000 33965.73046875  3095541.75000000 2461341.00000000 
0.07000    70391488.00000000 44594888.00000000 112051328.00000000 32945.72656250  3014253.50000000 2397058.75000000 
0.07100    68864704.00000000 43644388.00000000 109642664.00000000 31949.56640625  2934480.75000000 2333972.75000000 
0.07200    67360976.00000000 42708208.00000000 107269232.00000000 30977.36132812  2856259.00000000 2272088.00000000 
0.07300    65881228.00000000 41786384.00000000 104933328.00000000 30029.70117188  2779628.00000000 2211441.50000000 
0.07400    64426204.00000000 40879340.00000000 102635160.00000000 29106.30664062  2704588.00000000 2152029.75000000 
0.07500    62995908.00000000 39987436.00000000 100375440.00000000 28207.62890625  2631177.25000000 2093909.12500000 
0.07600    61590688.00000000 39110672.00000000 98156056.00000000 27333.74609375  2559419.75000000 2037054.87500000 
0.07700    60211716.00000000 38249540.00000000 95976384.00000000 26484.62695312  2489330.50000000 1981521.00000000 
0.07800    58859016.00000000 37404612.00000000 93837624.00000000 25660.18750000  2420906.25000000 1927285.00000000 
0.07900    57532700.00000000 36575480.00000000 91740672.00000000 24860.61914062  2354155.50000000 1874358.75000000 
0.08000    56233504.00000000 35763064.00000000 89685624.00000000 24085.82812500  2289104.50000000 1822762.37500000 
0.08100    54961436.00000000 34966952.00000000 87672648.00000000 23335.55273438  2225739.50000000 1772487.12500000 
0.08200    53717020.00000000 34187224.00000000 85702112.00000000 22609.79882812  2164058.50000000 1723546.37500000 
0.08300    52499624.00000000 33424586.00000000 83774960.00000000 21908.12304688  2104085.00000000 1675926.62500000 
0.08400    51309876.00000000 32678744.00000000 81891136.00000000 21230.58203125  2045812.75000000 1629628.25000000 
0.08500    50148068.00000000 31949624.00000000 80050032.00000000 20576.73828125  1989199.12500000 1584659.12500000 
0.08600    49013868.00000000 31237654.00000000 78252584.00000000 19946.29687500  1934261.62500000 1540993.50000000 
0.08700    47908028.00000000 30542576.00000000 76498776.00000000 19338.90820312  1881001.37500000 1498631.25000000 
0.08800    46829268.00000000 29864286.00000000 74787480.00000000 18754.20703125  1829377.00000000 1457566.37500000 
0.08900    45778216.00000000 29203108.00000000 73119896.00000000 18191.92578125  1779376.75000000 1417780.62500000 
0.09000    44754464.00000000 28558578.00000000 71495512.00000000 17651.31445312  1730984.75000000 1379260.50000000 
0.09100    43758204.00000000 27930926.00000000 69913952.00000000 17132.35937500  1684190.75000000 1341986.50000000 
0.09200    42788964.00000000 27319842.00000000 68374616.00000000 16634.26953125  1638957.00000000 1305955.87500000 
0.09300    41846716.00000000 26725464.00000000 66877408.00000000 16156.56542969  1595264.75000000 1271126.00000000 
0.09400    40930792.00000000 26147048.00000000 65422024.00000000 15698.81640625  1553099.62500000 1237497.25000000 
0.09500    40041388.00000000 25585186.00000000 64007752.00000000 15260.51367188  1512402.75000000 1205046.75000000 
0.09600    39178240.00000000 25039402.00000000 62634516.00000000 14841.07910156  1473182.12500000 1173739.50000000 
0.09700    38340184.00000000 24509392.00000000 61301460.00000000 14439.93066406  1435378.00000000 1143566.62500000 
0.09800    37527768.00000000 23994850.00000000 60008112.00000000 14056.46093750  1398969.87500000 1114491.50000000 
0.09900    36740528.00000000 23495828.00000000 58754544.00000000 13690.09179688  1363927.87500000 1086496.62500000 
0.10000    35977504.00000000 23011904.00000000 57538776.00000000 13340.20117188  1330214.62500000 1059548.25000000 
0.10100    35238188.00000000 22542752.00000000 56360816.00000000 13006.28515625  1297790.25000000 1033618.43750000 
0.10200    34522576.00000000 22088296.00000000 55220084.00000000 12687.72656250  1266631.62500000 1008690.68750000 
0.10300    33829708.00000000 21648128.00000000 54115448.00000000 12383.75585938  1236674.25000000 984718.68750000 
0.10400    33159942.00000000 21221938.00000000 53046204.00000000 12093.94335938  1207911.87500000 961696.56250000 
0.10500    32511852.00000000 20809498.00000000 52012436.00000000 11817.46679688  1180287.37500000 939568.00000000 
0.10600    31884928.00000000 20410284.00000000 51011804.00000000 11553.76171875  1153750.00000000 918324.18750000 
0.10700    31279286.00000000 20024184.00000000 50044888.00000000 11302.51757812  1128296.25000000 897920.81250000 
0.10800    30693602.00000000 19650992.00000000 49109680.00000000 11062.62500000  1103866.25000000 878337.81250000 
0.10900    30127950.00000000 19289798.00000000 48205360.00000000 10833.94726562  1080414.37500000 859533.12500000 
0.11000    29581792.00000000 18940946.00000000 47331936.00000000 10615.57324219  1057911.00000000 841482.75000000 
0.11100    29053632.00000000 18603546.00000000 46487708.00000000 10406.99609375  1036303.06250000 824156.81250000 
0.11200    28543412.00000000 18277498.00000000 45672068.00000000 10207.69238281  1015572.56250000 807526.43750000 
0.11300    28050938.00000000 17962394.00000000 44884108.00000000 10017.04785156  995666.87500000 791547.06250000 
0.11400    27575082.00000000 17657990.00000000 44122564.00000000 9834.62890625   976545.50000000 776202.75000000 
0.11500    27115494.00000000 17363682.00000000 43386848.00000000 9659.64160156   958173.37500000 761457.06250000 
0.11600    26671272.00000000 17079308.00000000 42675680.00000000 9491.77539062   940516.25000000 747284.75000000 
0.11700    26242260.00000000 16804274.00000000 41988884.00000000 9330.50585938   923525.62500000 733646.81250000 
0.11800    25827410.00000000 16538418.00000000 41324472.00000000 9175.07812500   907169.93750000 720523.25000000 
0.11900    25426326.00000000 16281207.00000000 40681880.00000000 9025.31835938   891419.81250000 707880.25000000 
0.12000    25038218.00000000 16032344.00000000 40060392.00000000 8880.58691406   876221.25000000 695684.43750000 
0.12100    24662988.00000000 15791713.00000000 39459512.00000000 8740.60156250   861561.43750000 683930.75000000 
0.12200    24299474.00000000 15558614.00000000 38876848.00000000 8604.67773438   847396.93750000 672568.81250000 
0.12300    23947336.00000000 15332851.00000000 38313032.00000000 8472.65820312   833690.37500000 661577.62500000 
0.12400    23606150.00000000 15113990.00000000 37766584.00000000 8344.04101562   820410.68750000 650939.18750000 
0.12500    23275030.00000000 14901690.00000000 37236336.00000000 8218.34082031   807532.50000000 640623.43750000 
0.12600    22953834.00000000 14695784.00000000 36721832.00000000 8095.45068359   795021.50000000 630605.81250000 
0.12700    22641602.00000000 14495869.00000000 36222096.00000000 7974.89160156   782848.56250000 620869.81250000 
0.12800    22338074.00000000 14301455.00000000 35736508.00000000 7856.30859375   770983.12500000 611380.50000000 
0.12900    22042846.00000000 14112391.00000000 35263648.00000000 7739.54150391   759404.18750000 602128.12500000 
0.13000    21754974.00000000 13928307.00000000 34803432.00000000 7624.22949219   748082.56250000 593086.68750000 
0.13100    21474446.00000000 13748854.00000000 34354828.00000000 7510.12939453   736998.25000000 584239.93750000 
0.13200    21200492.00000000 13573919.00000000 33916772.00000000 7397.04248047   726114.18750000 575566.12500000 
0.13300    20932842.00000000 13403051.00000000 33488946.00000000 7284.77246094   715425.18750000 567048.62500000 
0.13400    20670894.00000000 13235912.00000000 33070546.00000000 7173.09130859   704900.00000000 558670.31250000 
0.13500    20414240.00000000 13072429.00000000 32661024.00000000 7061.78320312   694522.12500000 550416.37500000 
0.13600    20162696.00000000 12912234.00000000 32259360.00000000 6950.83300781   684275.68750000 542272.00000000 
0.13700    19915522.00000000 12755154.00000000 31865352.00000000 6839.94433594   674135.43750000 534219.18750000 
0.13800    19672724.00000000 12600843.00000000 31478052.00000000 6729.08203125   664090.81250000 526249.75000000 
0.13900    19433544.00000000 12449120.00000000 31097178.00000000 6618.16162109   654131.50000000 518349.15625000 
0.14000    19197966.00000000 12299862.00000000 30722210.00000000 6507.12109375   644232.43750000 510507.50000000 
0.14100    18965526.00000000 12152696.00000000 30352426.00000000 6395.82763672   634393.12500000 502717.06250000 
0.14200    18735984.00000000 12007536.00000000 29987316.00000000 6284.25878906   624588.50000000 494960.28125000 
0.14300    18508902.00000000 11864244.00000000 29626534.00000000 6172.35595703   614825.31250000 487239.68750000 
0.14400    18284158.00000000 11722462.00000000 29269668.00000000 6060.12744141   605080.68750000 479535.34375000 
0.14500    18061606.00000000 11582153.00000000 28916220.00000000 5947.59472656   595352.93750000 471854.50000000 
0.14600    17840680.00000000 11443164.00000000 28565916.00000000 5834.70068359   585637.37500000 464180.75000000 
0.14700    17621464.00000000 11305441.00000000 28218410.00000000 5721.53759766   575918.68750000 456514.00000000 
0.14800    17403638.00000000 11168619.00000000 27873040.00000000 5608.10498047   566200.93750000 448845.18750000 
0.14900    17186944.00000000 11032745.00000000 27529994.00000000 5494.35498047   556475.93750000 441178.31250000 
0.15000    16971348.00000000 10897575.00000000 27188592.00000000 5380.48388672   546742.75000000 433505.28125000 
0.15100    16756725.00000000 10763152.00000000 26848952.00000000 5266.44531250   536998.75000000 425821.71875000 
0.15200    16542782.00000000 10629358.00000000 26510678.00000000 5152.42138672   527244.56250000 418134.71875000 
0.15300    16329522.00000000 10496104.00000000 26173376.00000000 5038.40087891   517478.93750000 410434.50000000 
0.15400    16116689.00000000 10363174.00000000 25837124.00000000 4924.45751953   507694.78125000 402725.40625000 
0.15500    15904442.00000000 10230671.00000000 25501624.00000000 4810.70214844   497904.37500000 395011.18750000 
0.15600    15692479.00000000 10098428.00000000 25166694.00000000 4697.27197266   488102.06250000 387285.34375000 
0.15700    15480887.00000000 9966461.00000000 24832620.00000000 4584.20947266   478296.87500000 379559.03125000 
0.15800    15269420.00000000 9834733.00000000 24498798.00000000 4471.65380859   468483.40625000 371824.68750000 
0.15900    15058289.00000000 9703188.00000000 24165518.00000000 4359.69531250   458671.34375000 364090.71875000 
0.16000    14847330.00000000 9571750.00000000 23832486.00000000 4248.45947266   448863.81250000 356356.25000000 
0.16100    14636574.00000000 9440515.00000000 23499912.00000000 4138.06738281   439067.28125000 348632.56250000 
0.16200    14425986.00000000 9309386.00000000 23167562.00000000 4028.56665039   429285.03125000 340912.37500000 
0.16300    14215572.00000000 9178368.00000000 22835522.00000000 3920.12548828   419519.28125000 333205.75000000 
0.16400    14005395.00000000 9047557.00000000 22503880.00000000 3812.85327148   409781.31250000 325518.59375000 
0.16500    13795451.00000000 8916818.00000000 22172538.00000000 3706.85107422   400072.12500000 317851.59375000 
0.16600    13585880.00000000 8786218.00000000 21841588.00000000 3602.20971680   390404.37500000 310210.18750000 
0.16700    13376425.00000000 8655838.00000000 21511004.00000000 3499.06030273   380774.71875000 302601.75000000 
0.16800    13167455.00000000 8525482.00000000 21181130.00000000 3397.47192383   371201.65625000 295026.81250000 
0.16900    12958874.00000000 8395601.00000000 20851806.00000000 3297.60791016   361684.59375000 287498.31250000 
0.17000    12750890.00000000 8265838.50000000 20523264.00000000 3199.51416016   352231.96875000 280013.15625000 
