# SAXS profile: number of points = 501, q_min = 0, q_max = 0.5, delta_q = 0.001
#    q    intensity 
0.00000    162238832.00000000 101201848.00000000 256271296.00000000 97462.83593750  7952935.50000000 6281212.00000000 
0.00100    162216080.00000000 101187736.00000000 256235088.00000000 97443.71093750  7951594.50000000 6280159.50000000 
0.00200    162146944.00000000 101144936.00000000 256126848.00000000 97387.01562500  7947545.50000000 6276983.50000000 
0.00300    162032016.00000000 101073872.00000000 255945376.00000000 97291.82031250  7940790.50000000 6271679.50000000 
0.00400    161870672.00000000 100974064.00000000 255691840.00000000 97159.39843750  7931354.00000000 6264292.00000000 
0.00500    161663040.00000000 100846376.00000000 255365632.00000000 96988.68750000  7919266.50000000 6254781.00000000 
0.00600    161408000.00000000 100690496.00000000 254967040.00000000 96780.80468750  7904491.50000000 6243155.50000000 
0.00700    161107712.00000000 100507080.00000000 254498208.00000000 96535.59375000  7887095.00000000 6229477.50000000 
0.00800    160762896.00000000 100293976.00000000 253956432.00000000 96253.00000000  7867014.00000000 6213764.00000000 
0.00900    160373488.00000000 100054648.00000000 253346416.00000000 95934.46093750  7844341.00000000 6195973.50000000 
0.01000    159937136.00000000 99787536.00000000 252664048.00000000 95579.15625000  7819068.00000000 6176109.50000000 
0.01100    159457280.00000000 99493704.00000000 251914176.00000000 95187.59375000  7791224.00000000 6154252.00000000 
0.01200    158933840.00000000 99172016.00000000 251093008.00000000 94761.20312500  7760855.50000000 6130412.00000000 
0.01300    158367632.00000000 98824456.00000000 250204688.00000000 94299.90625000  7727960.50000000 6104610.50000000 
0.01400    157758640.00000000 98449928.00000000 249248992.00000000 93803.34375000  7692602.50000000 6076834.00000000 
0.01500    157107280.00000000 98049392.00000000 248226800.00000000 93273.07031250  7654779.50000000 6047149.50000000 
0.01600    156412800.00000000 97622200.00000000 247137776.00000000 92709.78125000  7614540.50000000 6015549.50000000 
0.01700    155675920.00000000 97170888.00000000 245984896.00000000 92113.22656250  7571959.50000000 5982109.00000000 
0.01800    154900720.00000000 96693448.00000000 244768496.00000000 91484.67968750  7527047.50000000 5946846.00000000 
0.01900    154083344.00000000 96191304.00000000 243486944.00000000 90824.54687500  7479819.00000000 5909744.50000000 
0.02000    153227296.00000000 95665392.00000000 242145856.00000000 90133.88281250  7430358.00000000 5870931.00000000 
0.02100    152333712.00000000 95115648.00000000 240743712.00000000 89413.00000000  7378729.50000000 5830362.50000000 
0.02200    151401280.00000000 94542696.00000000 239281360.00000000 88662.81250000  7324938.50000000 5788130.00000000 
0.02300    150431920.00000000 93946976.00000000 237761840.00000000 87884.27343750  7269027.00000000 5744214.50000000 
0.02400    149425712.00000000 93328368.00000000 236183584.00000000 87077.75000000  7211102.50000000 5698725.50000000 
0.02500    148384176.00000000 92688472.00000000 234550096.00000000 86245.28906250  7151152.00000000 5651652.50000000 
0.02600    147308688.00000000 92026512.00000000 232862176.00000000 85386.76562500  7089300.00000000 5603045.50000000 
0.02700    146199280.00000000 91343992.00000000 231121360.00000000 84502.71093750  7025549.50000000 5552967.00000000 
0.02800    145056080.00000000 90641232.00000000 229330096.00000000 83594.38281250  6960014.50000000 5501445.50000000 
0.02900    143881056.00000000 89918800.00000000 227486848.00000000 82663.51562500  6892733.50000000 5448585.00000000 
0.03000    142675648.00000000 89177232.00000000 225595696.00000000 81710.03906250  6823715.50000000 5394357.00000000 
0.03100    141440416.00000000 88416664.00000000 223656704.00000000 80735.63281250  6753062.50000000 5338844.50000000 
0.03200    140175376.00000000 87638032.00000000 221672496.00000000 79740.97656250  6680855.50000000 5282097.00000000 
0.03300    138882528.00000000 86842920.00000000 219644352.00000000 78726.82031250  6607135.00000000 5224172.50000000 
0.03400    137562960.00000000 86030512.00000000 217574416.00000000 77694.78906250  6531967.00000000 5165070.50000000 
0.03500    136217904.00000000 85202336.00000000 215462160.00000000 76644.95312500  6455429.50000000 5104929.00000000 
0.03600    134847168.00000000 84358464.00000000 213310912.00000000 75579.59375000  6377614.50000000 5043741.00000000 
0.03700    133452776.00000000 83499736.00000000 211122928.00000000 74498.12500000  6298540.50000000 4981571.50000000 
0.03800    132035544.00000000 82626944.00000000 208897728.00000000 73403.29687500  6218276.00000000 4918464.00000000 
0.03900    130597096.00000000 81740744.00000000 206639488.00000000 72295.32812500  6136917.00000000 4854501.00000000 
0.04000    129137584.00000000 80841560.00000000 204347760.00000000 71174.96875000  6054547.00000000 4789698.00000000 
0.04100    127658816.00000000 79929944.00000000 202026064.00000000 70044.11718750  5971193.50000000 4724124.00000000 
0.04200    126161840.00000000 79007264.00000000 199676640.00000000 68902.88281250  5886936.50000000 4657857.50000000 
0.04300    124647248.00000000 78073552.00000000 197297680.00000000 67753.00000000  5801853.00000000 4590950.50000000 
0.04400    123116600.00000000 77129928.00000000 194893616.00000000 66595.47656250  5716057.00000000 4523410.50000000 
0.04500    121570528.00000000 76176864.00000000 192466192.00000000 65430.88281250  5629538.00000000 4455356.00000000 
0.04600    120011328.00000000 75214896.00000000 190016240.00000000 64260.53125000  5542389.50000000 4386766.50000000 
0.04700    118438888.00000000 74244496.00000000 187545936.00000000 63085.44921875  5454710.50000000 4317802.50000000 
0.04800    116855152.00000000 73267008.00000000 185056976.00000000 61906.84765625  5366573.00000000 4248423.50000000 
0.04900    115260960.00000000 72283160.00000000 182552272.00000000 60725.24218750  5278014.00000000 4178698.50000000 
0.05000    113656192.00000000 71293344.00000000 180031824.00000000 59541.89843750  5189106.50000000 4108695.00000000 
0.05100    112044072.00000000 70298144.00000000 177497632.00000000 58357.95312500  5099936.50000000 4038477.00000000 
0.05200    110424536.00000000 69297824.00000000 174951344.00000000 57174.05078125  5010545.50000000 3968088.50000000 
0.05300    108798608.00000000 68293560.00000000 172395616.00000000 55991.51562500  4921006.00000000 3897563.50000000 
0.05400    107167584.00000000 67285248.00000000 169830832.00000000 54810.89453125  4831405.50000000 3826986.25000000 
0.05500    105532664.00000000 66274780.00000000 167261648.00000000 53633.32421875  4741786.50000000 3756362.00000000 
0.05600    103895032.00000000 65262376.00000000 164684720.00000000 52459.66796875  4652218.50000000 3685801.50000000 
0.05700    102254936.00000000 64248572.00000000 162104896.00000000 51290.73437500  4562748.00000000 3615303.25000000 
0.05800    100613952.00000000 63233608.00000000 159524816.00000000 50127.37109375  4473460.00000000 3544936.25000000 
0.05900    98973432.00000000 62218804.00000000 156943600.00000000 48970.56250000  4384403.00000000 3474741.50000000 
0.06000    97334232.00000000 61203832.00000000 154363456.00000000 47820.78906250  4295634.50000000 3404769.50000000 
0.06100    95696944.00000000 60190572.00000000 151787760.00000000 46679.27343750  4207243.50000000 3335063.75000000 
0.06200    94062392.00000000 59178548.00000000 149215824.00000000 45546.38671875  4119212.00000000 3265643.75000000 
0.06300    92432048.00000000 58168972.00000000 146648864.00000000 44423.13671875  4031665.50000000 3196591.00000000 
0.06400    90807008.00000000 57162032.00000000 144089808.00000000 43310.19140625  3944630.75000000 3127936.00000000 
0.06500    89187096.00000000 56158552.00000000 141540432.00000000 42207.98828125  3858152.50000000 3059707.25000000 
0.06600    87574432.00000000 55158964.00000000 139000608.00000000 41117.58593750  3772290.75000000 2991948.25000000 
0.06700    85969360.00000000 54163676.00000000 136472288.00000000 40039.15234375  3687086.50000000 2924698.75000000 
0.06800    84373008.00000000 53173384.00000000 133958320.00000000 38973.51953125  3602601.25000000 2858018.25000000 
0.06900    82785480.00000000 52188636.00000000 131457488.00000000 37921.38671875  3518862.50000000 2791905.25000000 
0.07000    81207800.00000000 51209612.00000000 128971464.00000000 36883.11328125  3435943.00000000 2726423.75000000 
0.07100    79641640.00000000 50236964.00000000 126503312.00000000 35859.34765625  3353847.25000000 2661589.75000000 
0.07200    78086704.00000000 49271280.00000000 124052296.00000000 34850.04687500  3272631.50000000 2597425.75000000 
0.07300    76544176.00000000 48313268.00000000 121620376.00000000 33856.78125000  3192334.75000000 2533990.75000000 
0.07400    75014744.00000000 47362764.00000000 119208832.00000000 32878.89062500  3112993.50000000 2471306.50000000 
0.07500    73498744.00000000 46420520.00000000 116818424.00000000 31917.39453125  3034655.00000000 2409364.00000000 
0.07600    71997568.00000000 45486660.00000000 114449872.00000000 30972.10156250  2957321.00000000 2348245.75000000 
0.07700    70510520.00000000 44561920.00000000 112105016.00000000 30043.99218750  2881061.75000000 2287946.50000000 
0.07800    69040016.00000000 43646572.00000000 109784272.00000000 29133.00390625  2805886.50000000 2228486.25000000 
0.07900    67584872.00000000 42741128.00000000 107488400.00000000 28239.44140625  2731779.25000000 2169874.75000000 
0.08000    66146796.00000000 41845596.00000000 105218712.00000000 27363.60546875  2658860.00000000 2112174.00000000 
0.08100    64726572.00000000 40960628.00000000 102975704.00000000 26505.82031250  2587089.50000000 2055382.50000000 
0.08200    63323268.00000000 40086148.00000000 100760320.00000000 25665.99804688  2516488.25000000 1999508.25000000 
0.08300    61938088.00000000 39222728.00000000 98573064.00000000 24844.56054688  2447110.50000000 1944578.62500000 
0.08400    60571740.00000000 38370424.00000000 96414600.00000000 24041.52929688  2378940.00000000 1890597.50000000 
0.08500    59224520.00000000 37529768.00000000 94285936.00000000 23257.06054688  2312006.25000000 1837599.00000000 
0.08600    57896436.00000000 36701116.00000000 92187568.00000000 22491.24609375  2246324.50000000 1785574.25000000 
0.08700    56588164.00000000 35884076.00000000 90119656.00000000 21744.06250000  2181919.00000000 1734538.62500000 
0.08800    55300148.00000000 35079420.00000000 88083248.00000000 21015.56445312  2118792.75000000 1684504.37500000 
0.08900    54032300.00000000 34287116.00000000 86078792.00000000 20305.81640625  2056959.12500000 1635492.37500000 
0.09000    52784944.00000000 33507306.00000000 84105768.00000000 19614.87500000  1996414.00000000 1587489.25000000 
0.09100    51558468.00000000 32740194.00000000 82166152.00000000 18942.48242188  1937168.00000000 1540509.62500000 
0.09200    50353188.00000000 31985888.00000000 80259096.00000000 18288.62695312  1879241.00000000 1494549.62500000 
0.09300    49169172.00000000 31244960.00000000 78384936.00000000 17653.50585938  1822610.37500000 1449629.87500000 
0.09400    48006360.00000000 30516946.00000000 76545064.00000000 17036.56445312  1767297.25000000 1405739.00000000 
0.09500    46865368.00000000 29801784.00000000 74738136.00000000 16437.88867188  1713305.25000000 1362870.62500000 
0.09600    45745800.00000000 29100262.00000000 72965472.00000000 15857.44238281  1660611.25000000 1321033.00000000 
0.09700    44648456.00000000 28412096.00000000 71227312.00000000 15295.01953125  1609226.00000000 1280230.25000000 
0.09800    43572716.00000000 27737208.00000000 69523160.00000000 14750.25781250  1559147.75000000 1240459.62500000 
0.09900    42518952.00000000 27075858.00000000 67853392.00000000 14223.20019531  1510373.12500000 1201706.87500000 
0.10000    41487208.00000000 26427850.00000000 66218072.00000000 13713.45019531  1462882.50000000 1163961.50000000 
0.10100    40477444.00000000 25793468.00000000 64616392.00000000 13220.78906250  1416689.12500000 1127236.37500000 
0.10200    39489356.00000000 25172358.00000000 63049848.00000000 12744.96093750  1371756.00000000 1091515.50000000 
0.10300    38523164.00000000 24564764.00000000 61517156.00000000 12285.77832031  1328083.00000000 1056788.00000000 
0.10400    37578680.00000000 23970704.00000000 60019044.00000000 11842.90820312  1285668.12500000 1023043.62500000 
0.10500    36656148.00000000 23389958.00000000 58555228.00000000 11416.07324219  1244499.62500000 990281.56250000 
0.10600    35754988.00000000 22822508.00000000 57124664.00000000 11004.98828125  1204545.75000000 958484.31250000 
0.10700    34875620.00000000 22268344.00000000 55728384.00000000 10609.34570312  1165811.50000000 927645.87500000 
0.10800    34017256.00000000 21727308.00000000 54365172.00000000 10228.85937500  1128259.25000000 897749.62500000 
0.10900    33180256.00000000 21199466.00000000 53035752.00000000 9863.05175781   1091896.00000000 868786.06250000 
0.11000    32364132.00000000 20684576.00000000 51739292.00000000 9511.72070312   1056688.25000000 840738.75000000 
0.11100    31568908.00000000 20182464.00000000 50475412.00000000 9174.46191406   1022622.43750000 813589.37500000 
0.11200    30794226.00000000 19693262.00000000 49243928.00000000 8850.92382812   989675.00000000 787334.56250000 
0.11300    30040018.00000000 19216486.00000000 48044764.00000000 8540.86914062   957836.62500000 761951.37500000 
0.11400    29305860.00000000 18752490.00000000 46877196.00000000 8243.80761719   927084.18750000 737429.81250000 
0.11500    28591810.00000000 18300656.00000000 45741128.00000000 7959.42236328   897388.81250000 713745.75000000 
0.11600    27897288.00000000 17861144.00000000 44635672.00000000 7687.27197266   868740.25000000 690893.50000000 
0.11700    27222348.00000000 17433632.00000000 43561152.00000000 7427.10791016   841111.56250000 668842.43750000 
0.11800    26566028.00000000 17017910.00000000 42516584.00000000 7178.45996094   814467.25000000 647581.75000000 
0.11900    25928682.00000000 16613935.00000000 41501720.00000000 6941.03857422   788805.12500000 627096.06250000 
0.12000    25309828.00000000 16221514.00000000 40515956.00000000 6714.37841797   764094.87500000 607364.62500000 
0.12100    24709078.00000000 15840300.00000000 39558736.00000000 6498.22460938   740310.81250000 588373.06250000 
0.12200    24126374.00000000 15470339.00000000 38630196.00000000 6292.12255859   717429.43750000 570095.87500000 
0.12300    23561170.00000000 15111253.00000000 37728680.00000000 6095.70507812   695429.25000000 552523.00000000 
0.12400    23012988.00000000 14762905.00000000 36854664.00000000 5908.70166016   674288.62500000 535624.68750000 
0.12500    22481462.00000000 14425049.00000000 36007268.00000000 5730.58886719   653974.00000000 519390.21875000 
0.12600    21966884.00000000 14097663.00000000 35185992.00000000 5561.22998047   634473.06250000 503803.81250000 
0.12700    21468138.00000000 13780158.00000000 34390360.00000000 5400.04394531   615751.43750000 488839.34375000 
0.12800    20985072.00000000 13472653.00000000 33619328.00000000 5246.81396484   597796.50000000 474479.31250000 
0.12900    20517634.00000000 13174790.00000000 32872888.00000000 5101.17626953   580567.75000000 460706.09375000 
0.13000    20065202.00000000 12886379.00000000 32150212.00000000 4962.79589844   564062.43750000 447502.43750000 
0.13100    19627216.00000000 12607146.00000000 31450660.00000000 4831.31689453   548231.37500000 434845.31250000 
0.13200    19203600.00000000 12336942.00000000 30773962.00000000 4706.43408203   533069.62500000 422719.56250000 
0.13300    18793996.00000000 12075452.00000000 30119448.00000000 4587.78906250   518549.75000000 411101.81250000 
0.13400    18397848.00000000 11822553.00000000 29486420.00000000 4475.13671875   504641.25000000 399983.15625000 
0.13500    18014840.00000000 11577904.00000000 28874090.00000000 4368.15429688   491332.78125000 389333.25000000 
0.13600    17644606.00000000 11341306.00000000 28282074.00000000 4266.50878906   478596.56250000 379144.09375000 
0.13700    17286940.00000000 11112703.00000000 27710034.00000000 4169.97363281   466404.40625000 369393.25000000 
0.13800    16941218.00000000 10891531.00000000 27157016.00000000 4078.22167969   454737.34375000 360062.78125000 
0.13900    16607162.00000000 10677882.00000000 26622646.00000000 3991.00659180   443577.81250000 351138.37500000 
0.14000    16284440.00000000 10471349.00000000 26106258.00000000 3908.08398438   432902.28125000 342601.06250000 
0.14100    15972675.00000000 10271792.00000000 25607226.00000000 3829.14331055   422687.34375000 334431.34375000 
0.14200    15671466.00000000 10078869.00000000 25125248.00000000 3753.95849609   412915.31250000 326617.78125000 
0.14300    15380538.00000000 9892569.00000000 24659456.00000000 3682.34960938   403560.50000000 319144.78125000 
0.14400    15099477.00000000 9712444.00000000 24209444.00000000 3614.00830078   394608.06250000 311990.87500000 
0.14500    14827942.00000000 9538377.00000000 23774508.00000000 3548.77880859   386039.40625000 305144.96875000 
0.14600    14565571.00000000 9370261.00000000 23354426.00000000 3486.46411133   377834.84375000 298591.87500000 
0.14700    14311961.00000000 9207784.00000000 22948412.00000000 3426.82202148   369975.40625000 292318.21875000 
0.14800    14066941.00000000 9050684.00000000 22555924.00000000 3369.66674805   362439.50000000 286303.78125000 
0.14900    13830079.00000000 8898722.00000000 22176584.00000000 3314.79052734   355213.00000000 280542.53125000 
0.15000    13601035.00000000 8751915.00000000 21809844.00000000 3262.11547852   348282.93750000 275012.90625000 
0.15100    13379585.00000000 8609861.00000000 21455024.00000000 3211.37573242   341627.87500000 269707.28125000 
0.15200    13165399.00000000 8472477.00000000 21111838.00000000 3162.49829102   335238.40625000 264617.84375000 
0.15300    12958107.00000000 8339529.50000000 20779868.00000000 3115.27099609   329090.37500000 259722.54687500 
0.15400    12757332.00000000 8210789.00000000 20458244.00000000 3069.60302734   323172.46875000 255011.48437500 
0.15500    12562939.00000000 8086176.50000000 20147032.00000000 3025.32934570   317477.21875000 250480.06250000 
0.15600    12374564.00000000 7965416.00000000 19845422.00000000 2982.33569336   311979.96875000 246111.07812500 
0.15700    12192080.00000000 7848408.50000000 19553120.00000000 2940.56713867   306675.40625000 241897.92187500 
0.15800    12015028.00000000 7734907.00000000 19269600.00000000 2899.81176758   301549.34375000 237826.32812500 
0.15900    11843249.00000000 7624814.50000000 18994468.00000000 2860.06372070   296590.21875000 233890.14062500 
0.16000    11676380.00000000 7517946.50000000 18727416.00000000 2821.19311523   291784.43750000 230077.85937500 
0.16100    11514358.00000000 7414172.00000000 18468098.00000000 2783.14086914   287124.84375000 226385.98437500 
0.16200    11356790.00000000 7313305.00000000 18215824.00000000 2745.79565430   282596.43750000 222800.14062500 
0.16300    11203509.00000000 7215168.00000000 17970684.00000000 2709.09448242   278192.84375000 219312.03125000 
0.16400    11054289.00000000 7119745.00000000 17731964.00000000 2673.00488281   273903.90625000 215919.90625000 
0.16500    10908936.00000000 7026734.00000000 17499396.00000000 2637.42651367   269720.21875000 212610.54687500 
0.16600    10767187.00000000 6936127.50000000 17272716.00000000 2602.35180664   265635.25000000 209381.17187500 
0.16700    10628825.00000000 6847762.00000000 17051550.00000000 2567.68090820   261638.32812500 206222.89062500 
0.16800    10493711.00000000 6761440.50000000 16835570.00000000 2533.39794922   257722.96875000 203129.89062500 
0.16900    10361683.00000000 6677172.00000000 16624620.00000000 2499.50585938   253884.56250000 200100.32812500 
0.17000    10232478.00000000 6594724.50000000 16418235.00000000 2465.92529297   250112.93750000 197123.39062500 
