# SAXS profile: number of points = 501, q_min = 0, q_max = 0.5, delta_q = 0.001
#    q    intensity 
0.00000    162237504.00000000 101202016.00000000 256271088.00000000 103274.49218750 8186594.50000000 6465757.00000000 
0.00100    162206368.00000000 101181520.00000000 256219392.00000000 103247.53125000 8184666.50000000 6464283.50000000 
0.00200    162110176.00000000 101121216.00000000 256065952.00000000 103165.53125000 8178990.50000000 6459770.50000000 
0.00300    161946928.00000000 101020304.00000000 255809616.00000000 103029.07031250 8169384.50000000 6452258.00000000 
0.00400    161718400.00000000 100879336.00000000 255450192.00000000 102838.93750000 8156038.50000000 6441733.00000000 
0.00500    161424160.00000000 100698104.00000000 254988512.00000000 102594.06250000 8138900.50000000 6428279.00000000 
0.00600    161064128.00000000 100477680.00000000 254424688.00000000 102297.26562500 8117960.50000000 6411889.50000000 
0.00700    160641728.00000000 100216704.00000000 253762448.00000000 101945.58593750 8093345.50000000 6392509.00000000 
0.00800    160153664.00000000 99917784.00000000 253000144.00000000 101542.65625000 8065026.50000000 6370247.50000000 
0.00900    159603088.00000000 99579696.00000000 252138624.00000000 101088.01562500 8033063.00000000 6345150.50000000 
0.01000    158992272.00000000 99204024.00000000 251180240.00000000 100582.28906250 7997480.00000000 6317209.00000000 
0.01100    158321056.00000000 98790768.00000000 250125392.00000000 100026.47656250 7958403.50000000 6286522.50000000 
0.01200    157590432.00000000 98340256.00000000 248976528.00000000 99421.97656250  7915796.50000000 6253022.00000000 
0.01300    156798752.00000000 97852576.00000000 247733232.00000000 98769.16406250  7869766.50000000 6216920.50000000 
0.01400    155948400.00000000 97329712.00000000 246399904.00000000 98069.32031250  7820432.00000000 6178123.00000000 
0.01500    155040272.00000000 96770776.00000000 244976048.00000000 97323.40625000  7767783.50000000 6136801.00000000 
0.01600    154077648.00000000 96176880.00000000 243465104.00000000 96532.78125000  7711952.00000000 6092915.50000000 
0.01700    153060448.00000000 95550664.00000000 241868112.00000000 95699.19531250  7652999.00000000 6046614.00000000 
0.01800    151988848.00000000 94891872.00000000 240186592.00000000 94823.76562500  7591030.00000000 5997893.50000000 
0.01900    150866096.00000000 94200280.00000000 238425072.00000000 93907.37500000  7526091.50000000 5946897.50000000 
0.02000    149694272.00000000 93477208.00000000 236584112.00000000 92952.16406250  7458331.00000000 5893650.00000000 
0.02100    148471760.00000000 92724880.00000000 234665568.00000000 91959.03906250  7387861.50000000 5838247.00000000 
0.02200    147202288.00000000 91942680.00000000 232672720.00000000 90930.04687500  7314714.00000000 5780774.00000000 
0.02300    145887072.00000000 91132424.00000000 230608640.00000000 89866.60937500  7239013.00000000 5721305.00000000 
0.02400    144528080.00000000 90295544.00000000 228476336.00000000 88770.75781250  7160884.50000000 5659899.00000000 
0.02500    143127456.00000000 89432104.00000000 226274928.00000000 87644.40625000  7080414.00000000 5596664.50000000 
0.02600    141686432.00000000 88543752.00000000 224012800.00000000 86487.70312500  6997782.50000000 5531709.50000000 
0.02700    140205312.00000000 87631352.00000000 221688688.00000000 85304.26562500  6913082.50000000 5465131.00000000 
0.02800    138688720.00000000 86696528.00000000 219306240.00000000 84094.63281250  6826340.00000000 5396934.00000000 
0.02900    137138448.00000000 85739320.00000000 216868384.00000000 82861.60156250  6737761.00000000 5327287.00000000 
0.03000    135552976.00000000 84762504.00000000 214380288.00000000 81606.29687500  6647420.50000000 5256281.50000000 
0.03100    133936464.00000000 83766072.00000000 211842656.00000000 80330.59375000  6555472.50000000 5183987.50000000 
0.03200    132291792.00000000 82751456.00000000 209258704.00000000 79036.53906250  6462041.50000000 5110503.50000000 
0.03300    130619464.00000000 81719304.00000000 206631232.00000000 77726.66406250  6367200.50000000 5035949.50000000 
0.03400    128922192.00000000 80672560.00000000 203964224.00000000 76400.75781250  6271147.00000000 4960384.00000000 
0.03500    127200976.00000000 79610256.00000000 201261456.00000000 75061.92187500  6173924.50000000 4883933.00000000 
0.03600    125459064.00000000 78535392.00000000 198523600.00000000 73712.46875000  6075718.00000000 4806691.00000000 
0.03700    123698072.00000000 77447760.00000000 195755952.00000000 72353.93750000  5976612.50000000 4728731.50000000 
0.03800    121919448.00000000 76349504.00000000 192960816.00000000 70987.50781250  5876740.00000000 4650120.00000000 
0.03900    120125592.00000000 75241608.00000000 190141712.00000000 69615.74218750  5776241.50000000 4571069.00000000 
0.04000    118317432.00000000 74126248.00000000 187300192.00000000 68239.38281250  5675180.00000000 4491527.00000000 
0.04100    116499456.00000000 73002368.00000000 184441120.00000000 66861.25000000  5573711.50000000 4411686.50000000 
0.04200    114671336.00000000 71873696.00000000 181568640.00000000 65482.46484375  5471926.00000000 4331598.00000000 
0.04300    112835232.00000000 70739400.00000000 178681392.00000000 64104.43359375  5369986.50000000 4251370.50000000 
0.04400    110993344.00000000 69600576.00000000 175785040.00000000 62729.10937500  5267995.50000000 4171019.75000000 
0.04500    109148712.00000000 68459384.00000000 172883632.00000000 61357.93750000  5166019.50000000 4090742.50000000 
0.04600    107300752.00000000 67317568.00000000 169977856.00000000 59992.23828125  5064194.00000000 4010567.50000000 
0.04700    105453448.00000000 66174432.00000000 167071600.00000000 58634.04296875  4962636.00000000 3930566.75000000 
0.04800    103607568.00000000 65032660.00000000 164167888.00000000 57284.29687500  4861418.00000000 3850850.25000000 
0.04900    101764840.00000000 63892180.00000000 161268576.00000000 55944.55078125  4760643.50000000 3771456.50000000 
0.05000    99927200.00000000 62754868.00000000 158377648.00000000 54615.89843750  4660403.00000000 3692508.50000000 
0.05100    98095264.00000000 61621288.00000000 155496384.00000000 53299.80078125  4560816.00000000 3614058.50000000 
0.05200    96272880.00000000 60492152.00000000 152626768.00000000 51997.40234375  4461947.00000000 3536157.25000000 
0.05300    94459408.00000000 59369232.00000000 149771216.00000000 50709.80859375  4363937.50000000 3458900.50000000 
0.05400    92657272.00000000 58253068.00000000 146934544.00000000 49438.16796875  4266789.50000000 3382336.50000000 
0.05500    90868520.00000000 57144172.00000000 144116048.00000000 48183.47265625  4170643.50000000 3306527.50000000 
0.05600    89093576.00000000 56043832.00000000 141320976.00000000 46946.60156250  4075547.00000000 3231528.50000000 
0.05700    87333432.00000000 54952344.00000000 138550528.00000000 45728.55468750  3981579.00000000 3157420.00000000 
0.05800    85590328.00000000 53871380.00000000 135803632.00000000 44530.07031250  3888767.75000000 3084240.25000000 
0.05900    83864528.00000000 52801104.00000000 133087784.00000000 43352.40625000  3797226.50000000 3012028.00000000 
0.06000    82158328.00000000 51742404.00000000 130398768.00000000 42195.12109375  3707010.50000000 2940835.50000000 
0.06100    80472248.00000000 50695556.00000000 127741984.00000000 41059.95312500  3618152.00000000 2870726.75000000 
0.06200    78807344.00000000 49662168.00000000 125117664.00000000 39946.98437500  3530722.25000000 2801699.75000000 
0.06300    77164984.00000000 48641888.00000000 122528800.00000000 38856.85156250  3444741.25000000 2733835.25000000 
0.06400    75545480.00000000 47635504.00000000 119975216.00000000 37789.43359375  3360259.25000000 2667176.00000000 
0.06500    73950168.00000000 46643916.00000000 117459552.00000000 36746.26953125  3277352.75000000 2601686.25000000 
0.06600    72379008.00000000 45667480.00000000 114983184.00000000 35726.37109375  3196020.25000000 2537446.75000000 
0.06700    70833496.00000000 44706300.00000000 112545032.00000000 34730.67578125  3116291.75000000 2474452.25000000 
0.06800    69314512.00000000 43761344.00000000 110149112.00000000 33760.02343750  3038216.50000000 2412769.25000000 
0.06900    67822344.00000000 42832848.00000000 107794392.00000000 32813.36718750  2961798.00000000 2352383.00000000 
0.07000    66357424.00000000 41920780.00000000 105482560.00000000 31891.25781250  2887038.50000000 2293302.75000000 
0.07100    64920372.00000000 41026068.00000000 103214704.00000000 30994.05468750  2814013.00000000 2235558.75000000 
0.07200    63511572.00000000 40148468.00000000 100990280.00000000 30121.18750000  2742675.25000000 2179156.50000000 
0.07300    62131496.00000000 39288488.00000000 98811344.00000000 29272.83203125  2673055.00000000 2124094.50000000 
0.07400    60780320.00000000 38445796.00000000 96677680.00000000 28449.22460938  2605174.50000000 2070396.50000000 
0.07500    59457772.00000000 37621584.00000000 94588608.00000000 27649.80273438  2539004.00000000 2018038.50000000 
0.07600    58165284.00000000 36815012.00000000 92546696.00000000 26874.28710938  2474559.50000000 1967024.25000000 
0.07700    56902076.00000000 36027012.00000000 90550536.00000000 26122.59570312  2411827.00000000 1917375.87500000 
0.07800    55668324.00000000 35256920.00000000 88601560.00000000 25394.42968750  2350801.75000000 1869056.12500000 
0.07900    54464456.00000000 34504680.00000000 86698096.00000000 24689.49804688  2291458.75000000 1822067.50000000 
0.08000    53289708.00000000 33770924.00000000 84841704.00000000 24007.38867188  2233816.00000000 1776410.75000000 
0.08100    52145204.00000000 33055568.00000000 83031552.00000000 23347.59570312  2177840.75000000 1732060.12500000 
0.08200    51029548.00000000 32358128.00000000 81266880.00000000 22709.80468750  2123486.50000000 1688998.75000000 
0.08300    49943432.00000000 31678716.00000000 79549248.00000000 22093.55078125  2070774.50000000 1647216.87500000 
0.08400    48886412.00000000 31017460.00000000 77876512.00000000 21498.49023438  2019675.12500000 1606687.50000000 
0.08500    47857952.00000000 30373972.00000000 76249384.00000000 20923.89843750  1970126.00000000 1567399.37500000 
0.08600    46858268.00000000 29747822.00000000 74666456.00000000 20369.29882812  1922125.25000000 1529337.62500000 
0.08700    45886648.00000000 29139218.00000000 73128512.00000000 19834.21484375  1875655.12500000 1492468.50000000 
0.08800    44942616.00000000 28547912.00000000 71634152.00000000 19318.22460938  1830658.62500000 1456756.75000000 
0.08900    44026260.00000000 27973348.00000000 70183040.00000000 18820.41796875  1787119.62500000 1422193.25000000 
0.09000    43136840.00000000 27415692.00000000 68773720.00000000 18340.39453125  1744988.12500000 1388754.12500000 
0.09100    42273656.00000000 26874416.00000000 67406960.00000000 17877.65234375  1704246.75000000 1356400.37500000 
0.09200    41436876.00000000 26349184.00000000 66080296.00000000 17431.41992188  1664836.75000000 1325095.87500000 
0.09300    40625784.00000000 25839884.00000000 64795496.00000000 17001.26367188  1626741.62500000 1294833.37500000 
0.09400    39839160.00000000 25345910.00000000 63548160.00000000 16586.43359375  1589914.00000000 1265562.12500000 
0.09500    39077236.00000000 24867326.00000000 62339912.00000000 16186.47460938  1554309.50000000 1237258.00000000 
0.09600    38338864.00000000 24403358.00000000 61169220.00000000 15800.60839844  1519890.75000000 1209899.12500000 
0.09700    37623860.00000000 23953980.00000000 60036028.00000000 15428.41113281  1486623.00000000 1183446.00000000 
0.09800    36931400.00000000 23518534.00000000 58937016.00000000 15069.21093750  1454456.12500000 1157875.37500000 
0.09900    36260964.00000000 23096932.00000000 57873872.00000000 14722.47363281  1423368.12500000 1133145.62500000 
0.10000    35611792.00000000 22688534.00000000 56843884.00000000 14387.54003906  1393303.62500000 1109218.37500000 
0.10100    34983256.00000000 22293048.00000000 55846664.00000000 14063.88671875  1364222.75000000 1086078.87500000 
0.10200    34374684.00000000 21910182.00000000 54880916.00000000 13750.87109375  1336086.12500000 1063680.75000000 
0.10300    33785740.00000000 21539286.00000000 53945884.00000000 13448.10644531  1308849.62500000 1042007.87500000 
0.10400    33215196.00000000 21180148.00000000 53040728.00000000 13154.94238281  1282480.50000000 1021008.87500000 
0.10500    32662782.00000000 20832326.00000000 52163812.00000000 12871.03710938  1256945.50000000 1000679.06250000 
0.10600    32127694.00000000 20495252.00000000 51314212.00000000 12595.59765625  1232190.37500000 980963.56250000 
0.10700    31609312.00000000 20168714.00000000 50491140.00000000 12328.44238281  1208180.25000000 961841.43750000 
0.10800    31106832.00000000 19852172.00000000 49693352.00000000 12068.91894531  1184887.50000000 943286.62500000 
0.10900    30619976.00000000 19545202.00000000 48920192.00000000 11816.50292969  1162264.00000000 925260.62500000 
0.11000    30147546.00000000 19247596.00000000 48170000.00000000 11571.04101562  1140289.12500000 907758.62500000 
0.11100    29689188.00000000 18958870.00000000 47441988.00000000 11331.95410156  1118911.87500000 890728.62500000 
0.11200    29244372.00000000 18678374.00000000 46735408.00000000 11098.91894531  1098119.00000000 874156.81250000 
0.11300    28812048.00000000 18406052.00000000 46049196.00000000 10871.46777344  1077848.12500000 858009.87500000 
0.11400    28392058.00000000 18141420.00000000 45382348.00000000 10649.36914062  1058109.87500000 842275.37500000 
0.11500    27983662.00000000 17884002.00000000 44733332.00000000 10432.21093750  1038835.81250000 826916.50000000 
0.11600    27586084.00000000 17633400.00000000 44102296.00000000 10219.70312500  1020013.81250000 811923.25000000 
0.11700    27199082.00000000 17389698.00000000 43487524.00000000 10011.55371094  1001623.00000000 797264.37500000 
0.11800    26821498.00000000 17151734.00000000 42888436.00000000 9807.51953125   983615.12500000 782918.56250000 
0.11900    26453436.00000000 16919996.00000000 42303752.00000000 9607.30761719   965989.18750000 768866.12500000 
0.12000    26093958.00000000 16693673.00000000 41733060.00000000 9410.63378906   948701.50000000 755094.68750000 
0.12100    25742942.00000000 16472604.00000000 41176120.00000000 9217.50000000   931750.62500000 741580.12500000 
0.12200    25399438.00000000 16256387.00000000 40630844.00000000 9027.52148438   915096.50000000 728312.93750000 
0.12300    25063334.00000000 16044780.00000000 40097108.00000000 8840.56347656   898733.00000000 715269.62500000 
0.12400    24733800.00000000 15837405.00000000 39574416.00000000 8656.48632812   882628.00000000 702441.25000000 
0.12500    24410752.00000000 15634097.00000000 39061544.00000000 8475.10644531   866774.25000000 689804.75000000 
0.12600    24093680.00000000 15434686.00000000 38558380.00000000 8296.42871094   851160.00000000 677358.12500000 
0.12700    23782018.00000000 15238683.00000000 38064028.00000000 8120.12011719   835755.25000000 665090.06250000 
0.12800    23475364.00000000 15045928.00000000 37577792.00000000 7946.32421875   820553.31250000 652977.18750000 
0.12900    23173606.00000000 14856270.00000000 37098956.00000000 7774.74609375   805551.43750000 641023.12500000 
0.13000    22876294.00000000 14669321.00000000 36627456.00000000 7605.50585938   790723.31250000 629210.93750000 
0.13100    22583122.00000000 14485067.00000000 36162528.00000000 7438.37207031   776067.06250000 617529.81250000 
0.13200    22293766.00000000 14303260.00000000 35703588.00000000 7273.38281250   761577.25000000 605985.93750000 
0.13300    22007976.00000000 14123672.00000000 35250348.00000000 7110.54687500   747236.37500000 594560.43750000 
0.13400    21725318.00000000 13946226.00000000 34802428.00000000 6949.81884766   733041.68750000 583248.06250000 
0.13500    21445794.00000000 13770612.00000000 34358892.00000000 6791.14013672   718985.75000000 572052.12500000 
0.13600    21168968.00000000 13596780.00000000 33920144.00000000 6634.52197266   705074.56250000 560964.18750000 
0.13700    20894816.00000000 13424520.00000000 33485460.00000000 6480.00439453   691289.12500000 549976.00000000 
0.13800    20623128.00000000 13253864.00000000 33054618.00000000 6327.47656250   677629.87500000 539090.62500000 
0.13900    20353420.00000000 13084610.00000000 32627236.00000000 6177.08349609   664098.56250000 528309.25000000 
0.14000    20086024.00000000 12916585.00000000 32203310.00000000 6028.81640625   650691.00000000 517622.68750000 
0.14100    19820710.00000000 12749843.00000000 31782170.00000000 5882.66308594   637404.75000000 507031.93750000 
0.14200    19556988.00000000 12584148.00000000 31364098.00000000 5738.66992188   624242.18750000 496540.09375000 
0.14300    19294976.00000000 12419520.00000000 30948712.00000000 5596.87841797   611201.93750000 486140.87500000 
0.14400    19034308.00000000 12255892.00000000 30535720.00000000 5457.25439453   598280.37500000 475839.75000000 
0.14500    18775716.00000000 12093235.00000000 30125214.00000000 5319.94775391   585489.37500000 465638.68750000 
0.14600    18518272.00000000 11931502.00000000 29717002.00000000 5184.93017578   572821.93750000 455535.00000000 
0.14700    18262370.00000000 11770475.00000000 29310788.00000000 5052.23876953   560284.37500000 445533.71875000 
0.14800    18007804.00000000 11610344.00000000 28907092.00000000 4921.86279297   547870.37500000 435633.43750000 
0.14900    17754518.00000000 11450978.00000000 28505028.00000000 4793.92041016   535597.75000000 425835.75000000 
0.15000    17502594.00000000 11292442.00000000 28105346.00000000 4668.39843750   523455.28125000 416142.56250000 
0.15100    17252030.00000000 11134605.00000000 27707408.00000000 4545.32128906   511446.78125000 406559.31250000 
0.15200    17002904.00000000 10977626.00000000 27311766.00000000 4424.78662109   499592.59375000 397092.31250000 
0.15300    16754768.00000000 10821327.00000000 26918016.00000000 4306.71142578   487876.56250000 387738.50000000 
0.15400    16508288.00000000 10665778.00000000 26526296.00000000 4191.17333984   476307.28125000 378497.43750000 
0.15500    16263164.00000000 10511153.00000000 26136534.00000000 4078.21240234   464891.68750000 369377.34375000 
0.15600    16019404.00000000 10357164.00000000 25749158.00000000 3967.87329102   453628.59375000 360377.59375000 
0.15700    15777136.00000000 10204105.00000000 25364046.00000000 3860.11645508   442528.18750000 351506.03125000 
0.15800    15536227.00000000 10051833.00000000 24980836.00000000 3754.92382812   431586.93750000 342758.59375000 
0.15900    15296951.00000000 9900561.00000000 24600214.00000000 3652.39916992   420815.25000000 334145.03125000 
0.16000    15059237.00000000 9750088.00000000 24221760.00000000 3552.46606445   410206.28125000 325662.00000000 
0.16100    14823256.00000000 9600660.00000000 23846186.00000000 3455.16186523   399776.06250000 317315.65625000 
0.16200    14588933.00000000 9452095.00000000 23473024.00000000 3360.49365234   389516.96875000 309107.31250000 
0.16300    14356261.00000000 9304568.00000000 23102502.00000000 3268.41552734   379436.31250000 301037.28125000 
0.16400    14125522.00000000 9158068.00000000 22734608.00000000 3178.93627930   369534.62500000 293113.34375000 
0.16500    13896607.00000000 9012704.00000000 22369794.00000000 3092.04516602   359816.00000000 285329.15625000 
0.16600    13669768.00000000 8868476.00000000 22008014.00000000 3007.71899414   350281.40625000 277693.06250000 
0.16700    13444748.00000000 8725393.00000000 21649004.00000000 2925.89379883   340929.71875000 270201.87500000 
0.16800    13221930.00000000 8583457.00000000 21293392.00000000 2846.59008789   331766.28125000 262859.81250000 
0.16900    13001255.00000000 8442884.00000000 20941042.00000000 2769.80395508   322795.56250000 255669.43750000 
0.17000    12782767.00000000 8303518.50000000 20592010.00000000 2695.42456055   314014.75000000 248628.25000000 
