# SAXS profile: number of points = 501, q_min = 0, q_max = 0.5, delta_q = 0.001
#    q    intensity 
0.00000    162238464.00000000 101201784.00000000 256272240.00000000 98395.72656250  7990913.50000000 6311199.00000000 
0.00100    162215520.00000000 101187368.00000000 256235744.00000000 98376.14062500  7989553.50000000 6310116.00000000 
0.00200    162146176.00000000 101144696.00000000 256125936.00000000 98317.99218750  7985434.50000000 6306889.00000000 
0.00300    162030656.00000000 101073200.00000000 255944896.00000000 98221.10156250  7978583.00000000 6301555.50000000 
0.00400    161868912.00000000 100973736.00000000 255690256.00000000 98085.71093750  7969052.00000000 6294065.50000000 
0.00500    161659792.00000000 100845352.00000000 255363152.00000000 97912.26562500  7956801.00000000 6284454.00000000 
0.00600    161404832.00000000 100688928.00000000 254963008.00000000 97700.26562500  7941866.00000000 6272721.00000000 
0.00700    161104144.00000000 100504880.00000000 254492096.00000000 97450.10156250  7924220.50000000 6258891.50000000 
0.00800    160757872.00000000 100291672.00000000 253949648.00000000 97162.38281250  7903936.50000000 6242957.00000000 
0.00900    160366336.00000000 100051456.00000000 253336768.00000000 96837.30468750  7880977.50000000 6224946.00000000 
0.01000    159929152.00000000 99784136.00000000 252652848.00000000 96475.20312500  7855399.00000000 6204891.00000000 
0.01100    159447280.00000000 99489112.00000000 251899248.00000000 96076.47656250  7827220.50000000 6182781.50000000 
0.01200    158921824.00000000 99166688.00000000 251076512.00000000 95641.20312500  7796453.50000000 6158654.50000000 
0.01300    158353664.00000000 98818240.00000000 250184544.00000000 95170.76562500  7763166.50000000 6132539.00000000 
0.01400    157741312.00000000 98442144.00000000 249226112.00000000 94664.91406250  7727361.50000000 6104446.50000000 
0.01500    157087024.00000000 98040392.00000000 248199744.00000000 94124.14843750  7689079.00000000 6074403.50000000 
0.01600    156390736.00000000 97612096.00000000 247107712.00000000 93549.29687500  7648351.00000000 6042440.50000000 
0.01700    155651216.00000000 97158808.00000000 245950912.00000000 92941.04687500  7605233.00000000 6008594.50000000 
0.01800    154872400.00000000 96680480.00000000 244728240.00000000 92299.71875000  7559743.00000000 5972903.50000000 
0.01900    154052400.00000000 96176728.00000000 243443568.00000000 91626.59375000  7511937.00000000 5935386.50000000 
0.02000    153192112.00000000 95648856.00000000 242096400.00000000 90922.08593750  7461825.00000000 5896102.50000000 
0.02100    152293952.00000000 95096944.00000000 240688656.00000000 90186.77343750  7409548.00000000 5855042.50000000 
0.02200    151356912.00000000 94522088.00000000 239219568.00000000 89421.85156250  7355051.50000000 5812245.50000000 
0.02300    150382960.00000000 93923776.00000000 237693296.00000000 88627.50000000  7298441.00000000 5767842.00000000 
0.02400    149372464.00000000 93303016.00000000 236108928.00000000 87805.01562500  7239767.50000000 5721755.00000000 
0.02500    148326000.00000000 92659872.00000000 234468432.00000000 86955.11718750  7179070.00000000 5674132.00000000 
0.02600    147243696.00000000 91995744.00000000 232772032.00000000 86078.92187500  7116412.00000000 5624933.00000000 
0.02700    146129088.00000000 91309776.00000000 231023904.00000000 85176.71093750  7051841.50000000 5574241.00000000 
0.02800    144980528.00000000 90604208.00000000 229222208.00000000 84250.00781250  6985430.50000000 5522091.50000000 
0.02900    143798416.00000000 89878576.00000000 227370688.00000000 83300.02343750  6917245.50000000 5468538.50000000 
0.03000    142586768.00000000 89133264.00000000 225469744.00000000 82326.50781250  6847315.00000000 5413645.00000000 
0.03100    141343904.00000000 88369376.00000000 223521088.00000000 81331.49218750  6775734.00000000 5357434.00000000 
0.03200    140071360.00000000 87587664.00000000 221526464.00000000 80316.28125000  6702542.50000000 5299954.00000000 
0.03300    138771696.00000000 86787800.00000000 219486448.00000000 79280.93750000  6627845.50000000 5241291.00000000 
0.03400    137443824.00000000 85971048.00000000 217403728.00000000 78227.01562500  6551669.50000000 5181474.00000000 
0.03500    136089584.00000000 85138384.00000000 215279776.00000000 77155.27343750  6474104.00000000 5120534.00000000 
0.03600    134710544.00000000 84289952.00000000 213116592.00000000 76067.25000000  6395214.50000000 5058556.00000000 
0.03700    133306688.00000000 83426728.00000000 210914768.00000000 74963.14062500  6315075.50000000 4995579.50000000 
0.03800    131880616.00000000 82548488.00000000 208675760.00000000 73844.93750000  6233711.50000000 4931655.50000000 
0.03900    130431768.00000000 81656792.00000000 206403408.00000000 72713.54687500  6151242.50000000 4866847.00000000 
0.04000    128962072.00000000 80752168.00000000 204096480.00000000 71569.47656250  6067751.00000000 4801230.50000000 
0.04100    127472632.00000000 79834768.00000000 201759072.00000000 70414.06250000  5983230.50000000 4734808.00000000 
0.04200    125964600.00000000 78906464.00000000 199392496.00000000 69248.58593750  5897842.00000000 4667660.00000000 
0.04300    124438688.00000000 77966904.00000000 196997040.00000000 68074.01562500  5811590.50000000 4599882.50000000 
0.04400    122896544.00000000 77016400.00000000 194576192.00000000 66891.35156250  5724565.00000000 4531471.00000000 
0.04500    121338728.00000000 76056728.00000000 192131344.00000000 65701.99218750  5636875.50000000 4462494.00000000 
0.04600    119766792.00000000 75088560.00000000 189662592.00000000 64506.61328125  5548551.50000000 4393048.00000000 
0.04700    118181768.00000000 74111248.00000000 187174192.00000000 63306.47656250  5459644.50000000 4323127.50000000 
0.04800    116584688.00000000 73126728.00000000 184665680.00000000 62102.28906250  5370272.50000000 4252835.00000000 
0.04900    114976984.00000000 72134824.00000000 182140256.00000000 60895.67968750  5280502.00000000 4182203.00000000 
0.05000    113359512.00000000 71137096.00000000 179598032.00000000 59687.54296875  5190370.50000000 4111274.00000000 
0.05100    111732936.00000000 70133592.00000000 177044144.00000000 58477.98046875  5099973.50000000 4040145.75000000 
0.05200    110098720.00000000 69125680.00000000 174476960.00000000 57269.35546875  5009348.50000000 3968838.00000000 
0.05300    108458736.00000000 68113480.00000000 171899536.00000000 56062.23437500  4918592.00000000 3897409.25000000 
0.05400    106812480.00000000 67097640.00000000 169313360.00000000 54856.68750000  4827759.00000000 3825920.00000000 
0.05500    105162784.00000000 66078516.00000000 166719712.00000000 53654.84765625  4736955.00000000 3754408.75000000 
0.05600    103509568.00000000 65057240.00000000 164120896.00000000 52456.81250000  4646157.00000000 3682915.50000000 
0.05700    101854440.00000000 64034616.00000000 161518272.00000000 51264.33593750  4555487.50000000 3611531.50000000 
0.05800    100197680.00000000 63011024.00000000 158914368.00000000 50077.33984375  4465034.00000000 3540287.00000000 
0.05900    98541352.00000000 61986880.00000000 156309792.00000000 48897.37890625  4374835.50000000 3469223.25000000 
0.06000    96885848.00000000 60963244.00000000 153704928.00000000 47725.08984375  4284886.00000000 3398377.25000000 
0.06100    95232520.00000000 59940364.00000000 151105024.00000000 46561.58984375  4195363.50000000 3327822.00000000 
0.06200    93581632.00000000 58919296.00000000 148507424.00000000 45406.98046875  4106243.25000000 3257587.75000000 
0.06300    91935480.00000000 57900304.00000000 145916528.00000000 44262.71484375  4017606.50000000 3187723.00000000 
0.06400    90293184.00000000 56883788.00000000 143332720.00000000 43129.23437500  3929508.75000000 3118272.75000000 
0.06500    88657576.00000000 55870976.00000000 140757760.00000000 42007.08203125  3842003.75000000 3049259.00000000 
0.06600    87027880.00000000 54861748.00000000 138194000.00000000 40897.45312500  3755146.75000000 2980770.25000000 
0.06700    85406384.00000000 53856916.00000000 135640496.00000000 39800.77343750  3668957.50000000 2912802.00000000 
0.06800    83793136.00000000 52857216.00000000 133100368.00000000 38717.44531250  3583533.75000000 2845390.00000000 
0.06900    82189696.00000000 51862628.00000000 130574416.00000000 37648.53906250  3498896.75000000 2778615.25000000 
0.07000    80595928.00000000 50874320.00000000 128064664.00000000 36594.13671875  3415100.50000000 2712476.25000000 
0.07100    79013048.00000000 49892228.00000000 125570976.00000000 35555.20312500  3332183.00000000 2647020.25000000 
0.07200    77442520.00000000 48917188.00000000 123095680.00000000 34531.73046875  3250171.50000000 2582290.00000000 
0.07300    75883984.00000000 47950004.00000000 120639480.00000000 33524.89843750  3169134.00000000 2518288.75000000 
0.07400    74338864.00000000 46990216.00000000 118203976.00000000 32534.87695312  3089090.75000000 2455056.25000000 
0.07500    72807776.00000000 46038792.00000000 115789712.00000000 31562.08593750  3010103.75000000 2392655.00000000 
0.07600    71291160.00000000 45096244.00000000 113397912.00000000 30606.60937500  2932175.75000000 2331086.50000000 
0.07700    69789880.00000000 44162556.00000000 111030632.00000000 29669.21289062  2855350.50000000 2270375.00000000 
0.07800    68304152.00000000 43238776.00000000 108687240.00000000 28750.08984375  2779663.50000000 2210526.75000000 
0.07900    66835376.00000000 42324692.00000000 106369536.00000000 27849.53906250  2705141.50000000 2151616.50000000 
0.08000    65383516.00000000 41421024.00000000 104078624.00000000 26967.81640625  2631805.75000000 2093609.50000000 
0.08100    63949156.00000000 40527916.00000000 101814552.00000000 26105.18359375  2559703.75000000 2036570.25000000 
0.08200    62533220.00000000 39645664.00000000 99578304.00000000 25261.75781250  2488830.50000000 1980491.25000000 
0.08300    61135456.00000000 38774580.00000000 97372320.00000000 24437.93164062  2419219.00000000 1925402.75000000 
0.08400    59757232.00000000 37915312.00000000 95195256.00000000 23633.58203125  2350878.50000000 1871317.50000000 
0.08500    58398476.00000000 37067724.00000000 93048504.00000000 22849.19726562  2283859.25000000 1818240.37500000 
0.08600    57059480.00000000 36231920.00000000 90932864.00000000 22084.57031250  2218142.25000000 1766190.37500000 
0.08700    55740972.00000000 35408904.00000000 88849192.00000000 21339.88281250  2153776.75000000 1715188.87500000 
0.08800    54442928.00000000 34598212.00000000 86797024.00000000 20615.04296875  2090717.00000000 1665234.50000000 
0.08900    53165936.00000000 33800228.00000000 84778048.00000000 19910.21875000  2029044.87500000 1616334.62500000 
0.09000    51910320.00000000 33014988.00000000 82792088.00000000 19225.34960938  1968712.12500000 1568509.12500000 
0.09100    50675944.00000000 32243224.00000000 80840064.00000000 18560.36132812  1909754.25000000 1521741.25000000 
0.09200    49463588.00000000 31484356.00000000 78921536.00000000 17915.19726562  1852150.50000000 1476054.37500000 
0.09300    48273112.00000000 30739166.00000000 77037192.00000000 17289.70507812  1795954.00000000 1431455.00000000 
0.09400    47104796.00000000 30007400.00000000 75188160.00000000 16683.78906250  1741113.12500000 1387922.87500000 
0.09500    45958852.00000000 29289326.00000000 73373856.00000000 16097.37500000  1687650.50000000 1345478.00000000 
0.09600    44835424.00000000 28584966.00000000 71594144.00000000 15530.19726562  1635566.75000000 1304107.25000000 
0.09700    43734552.00000000 27894260.00000000 69850832.00000000 14982.28027344  1584860.25000000 1263817.87500000 
0.09800    42656304.00000000 27217634.00000000 68142168.00000000 14453.14746094  1535510.00000000 1224604.50000000 
0.09900    41601036.00000000 26554878.00000000 66469196.00000000 13942.77441406  1487533.62500000 1186456.87500000 
0.10000    40568356.00000000 25906038.00000000 64831820.00000000 13450.73925781  1440901.50000000 1149379.75000000 
0.10100    39558352.00000000 25270972.00000000 63230112.00000000 12976.82617188  1395613.00000000 1113355.50000000 
0.10200    38571024.00000000 24650184.00000000 61664180.00000000 12520.83984375  1351666.87500000 1078370.37500000 
0.10300    37606640.00000000 24043108.00000000 60133888.00000000 12082.47167969  1309030.50000000 1044440.75000000 
0.10400    36664664.00000000 23450178.00000000 58639112.00000000 11661.33300781  1267718.50000000 1011533.50000000 
0.10500    35745760.00000000 22870984.00000000 57179680.00000000 11257.23242188  1227700.25000000 979656.50000000 
0.10600    34848968.00000000 22305624.00000000 55755080.00000000 10869.51953125  1188950.87500000 948771.37500000 
0.10700    33974732.00000000 21754182.00000000 54366544.00000000 10498.22265625  1151466.00000000 918896.75000000 
0.10800    33122552.00000000 21216340.00000000 53012244.00000000 10142.72656250  1115222.25000000 889997.12500000 
0.10900    32292426.00000000 20692098.00000000 51692708.00000000 9802.73437500   1080213.25000000 862066.62500000 
0.11000    31484088.00000000 20181462.00000000 50407768.00000000 9477.80273438   1046407.68750000 835090.12500000 
0.11100    30697742.00000000 19684136.00000000 49156748.00000000 9167.59863281   1013793.50000000 809046.75000000 
0.11200    29932660.00000000 19200058.00000000 47939848.00000000 8871.66015625   982343.50000000 783924.25000000 
0.11300    29188798.00000000 18729134.00000000 46755980.00000000 8589.69238281   952029.93750000 759710.43750000 
0.11400    28465932.00000000 18271284.00000000 45605288.00000000 8321.10156250   922839.93750000 736382.43750000 
0.11500    27764080.00000000 17826230.00000000 44487176.00000000 8065.70361328   894748.31250000 713914.12500000 
0.11600    27082364.00000000 17393940.00000000 43401324.00000000 7822.85498047   867730.43750000 692306.12500000 
0.11700    26420812.00000000 16974258.00000000 42347496.00000000 7592.29150391   841754.81250000 671517.75000000 
0.11800    25779308.00000000 16566686.00000000 41324480.00000000 7373.34863281   816808.62500000 651546.06250000 
0.11900    25157066.00000000 16171436.00000000 40332600.00000000 7165.84570312   792856.87500000 632364.12500000 
0.12000    24554166.00000000 15788002.00000000 39371016.00000000 6969.21386719   769870.87500000 613944.50000000 
0.12100    23970426.00000000 15416552.00000000 38439360.00000000 6783.07568359   747836.62500000 596285.43750000 
0.12200    23404978.00000000 15056485.00000000 37536860.00000000 6606.98193359   726717.00000000 579347.18750000 
0.12300    22857736.00000000 14707878.00000000 36663180.00000000 6440.45214844   706488.93750000 563122.50000000 
0.12400    22328248.00000000 14370401.00000000 35817736.00000000 6283.17431641   687120.50000000 547578.25000000 
0.12500    21816286.00000000 14043660.00000000 34999708.00000000 6134.59521484   668591.56250000 532703.37500000 
0.12600    21321352.00000000 13727813.00000000 34208772.00000000 5994.41406250   650877.37500000 518474.46875000 
0.12700    20843038.00000000 13422367.00000000 33444146.00000000 5862.06884766   633934.68750000 504868.65625000 
0.12800    20381166.00000000 13127014.00000000 32705406.00000000 5737.32128906   617750.93750000 491857.87500000 
0.12900    19935208.00000000 12841781.00000000 31992034.00000000 5619.70703125   602297.31250000 479430.68750000 
0.13000    19504670.00000000 12566240.00000000 31303004.00000000 5508.75097656   587537.68750000 467561.03125000 
0.13100    19089240.00000000 12300162.00000000 30637918.00000000 5404.10449219   573449.12500000 456225.68750000 
0.13200    18688462.00000000 12043369.00000000 29996210.00000000 5305.42968750   560010.75000000 445406.03125000 
0.13300    18302050.00000000 11795643.00000000 29377524.00000000 5212.35742188   547183.68750000 435081.90625000 
0.13400    17929408.00000000 11556534.00000000 28780394.00000000 5124.44873047   534954.25000000 425231.65625000 
0.13500    17570206.00000000 11326030.00000000 28204782.00000000 5041.37792969   523287.03125000 415835.03125000 
0.13600    17224188.00000000 11103738.00000000 27650026.00000000 4962.82568359   512160.00000000 406867.75000000 
0.13700    16890796.00000000 10889454.00000000 27115376.00000000 4888.47216797   501547.93750000 398313.53125000 
0.13800    16569519.00000000 10682916.00000000 26600154.00000000 4817.95703125   491419.03125000 390149.93750000 
0.13900    16260096.00000000 10483889.00000000 26103730.00000000 4750.94287109   481757.50000000 382361.37500000 
0.14000    15962112.00000000 10292130.00000000 25625608.00000000 4687.21826172   472535.28125000 374928.28125000 
0.14100    15675148.00000000 10107402.00000000 25164916.00000000 4626.38671875   463730.09375000 367829.93750000 
0.14200    15398832.00000000 9929362.00000000 24721318.00000000 4568.15576172   455312.90625000 361044.65625000 
0.14300    15132638.00000000 9757914.00000000 24294080.00000000 4512.33740234   447267.65625000 354557.56250000 
0.14400    14876219.00000000 9592640.00000000 23882402.00000000 4458.63378906   439565.81250000 348348.62500000 
0.14500    14629518.00000000 9433537.00000000 23485862.00000000 4406.82421875   432193.18750000 342408.21875000 
0.14600    14391592.00000000 9280122.00000000 23103828.00000000 4356.67382812   425123.34375000 336712.71875000 
0.14700    14162483.00000000 9132392.00000000 22735688.00000000 4307.93310547   418338.68750000 331249.65625000 
0.14800    13941577.00000000 8989884.00000000 22381094.00000000 4260.39306641   411818.78125000 325998.93750000 
0.14900    13728645.00000000 8852520.00000000 22038824.00000000 4213.81591797   405538.68750000 320946.28125000 
0.15000    13523265.00000000 8720009.00000000 21708992.00000000 4168.14111328   399484.15625000 316074.25000000 
0.15100    13325112.00000000 8592189.00000000 21390630.00000000 4123.01367188   393641.68750000 311378.50000000 
0.15200    13133915.00000000 8468894.00000000 21083432.00000000 4078.46972656   387992.46875000 306839.43750000 
0.15300    12949260.00000000 8349762.00000000 20786856.00000000 4034.18994141   382513.46875000 302440.75000000 
0.15400    12770683.00000000 8234634.50000000 20499986.00000000 3990.14208984   377192.25000000 298171.21875000 
0.15500    12598104.00000000 8123351.00000000 20222760.00000000 3946.14843750   372014.75000000 294020.71875000 
0.15600    12431003.00000000 8015721.00000000 19954644.00000000 3902.06542969   366964.78125000 289977.31250000 
0.15700    12269328.00000000 7911526.00000000 19694890.00000000 3857.87109375   362035.59375000 286030.50000000 
0.15800    12112505.00000000 7810517.50000000 19443236.00000000 3813.36865234   357199.50000000 282166.03125000 
0.15900    11960339.00000000 7712652.00000000 19199124.00000000 3768.56762695   352456.34375000 278377.43750000 
0.16000    11812560.00000000 7617612.50000000 18962228.00000000 3723.33398438   347793.50000000 274654.78125000 
0.16100    11669008.00000000 7525359.50000000 18731966.00000000 3677.64135742   343196.09375000 270989.12500000 
0.16200    11529289.00000000 7435637.50000000 18507994.00000000 3631.39331055   338651.75000000 267370.06250000 
0.16300    11393217.00000000 7348255.00000000 18289906.00000000 3584.56518555   334158.21875000 263791.68750000 
0.16400    11260480.00000000 7263179.50000000 18077356.00000000 3537.12963867   329700.59375000 260248.50000000 
0.16500    11130894.00000000 7180171.00000000 17869950.00000000 3489.05517578   325271.09375000 256729.54687500 
0.16600    11004201.00000000 7099121.00000000 17667304.00000000 3440.32812500   320865.59375000 253230.65625000 
0.16700    10880182.00000000 7019848.50000000 17468796.00000000 3390.89648438   316470.93750000 249743.53125000 
0.16800    10758639.00000000 6942191.50000000 17274670.00000000 3340.78955078   312083.46875000 246265.53125000 
0.16900    10639497.00000000 6866132.50000000 17084244.00000000 3290.04223633   307703.90625000 242793.89062500 
0.17000    10522332.00000000 6791508.00000000 16897198.00000000 3238.61108398   303316.50000000 239319.79687500 
