# SAXS profile: number of points = 501, q_min = 0, q_max = 0.5, delta_q = 0.001
#    q    intensity 
0.00000    162234128.00000000 101201536.00000000 256270944.00000000 99708.25000000  8044025.00000000 6353153.50000000 
0.00100    162202080.00000000 101179696.00000000 256214848.00000000 99679.95312500  8042047.00000000 6351546.00000000 
0.00200    162098768.00000000 101114344.00000000 256050256.00000000 99597.13281250  8035986.50000000 6346847.00000000 
0.00300    161925824.00000000 101005960.00000000 255772336.00000000 99459.00781250  8026005.00000000 6338997.00000000 
0.00400    161679632.00000000 100853728.00000000 255385648.00000000 99266.53125000  8012034.00000000 6327991.00000000 
0.00500    161361392.00000000 100659016.00000000 254888352.00000000 99018.78125000  7994110.00000000 6313867.50000000 
0.00600    160973856.00000000 100419736.00000000 254281152.00000000 98718.11718750  7972259.00000000 6296659.50000000 
0.00700    160519696.00000000 100139456.00000000 253567216.00000000 98363.10156250  7946519.00000000 6276476.00000000 
0.00800    159991712.00000000 99817520.00000000 252748368.00000000 97955.72656250  7916954.00000000 6253216.00000000 
0.00900    159402448.00000000 99454216.00000000 251820784.00000000 97495.89843750  7883628.50000000 6226998.50000000 
0.01000    158745744.00000000 99050344.00000000 250788816.00000000 96985.62500000  7846526.50000000 6197825.50000000 
0.01100    158025888.00000000 98605640.00000000 249656416.00000000 96424.99218750  7805779.00000000 6165782.00000000 
0.01200    157241632.00000000 98120752.00000000 248420192.00000000 95814.84375000  7761417.50000000 6130900.50000000 
0.01300    156390624.00000000 97596904.00000000 247088672.00000000 95157.20312500  7713582.50000000 6093263.50000000 
0.01400    155479200.00000000 97034064.00000000 245656096.00000000 94452.64062500  7662258.00000000 6052921.00000000 
0.01500    154507520.00000000 96434784.00000000 244131824.00000000 93703.19531250  7607612.00000000 6009941.50000000 
0.01600    153479472.00000000 95800168.00000000 242513104.00000000 92909.23437500  7549736.50000000 5964403.00000000 
0.01700    152391008.00000000 95129488.00000000 240803824.00000000 92073.10937500  7488636.50000000 5916400.00000000 
0.01800    151247248.00000000 94423544.00000000 239007152.00000000 91195.58593750  7424516.50000000 5865909.50000000 
0.01900    150050400.00000000 93683928.00000000 237126800.00000000 90278.53125000  7357436.00000000 5813211.50000000 
0.02000    148798928.00000000 92913024.00000000 235162896.00000000 89323.85156250  7287521.50000000 5758166.00000000 
0.02100    147499632.00000000 92110248.00000000 233119904.00000000 88332.95312500  7214892.50000000 5701003.50000000 
0.02200    146149744.00000000 91277592.00000000 230999936.00000000 87308.20312500  7139617.00000000 5641800.50000000 
0.02300    144754432.00000000 90415368.00000000 228804864.00000000 86250.02343750  7061893.00000000 5580660.00000000 
0.02400    143313728.00000000 89525560.00000000 226540800.00000000 85162.05468750  6981741.50000000 5517616.00000000 
0.02500    141830912.00000000 88609376.00000000 224208208.00000000 84043.85156250  6899396.50000000 5452754.50000000 
0.02600    140306544.00000000 87668128.00000000 221812560.00000000 82899.04687500  6814936.00000000 5386319.50000000 
0.02700    138743904.00000000 86702064.00000000 219354800.00000000 81729.04687500  6728497.00000000 5318235.50000000 
0.02800    137144880.00000000 85713200.00000000 216841216.00000000 80536.12500000  6640164.50000000 5248693.50000000 
0.02900    135510992.00000000 84703728.00000000 214272416.00000000 79321.90625000  6550103.50000000 5177826.50000000 
0.03000    133846128.00000000 83673648.00000000 211652976.00000000 78088.01562500  6458495.00000000 5105709.00000000 
0.03100    132151104.00000000 82625248.00000000 208985984.00000000 76836.74218750  6365370.00000000 5032411.00000000 
0.03200    130428256.00000000 81559440.00000000 206276368.00000000 75570.30468750  6270986.00000000 4958069.50000000 
0.03300    128679280.00000000 80476904.00000000 203525296.00000000 74290.12500000  6175400.50000000 4882791.00000000 
0.03400    126908376.00000000 79379512.00000000 200737600.00000000 72997.50000000  6078723.50000000 4806666.00000000 
0.03500    125116320.00000000 78269888.00000000 197916576.00000000 71695.21093750  5981171.00000000 4729806.50000000 
0.03600    123304408.00000000 77148608.00000000 195065856.00000000 70385.92968750  5882813.00000000 4652363.50000000 
0.03700    121476376.00000000 76016816.00000000 192187680.00000000 69070.22656250  5783783.50000000 4574321.50000000 
0.03800    119634176.00000000 74875704.00000000 189288368.00000000 67749.99218750  5684190.00000000 4495884.50000000 
0.03900    117779456.00000000 73726016.00000000 186367664.00000000 66427.60937500  5584243.50000000 4417128.50000000 
0.04000    115915160.00000000 72569496.00000000 183429408.00000000 65103.89453125  5483941.50000000 4338132.50000000 
0.04100    114042336.00000000 71407648.00000000 180480944.00000000 63781.15234375  5383509.50000000 4258935.50000000 
0.04200    112163880.00000000 70241848.00000000 177521280.00000000 62460.91796875  5283063.50000000 4179735.00000000 
0.04300    110280736.00000000 69073768.00000000 174555872.00000000 61144.68750000  5182597.50000000 4100555.25000000 
0.04400    108397000.00000000 67904472.00000000 171585472.00000000 59833.85546875  5082346.50000000 4021533.50000000 
0.04500    106512952.00000000 66734004.00000000 168617056.00000000 58530.39843750  4982415.00000000 3942724.75000000 
0.04600    104630576.00000000 65564780.00000000 165648864.00000000 57235.36718750  4882832.00000000 3864208.50000000 
0.04700    102752520.00000000 64397396.00000000 162688496.00000000 55949.83593750  4783795.00000000 3786082.25000000 
0.04800    100879736.00000000 63233672.00000000 159734832.00000000 54675.96875000  4685338.00000000 3708416.25000000 
0.04900    99014600.00000000 62073884.00000000 156793712.00000000 53413.92968750  4587525.50000000 3631265.50000000 
0.05000    97158752.00000000 60919452.00000000 153865120.00000000 52165.69140625  4490519.50000000 3554732.25000000 
0.05100    95312592.00000000 59771356.00000000 150955136.00000000 50931.87500000  4394380.00000000 3478844.75000000 
0.05200    93479880.00000000 58630536.00000000 148062848.00000000 49713.64843750  4299157.00000000 3403705.00000000 
0.05300    91660888.00000000 57497944.00000000 145192320.00000000 48512.08203125  4204966.50000000 3329359.00000000 
0.05400    89856888.00000000 56374436.00000000 142343856.00000000 47327.54296875  4111883.75000000 3255859.50000000 
0.05500    88069272.00000000 55261228.00000000 139522800.00000000 46161.74218750  4019944.50000000 3183287.00000000 
0.05600    86300080.00000000 54158224.00000000 136728928.00000000 45014.40234375  3929201.00000000 3111629.00000000 
0.05700    84550584.00000000 53067676.00000000 133966600.00000000 43887.22656250  3839787.00000000 3040990.00000000 
0.05800    82820728.00000000 51988928.00000000 131234416.00000000 42779.79296875  3751675.75000000 2971395.75000000 
0.05900    81112440.00000000 50923764.00000000 128537032.00000000 41693.32421875  3664933.00000000 2902868.75000000 
0.06000    79427080.00000000 49872240.00000000 125874120.00000000 40628.17187500  3579645.75000000 2835468.75000000 
0.06100    77764904.00000000 48835032.00000000 123247960.00000000 39584.51953125  3495803.75000000 2769228.25000000 
0.06200    76127784.00000000 47812808.00000000 120660296.00000000 38562.73828125  3413469.00000000 2704137.00000000 
0.06300    74515376.00000000 46805940.00000000 118112064.00000000 37563.43359375  3332665.00000000 2640281.50000000 
0.06400    72928744.00000000 45814988.00000000 115604376.00000000 36586.61718750  3253414.75000000 2577620.50000000 
0.06500    71369496.00000000 44840224.00000000 113139520.00000000 35632.19531250  3175768.25000000 2516224.50000000 
0.06600    69837832.00000000 43882916.00000000 110716440.00000000 34700.49218750  3099702.00000000 2456086.00000000 
0.06700    68332872.00000000 42942060.00000000 108337528.00000000 33791.55859375  3025281.00000000 2397222.00000000 
0.06800    66856744.00000000 42019452.00000000 106003056.00000000 32905.39843750  2952458.25000000 2339624.50000000 
0.06900    65409208.00000000 41113972.00000000 103713544.00000000 32041.42578125  2881295.00000000 2283299.00000000 
0.07000    63991056.00000000 40226608.00000000 101470256.00000000 31200.35351562  2811742.50000000 2228282.50000000 
0.07100    62602076.00000000 39357708.00000000 99272208.00000000 30381.46289062  2743852.50000000 2174559.00000000 
0.07200    61243192.00000000 38506864.00000000 97121944.00000000 29585.03320312  2677594.00000000 2122104.50000000 
0.07300    59913600.00000000 37674868.00000000 95018240.00000000 28810.23632812  2612958.50000000 2070940.00000000 
0.07400    58614412.00000000 36861328.00000000 92961616.00000000 28057.39257812  2549948.00000000 2021076.37500000 
0.07500    57344636.00000000 36066436.00000000 90952408.00000000 27326.01171875  2488551.25000000 1972465.75000000 
0.07600    56105192.00000000 35290168.00000000 88991288.00000000 26615.41796875  2428739.25000000 1925099.00000000 
0.07700    54895624.00000000 34532688.00000000 87076600.00000000 25925.43164062  2370503.25000000 1878996.87500000 
0.07800    53715888.00000000 33793616.00000000 85209368.00000000 25255.73046875  2313843.25000000 1834110.00000000 
0.07900    52565724.00000000 33073718.00000000 83389096.00000000 24605.87304688  2258706.25000000 1790446.12500000 
0.08000    51445020.00000000 32371918.00000000 81615344.00000000 23975.57421875  2205106.50000000 1747980.12500000 
0.08100    50354084.00000000 31688448.00000000 79888112.00000000 23363.90039062  2152948.25000000 1706678.75000000 
0.08200    49291824.00000000 31023426.00000000 78206624.00000000 22770.85546875  2102280.00000000 1666536.12500000 
0.08300    48258332.00000000 30376062.00000000 76570576.00000000 22195.92773438  2053044.87500000 1627515.12500000 
0.08400    47253160.00000000 29746750.00000000 74979976.00000000 21638.41210938  2005203.62500000 1589624.12500000 
0.08500    46276348.00000000 29135096.00000000 73433096.00000000 21097.57617188  1958731.00000000 1552789.75000000 
0.08600    45326560.00000000 28540590.00000000 71930696.00000000 20573.69335938  1913611.62500000 1517046.25000000 
0.08700    44404088.00000000 27963232.00000000 70471472.00000000 20065.27148438  1869793.75000000 1482328.62500000 
0.08800    43508360.00000000 27402850.00000000 69053920.00000000 19572.63476562  1827234.37500000 1448614.87500000 
0.08900    42638724.00000000 26858858.00000000 67677984.00000000 19094.83203125  1785927.37500000 1415873.62500000 
0.09000    41794692.00000000 26331286.00000000 66343584.00000000 18631.50585938  1745825.75000000 1384100.87500000 
0.09100    40976044.00000000 25819626.00000000 65048840.00000000 18181.94921875  1706892.12500000 1353252.12500000 
0.09200    40181912.00000000 25323392.00000000 63792936.00000000 17745.89843750  1669089.75000000 1323305.87500000 
0.09300    39411980.00000000 24842444.00000000 62575984.00000000 17322.79296875  1632396.25000000 1294230.37500000 
0.09400    38664884.00000000 24376388.00000000 61395628.00000000 16912.17578125  1596748.37500000 1265992.50000000 
0.09500    37941032.00000000 23924944.00000000 60252016.00000000 16513.45312500  1562146.00000000 1238595.00000000 
0.09600    37239752.00000000 23487502.00000000 59144412.00000000 16126.18066406  1528548.75000000 1211973.50000000 
0.09700    36560168.00000000 23064034.00000000 58070980.00000000 15750.14746094  1495903.75000000 1186110.62500000 
0.09800    35901152.00000000 22653930.00000000 57031020.00000000 15384.52050781  1464193.75000000 1160997.75000000 
0.09900    35263132.00000000 22256744.00000000 56024152.00000000 15029.34765625  1433377.62500000 1136597.12500000 
0.10000    34644632.00000000 21872252.00000000 55048840.00000000 14683.75683594  1403416.50000000 1112871.12500000 
0.10100    34045480.00000000 21499912.00000000 54104188.00000000 14347.66601562  1374303.62500000 1089819.00000000 
0.10200    33465200.00000000 21139600.00000000 53188940.00000000 14020.52539062  1345978.75000000 1067407.75000000 
0.10300    32902722.00000000 20790538.00000000 52302872.00000000 13702.07519531  1318447.37500000 1045605.56250000 
0.10400    32357640.00000000 20452864.00000000 51444132.00000000 13392.00000000  1291635.50000000 1024392.25000000 
0.10500    31829332.00000000 20125978.00000000 50612976.00000000 13089.90820312  1265543.87500000 1003753.12500000 
0.10600    31317400.00000000 19809078.00000000 49807000.00000000 12795.34960938  1240139.75000000 983653.37500000 
0.10700    30820814.00000000 19502386.00000000 49026132.00000000 12508.36035156  1215394.25000000 964081.43750000 
0.10800    30339410.00000000 19204858.00000000 48269100.00000000 12228.33203125  1191289.87500000 945008.68750000 
0.10900    29872226.00000000 18916998.00000000 47535196.00000000 11955.29199219  1167786.00000000 926425.62500000 
0.11000    29419170.00000000 18637612.00000000 46823160.00000000 11688.68457031  1144868.37500000 908313.12500000 
0.11100    28979312.00000000 18366824.00000000 46133144.00000000 11428.54687500  1122520.75000000 890643.75000000 
0.11200    28552234.00000000 18104060.00000000 45462364.00000000 11174.38964844  1100705.75000000 873397.68750000 
0.11300    28137336.00000000 17849140.00000000 44812156.00000000 10926.26367188  1079415.00000000 856576.18750000 
0.11400    27734132.00000000 17601638.00000000 44179840.00000000 10683.78808594  1058623.25000000 840142.31250000 
0.11500    27341992.00000000 17361196.00000000 43565580.00000000 10446.89746094  1038313.18750000 824096.31250000 
0.11600    26960670.00000000 17127568.00000000 42968208.00000000 10215.41699219  1018463.56250000 808415.50000000 
0.11700    26589606.00000000 16900376.00000000 42387192.00000000 9989.15136719   999064.37500000 793088.06250000 
0.11800    26228024.00000000 16679362.00000000 41821632.00000000 9767.91796875   980088.56250000 778102.56250000 
0.11900    25876038.00000000 16464165.00000000 41270756.00000000 9551.56640625   961523.62500000 763444.37500000 
0.12000    25532628.00000000 16254405.00000000 40733792.00000000 9340.01757812   943359.25000000 749098.62500000 
0.12100    25197634.00000000 16050097.00000000 40210460.00000000 9133.29199219   925585.75000000 735060.93750000 
0.12200    24870712.00000000 15850610.00000000 39699052.00000000 8930.99902344   908181.12500000 721319.00000000 
0.12300    24551136.00000000 15655780.00000000 39200088.00000000 8733.24023438   891131.12500000 707855.68750000 
0.12400    24238966.00000000 15465471.00000000 38712240.00000000 8539.78417969   874427.75000000 694661.37500000 
0.12500    23933506.00000000 15279420.00000000 38235248.00000000 8350.60839844   858058.06250000 681737.75000000 
0.12600    23634544.00000000 15097324.00000000 37767944.00000000 8165.70068359   842025.43750000 669064.87500000 
0.12700    23341662.00000000 14918903.00000000 37310568.00000000 7984.92871094   826291.62500000 656646.18750000 
0.12800    23054372.00000000 14744148.00000000 36862052.00000000 7808.11083984   810875.56250000 644466.75000000 
0.12900    22772716.00000000 14572577.00000000 36422188.00000000 7635.25878906   795750.75000000 632519.56250000 
0.13000    22496066.00000000 14404100.00000000 35990196.00000000 7466.33447266   780916.75000000 620794.06250000 
0.13100    22224080.00000000 14238496.00000000 35565532.00000000 7301.19140625   766346.18750000 609289.68750000 
0.13200    21956874.00000000 14075621.00000000 35147960.00000000 7139.77783203   752052.25000000 597996.00000000 
0.13300    21693982.00000000 13915318.00000000 34737496.00000000 6982.07031250   738031.50000000 586904.00000000 
0.13400    21434986.00000000 13757348.00000000 34332540.00000000 6827.97460938   724256.31250000 576014.68750000 
0.13500    21179836.00000000 13601542.00000000 33933588.00000000 6677.45751953   710736.68750000 565318.68750000 
0.13600    20928268.00000000 13447775.00000000 33539890.00000000 6530.41796875   697452.25000000 554813.18750000 
0.13700    20679978.00000000 13295984.00000000 33151450.00000000 6386.71826172   684408.81250000 544490.18750000 
0.13800    20434524.00000000 13145894.00000000 32767468.00000000 6246.46875000   671591.37500000 534345.87500000 
0.13900    20192434.00000000 12997442.00000000 32388154.00000000 6109.46289062   659002.62500000 524372.06250000 
0.14000    19952958.00000000 12850541.00000000 32012794.00000000 5975.71093750   646630.06250000 514570.28125000 
0.14100    19715922.00000000 12704899.00000000 31641122.00000000 5845.10498047   634466.62500000 504937.31250000 
0.14200    19481404.00000000 12560631.00000000 31272962.00000000 5717.59423828   622509.43750000 495461.75000000 
0.14300    19249166.00000000 12417497.00000000 30908314.00000000 5593.12500000   610759.18750000 486139.25000000 
0.14400    19018714.00000000 12275386.00000000 30546234.00000000 5471.55322266   599199.56250000 476969.90625000 
0.14500    18790440.00000000 12134398.00000000 30187138.00000000 5352.87890625   587833.00000000 467948.53125000 
0.14600    18563960.00000000 11994238.00000000 29830626.00000000 5237.09228516   576651.50000000 459070.18750000 
0.14700    18339128.00000000 11854893.00000000 29476542.00000000 5124.00537109   565657.06250000 450336.12500000 
0.14800    18115926.00000000 11716309.00000000 29124818.00000000 5013.52539062   554831.75000000 441733.43750000 
0.14900    17894158.00000000 11578525.00000000 28774934.00000000 4905.71826172   544178.50000000 433265.65625000 
0.15000    17673814.00000000 11441202.00000000 28426976.00000000 4800.42041016   533692.12500000 424924.75000000 
0.15100    17454554.00000000 11304444.00000000 28080774.00000000 4697.56738281   523376.46875000 416707.59375000 
0.15200    17236858.00000000 11168449.00000000 27736346.00000000 4597.11230469   513212.87500000 408617.84375000 
0.15300    17020180.00000000 11032801.00000000 27393530.00000000 4498.96435547   503205.06250000 400642.81250000 
0.15400    16804448.00000000 10897616.00000000 27051840.00000000 4403.02343750   493339.78125000 392782.71875000 
0.15500    16589997.00000000 10762808.00000000 26711674.00000000 4309.30175781   483625.31250000 385036.37500000 
0.15600    16376340.00000000 10628387.00000000 26372746.00000000 4217.61328125   474051.75000000 377397.28125000 
0.15700    16163663.00000000 10494382.00000000 26035138.00000000 4128.01318359   464616.96875000 369863.75000000 
0.15800    15951736.00000000 10360607.00000000 25698334.00000000 4040.30151367   455311.31250000 362433.93750000 
0.15900    15740879.00000000 10227268.00000000 25362810.00000000 3954.51098633   446140.03125000 355107.21875000 
0.16000    15530658.00000000 10094234.00000000 25028310.00000000 3870.53027344   437092.15625000 347871.71875000 
0.16100    15321415.00000000 9961478.00000000 24695050.00000000 3788.34204102   428168.03125000 340739.12500000 
0.16200    15112875.00000000 9829135.00000000 24362790.00000000 3707.84399414   419367.09375000 333693.96875000 
0.16300    14905226.00000000 9697021.00000000 24031430.00000000 3628.95019531   410680.62500000 326739.43750000 
0.16400    14698329.00000000 9565161.00000000 23701126.00000000 3551.68212891   402108.96875000 319874.34375000 
0.16500    14492136.00000000 9433741.00000000 23371892.00000000 3475.89038086   393648.56250000 313095.15625000 
0.16600    14286787.00000000 9302583.00000000 23043706.00000000 3401.62109375   385292.46875000 306399.87500000 
0.16700    14082189.00000000 9171716.00000000 22716466.00000000 3328.76098633   377043.65625000 299785.40625000 
0.16800    13878458.00000000 9041272.00000000 22390344.00000000 3257.24487305   368899.18750000 293249.93750000 
0.16900    13675474.00000000 8911227.00000000 22065518.00000000 3187.10498047   360860.06250000 286797.31250000 
0.17000    13473511.00000000 8781567.00000000 21741752.00000000 3118.23925781   352916.59375000 280420.56250000 
