# SAXS profile: number of points = 501, q_min = 0, q_max = 0.5, delta_q = 0.001
#    q    intensity 
0.00000    162233360.00000000 101201528.00000000 256270416.00000000 112814.14062500 8556362.00000000 6757773.50000000 
0.00100    162202656.00000000 101181184.00000000 256219712.00000000 112783.54687500 8554353.00000000 6756192.50000000 
0.00200    162108224.00000000 101120840.00000000 256066640.00000000 112693.28125000 8548288.00000000 6751411.50000000 
0.00300    161949936.00000000 101020784.00000000 255809648.00000000 112543.22656250 8538138.00000000 6743445.50000000 
0.00400    161722320.00000000 100880592.00000000 255451232.00000000 112333.78125000 8523983.00000000 6732350.50000000 
0.00500    161425936.00000000 100700040.00000000 254992480.00000000 112064.85156250 8505861.00000000 6718086.50000000 
0.00600    161065760.00000000 100478608.00000000 254427888.00000000 111736.80468750 8483701.00000000 6700682.00000000 
0.00700    160645136.00000000 100219136.00000000 253766336.00000000 111350.22656250 8457637.00000000 6680216.00000000 
0.00800    160154464.00000000 99921104.00000000 253006224.00000000 110906.75781250 8427681.00000000 6656675.00000000 
0.00900    159605248.00000000 99585080.00000000 252146128.00000000 110406.37500000 8393852.00000000 6630101.00000000 
0.01000    158995568.00000000 99210152.00000000 251191040.00000000 109849.85156250 8356278.00000000 6600532.00000000 
0.01100    158325760.00000000 98798168.00000000 250137376.00000000 109238.64843750 8314932.50000000 6568061.50000000 
0.01200    157596624.00000000 98348768.00000000 248990016.00000000 108573.30468750 8269898.50000000 6532722.00000000 
0.01300    156805312.00000000 97862144.00000000 247749952.00000000 107855.42187500 8221290.50000000 6494513.50000000 
0.01400    155954800.00000000 97339664.00000000 246418960.00000000 107086.07812500 8169164.00000000 6453537.50000000 
0.01500    155049472.00000000 96782384.00000000 244999056.00000000 106267.31250000 8113622.50000000 6409840.00000000 
0.01600    154088096.00000000 96191512.00000000 243491760.00000000 105398.50781250 8054693.00000000 6363544.50000000 
0.01700    153072480.00000000 95567144.00000000 241898000.00000000 104483.91406250 7992453.50000000 6314668.50000000 
0.01800    152003200.00000000 94909520.00000000 240220208.00000000 103522.78125000 7927135.50000000 6263277.50000000 
0.01900    150882704.00000000 94219768.00000000 238461520.00000000 102517.67187500 7858702.50000000 6209507.50000000 
0.02000    149711168.00000000 93499416.00000000 236624944.00000000 101470.66406250 7787284.00000000 6153351.50000000 
0.02100    148491168.00000000 92748584.00000000 234710992.00000000 100382.92968750 7713042.50000000 6094990.50000000 
0.02200    147224608.00000000 91969704.00000000 232724624.00000000 99255.86718750  7636063.50000000 6034471.00000000 
0.02300    145913104.00000000 91162256.00000000 230664352.00000000 98092.09375000  7556431.00000000 5971830.00000000 
0.02400    144556384.00000000 90326928.00000000 228535408.00000000 96892.92968750  7474297.00000000 5907252.00000000 
0.02500    143158496.00000000 89465720.00000000 226341264.00000000 95661.19531250  7389729.00000000 5840755.00000000 
0.02600    141719888.00000000 88579808.00000000 224083808.00000000 94397.37500000  7302922.00000000 5772494.50000000 
0.02700    140242912.00000000 87669744.00000000 221765120.00000000 93105.33593750  7213967.00000000 5702538.50000000 
0.02800    138729248.00000000 86737104.00000000 219387952.00000000 91785.17968750  7122965.00000000 5630937.00000000 
0.02900    137181744.00000000 85782144.00000000 216957936.00000000 90439.81250000  7030087.00000000 5557918.00000000 
0.03000    135599632.00000000 84807816.00000000 214473504.00000000 89070.96875000  6935431.00000000 5483428.00000000 
0.03100    133987768.00000000 83813920.00000000 211941536.00000000 87680.97656250  6839131.00000000 5407666.00000000 
0.03200    132347184.00000000 82800904.00000000 209363632.00000000 86272.53125000  6741333.00000000 5330708.00000000 
0.03300    130677664.00000000 81771552.00000000 206742624.00000000 84846.45312500  6642134.50000000 5252657.50000000 
0.03400    128984160.00000000 80725600.00000000 204080448.00000000 83404.85937500  6541681.50000000 5173641.00000000 
0.03500    127266840.00000000 79665768.00000000 201382256.00000000 81950.42968750  6440099.00000000 5093666.50000000 
0.03600    125528784.00000000 78592408.00000000 198650336.00000000 80484.69531250  6337531.50000000 5012949.50000000 
0.03700    123771000.00000000 77507664.00000000 195888448.00000000 79009.80468750  6234134.50000000 4931550.00000000 
0.03800    121995968.00000000 76411184.00000000 193097472.00000000 77527.56250000  6129966.00000000 4849540.50000000 
0.03900    120205184.00000000 75304672.00000000 190280864.00000000 76040.39062500  6025170.50000000 4767070.00000000 
0.04000    118400760.00000000 74189520.00000000 187443888.00000000 74549.37500000  5919893.00000000 4684165.00000000 
0.04100    116585544.00000000 73066776.00000000 184587456.00000000 73056.55468750  5814257.50000000 4600959.00000000 
0.04200    114759240.00000000 71936840.00000000 181715968.00000000 71564.23437500  5708368.50000000 4517594.00000000 
0.04300    112925952.00000000 70802640.00000000 178830912.00000000 70073.65625000  5602330.50000000 4434065.00000000 
0.04400    111086352.00000000 69663736.00000000 175936064.00000000 68586.39843750  5496286.00000000 4350549.50000000 
0.04500    109242528.00000000 68521496.00000000 173033712.00000000 67104.35156250  5390291.00000000 4267048.00000000 
0.04600    107395880.00000000 67378624.00000000 170128864.00000000 65629.41406250  5284561.00000000 4183727.50000000 
0.04700    105548672.00000000 66233180.00000000 167219424.00000000 64162.06640625  5179134.00000000 4100611.75000000 
0.04800    103702464.00000000 65088840.00000000 164312000.00000000 62704.91796875  5074065.50000000 4017849.50000000 
0.04900    101859240.00000000 63945744.00000000 161408096.00000000 61259.09765625  4969549.50000000 3935449.25000000 
0.05000    100019728.00000000 62805028.00000000 158510880.00000000 59825.66796875  4865611.00000000 3853521.00000000 
0.05100    98186064.00000000 61667308.00000000 155622976.00000000 58406.01562500  4762398.00000000 3772139.75000000 
0.05200    96359656.00000000 60533684.00000000 152744672.00000000 57001.48046875  4659918.50000000 3691342.00000000 
0.05300    94542176.00000000 59405520.00000000 149880304.00000000 55612.72656250  4558332.00000000 3611240.00000000 
0.05400    92735304.00000000 58282876.00000000 147031200.00000000 54241.62109375  4457720.00000000 3531866.50000000 
0.05500    90939472.00000000 57167368.00000000 144201840.00000000 52888.74609375  4358118.50000000 3453294.00000000 
0.05600    89157032.00000000 56059492.00000000 141391056.00000000 51554.66406250  4259600.50000000 3375584.00000000 
0.05700    87389152.00000000 54960132.00000000 138603104.00000000 50240.69531250  4162253.50000000 3298755.75000000 
0.05800    85636648.00000000 53869936.00000000 135838112.00000000 48947.78125000  4066137.75000000 3222919.25000000 
0.05900    83900408.00000000 52789836.00000000 133099576.00000000 47676.55859375  3971302.25000000 3148051.50000000 
0.06000    82182136.00000000 51720572.00000000 130388728.00000000 46427.29687500  3877793.25000000 3074251.50000000 
0.06100    80482648.00000000 50662328.00000000 127706456.00000000 45200.68359375  3785707.25000000 3001546.50000000 
0.06200    78803992.00000000 49616452.00000000 125056520.00000000 43997.73046875  3695025.50000000 2929955.25000000 
0.06300    77145816.00000000 48582964.00000000 122438656.00000000 42818.23437500  3605852.75000000 2859533.75000000 
0.06400    75508568.00000000 47562592.00000000 119853464.00000000 41662.97265625  3518192.25000000 2790287.50000000 
0.06500    73894880.00000000 46556444.00000000 117304824.00000000 40531.99218750  3432093.25000000 2722256.25000000 
0.06600    72304376.00000000 45563868.00000000 114791624.00000000 39426.00390625  3347576.50000000 2655485.00000000 
0.06700    70737504.00000000 44586588.00000000 112316304.00000000 38345.18750000  3264654.00000000 2589955.00000000 
0.06800    69195136.00000000 43623968.00000000 109879656.00000000 37289.09375000  3183379.00000000 2525711.75000000 
0.06900    67678216.00000000 42677128.00000000 107483144.00000000 36258.65234375  3103760.00000000 2462771.25000000 
0.07000    66187872.00000000 41745876.00000000 105126832.00000000 35252.85546875  3025807.50000000 2401150.75000000 
0.07100    64723340.00000000 40830924.00000000 102811720.00000000 34272.70703125  2949527.25000000 2340844.25000000 
0.07200    63286052.00000000 39932040.00000000 100537968.00000000 33317.47656250  2874930.25000000 2281838.00000000 
0.07300    61875596.00000000 39050404.00000000 98307360.00000000 32387.25781250  2802026.75000000 2224167.75000000 
0.07400    60492544.00000000 38185412.00000000 96120256.00000000 31481.89257812  2730823.50000000 2167850.75000000 
0.07500    59137888.00000000 37337524.00000000 93976864.00000000 30601.58789062  2661314.50000000 2112848.50000000 
0.07600    57810468.00000000 36507076.00000000 91877448.00000000 29745.19921875  2593505.00000000 2059176.87500000 
0.07700    56511868.00000000 35694276.00000000 89822336.00000000 28913.36328125  2527354.75000000 2006831.37500000 
0.07800    55241168.00000000 34898808.00000000 87811856.00000000 28105.18164062  2462868.75000000 1955796.62500000 
0.07900    53999116.00000000 34120952.00000000 85845320.00000000 27320.51171875  2400045.00000000 1906074.37500000 
0.08000    52785652.00000000 33360996.00000000 83924712.00000000 26558.93750000  2338880.25000000 1857633.00000000 
0.08100    51600712.00000000 32618506.00000000 82048760.00000000 25820.25000000  2279346.25000000 1810475.87500000 
0.08200    50443920.00000000 31893606.00000000 80217432.00000000 25103.69531250  2221408.00000000 1764591.87500000 
0.08300    49315680.00000000 31186632.00000000 78430912.00000000 24409.24218750  2165059.25000000 1719953.00000000 
0.08400    48215368.00000000 30496954.00000000 76688360.00000000 23736.05273438  2110267.25000000 1676548.00000000 
0.08500    47143004.00000000 29824778.00000000 74990648.00000000 23083.74414062  2057026.12500000 1634354.25000000 
0.08600    46099120.00000000 29170062.00000000 73337504.00000000 22452.04101562  2005292.87500000 1593357.62500000 
0.08700    45082660.00000000 28532542.00000000 71727040.00000000 21840.18359375  1955041.87500000 1553526.37500000 
0.08800    44093460.00000000 27912164.00000000 70160592.00000000 21247.73632812  1906242.62500000 1514833.50000000 
0.08900    43131448.00000000 27308682.00000000 68635528.00000000 20674.17578125  1858869.87500000 1477283.62500000 
0.09000    42195728.00000000 26722018.00000000 67154208.00000000 20118.97656250  1812899.25000000 1440832.12500000 
0.09100    41286844.00000000 26151856.00000000 65714716.00000000 19581.63476562  1768281.62500000 1405444.87500000 
0.09200    40403616.00000000 25598046.00000000 64315896.00000000 19061.54101562  1725011.00000000 1371130.12500000 
0.09300    39546648.00000000 25060502.00000000 62957880.00000000 18558.32031250  1683027.50000000 1337824.62500000 
0.09400    38714340.00000000 24538522.00000000 61639540.00000000 18071.29101562  1642306.75000000 1305526.37500000 
0.09500    37906744.00000000 24032232.00000000 60360648.00000000 17599.74414062  1602814.00000000 1274190.75000000 
0.09600    37123716.00000000 23541242.00000000 59120440.00000000 17143.59765625  1564523.87500000 1243804.50000000 
0.09700    36364272.00000000 23065322.00000000 57917872.00000000 16702.02148438  1527403.62500000 1214345.62500000 
0.09800    35628180.00000000 22604186.00000000 56752556.00000000 16274.64453125  1491394.87500000 1185771.62500000 
0.09900    34915388.00000000 22157406.00000000 55623900.00000000 15860.99023438  1456493.75000000 1158061.37500000 
0.10000    34224616.00000000 21724566.00000000 54529912.00000000 15460.31542969  1422647.12500000 1131196.75000000 
0.10100    33555884.00000000 21305654.00000000 53471240.00000000 15072.43066406  1389825.75000000 1105144.25000000 
0.10200    32908136.00000000 20900180.00000000 52446076.00000000 14696.65136719  1358001.25000000 1079867.12500000 
0.10300    32281234.00000000 20507720.00000000 51454256.00000000 14332.73925781  1327137.12500000 1055362.00000000 
0.10400    31674684.00000000 20128258.00000000 50494060.00000000 13980.07617188  1297187.00000000 1031580.56250000 
0.10500    31087660.00000000 19761164.00000000 49565724.00000000 13638.21386719  1268144.87500000 1008513.37500000 
0.10600    30519574.00000000 19406020.00000000 48667284.00000000 13306.88085938  1239960.25000000 986130.75000000 
0.10700    29970318.00000000 19062742.00000000 47798624.00000000 12985.49707031  1212608.62500000 964400.56250000 
0.10800    29438654.00000000 18730912.00000000 46958088.00000000 12673.72167969  1186060.12500000 943309.31250000 
0.10900    28924664.00000000 18409878.00000000 46145616.00000000 12371.29980469  1160280.00000000 922829.00000000 
0.11000    28427274.00000000 18099706.00000000 45359940.00000000 12077.73535156  1135236.25000000 902935.25000000 
0.11100    27946356.00000000 17799862.00000000 44600044.00000000 11792.70605469  1110924.75000000 883607.93750000 
0.11200    27480930.00000000 17510006.00000000 43865608.00000000 11515.94335938  1087281.25000000 864824.12500000 
0.11300    27030952.00000000 17229558.00000000 43154584.00000000 11247.03613281  1064300.25000000 846570.56250000 
0.11400    26595374.00000000 16958616.00000000 42467572.00000000 10985.65820312  1041964.75000000 828817.68750000 
0.11500    26174044.00000000 16696561.00000000 41802740.00000000 10731.64648438  1020234.93750000 811541.31250000 
0.11600    25766116.00000000 16443078.00000000 41159644.00000000 10484.54589844  999087.12500000 794734.81250000 
0.11700    25371256.00000000 16197830.00000000 40536880.00000000 10244.34277344  978503.31250000 778371.62500000 
0.11800    24988934.00000000 15960530.00000000 39934120.00000000 10010.42871094  958454.43750000 762431.68750000 
0.11900    24618406.00000000 15730700.00000000 39350384.00000000 9782.80957031   938923.12500000 746907.93750000 
0.12000    24259458.00000000 15508229.00000000 38785084.00000000 9561.17871094   919890.81250000 731770.37500000 
0.12100    23911460.00000000 15292760.00000000 38237028.00000000 9345.43750000   901335.50000000 717019.12500000 
0.12200    23573926.00000000 15083778.00000000 37705776.00000000 9135.15722656   883236.75000000 702621.62500000 
0.12300    23246356.00000000 14881143.00000000 37190272.00000000 8930.33203125   865572.62500000 688578.62500000 
0.12400    22928396.00000000 14684631.00000000 36689868.00000000 8730.63281250   848338.68750000 674870.75000000 
0.12500    22619266.00000000 14493749.00000000 36204080.00000000 8535.96386719   831497.06250000 661477.12500000 
0.12600    22319142.00000000 14308354.00000000 35731880.00000000 8346.14550781   815052.81250000 648397.06250000 
0.12700    22026910.00000000 14128113.00000000 35272656.00000000 8160.98730469   798976.00000000 635609.81250000 
0.12800    21742564.00000000 13952757.00000000 34826008.00000000 7980.35937500   783258.37500000 623107.56250000 
0.12900    21465584.00000000 13781910.00000000 34390760.00000000 7804.16259766   767884.50000000 610880.50000000 
0.13000    21195458.00000000 13615485.00000000 33966104.00000000 7632.09960938   752844.43750000 598908.31250000 
0.13100    20931980.00000000 13453191.00000000 33552478.00000000 7464.13330078   738118.93750000 587187.31250000 
0.13200    20674688.00000000 13294689.00000000 33148274.00000000 7300.17773438   723695.43750000 575716.56250000 
0.13300    20423216.00000000 13139808.00000000 32753578.00000000 7140.09765625   709570.12500000 564477.87500000 
0.13400    20177156.00000000 12988382.00000000 32367222.00000000 6983.67138672   695727.62500000 553457.50000000 
0.13500    19936304.00000000 12840042.00000000 31988816.00000000 6830.94677734   682161.00000000 542657.75000000 
0.13600    19700264.00000000 12694673.00000000 31618368.00000000 6681.68554688   668855.75000000 532063.50000000 
0.13700    19468724.00000000 12552047.00000000 31254708.00000000 6535.75683594   655801.12500000 521676.43750000 
0.13800    19241414.00000000 12412007.00000000 30897604.00000000 6393.16210938   642989.93750000 511475.12500000 
0.13900    19017994.00000000 12274235.00000000 30546608.00000000 6253.84765625   630419.68750000 501467.34375000 
0.14000    18798158.00000000 12138795.00000000 30201264.00000000 6117.59179688   618070.06250000 491637.56250000 
0.14100    18581844.00000000 12005300.00000000 29861132.00000000 5984.38281250   605947.25000000 481983.21875000 
0.14200    18368632.00000000 11873578.00000000 29525976.00000000 5854.06201172   594036.87500000 472495.90625000 
0.14300    18158134.00000000 11743656.00000000 29195070.00000000 5726.61816406   582326.68750000 463172.68750000 
0.14400    17950474.00000000 11615204.00000000 28868098.00000000 5601.91406250   570817.50000000 454006.53125000 
0.14500    17745120.00000000 11488234.00000000 28544996.00000000 5479.95556641   559509.31250000 444995.46875000 
0.14600    17542094.00000000 11362401.00000000 28225282.00000000 5360.53808594   548385.56250000 436135.71875000 
0.14700    17341112.00000000 11237815.00000000 27908766.00000000 5243.70849609   537444.81250000 427422.28125000 
0.14800    17141846.00000000 11114254.00000000 27594700.00000000 5129.32324219   526677.25000000 418842.59375000 
0.14900    16944558.00000000 10991540.00000000 27283384.00000000 5017.29052734   516079.78125000 410400.37500000 
0.15000    16748575.00000000 10869665.00000000 26974454.00000000 4907.57275391   505651.50000000 402090.46875000 
0.15100    16554072.00000000 10748562.00000000 26667158.00000000 4800.12939453   495383.15625000 393909.12500000 
0.15200    16360841.00000000 10627979.00000000 26361860.00000000 4694.89257812   485280.18750000 385857.75000000 
0.15300    16168711.00000000 10508026.00000000 26058040.00000000 4591.73535156   475328.50000000 377924.71875000 
0.15400    15977560.00000000 10388494.00000000 25755634.00000000 4490.67675781   465523.78125000 370110.96875000 
0.15500    15787412.00000000 10269351.00000000 25454610.00000000 4391.62402344   455864.40625000 362416.81250000 
0.15600    15597870.00000000 10150485.00000000 25154570.00000000 4294.45996094   446352.00000000 354828.96875000 
0.15700    15409284.00000000 10032062.00000000 24855486.00000000 4199.25146484   436977.84375000 347360.96875000 
0.15800    15221223.00000000 9913744.00000000 24557096.00000000 4105.86181641   427741.50000000 339994.56250000 
0.15900    15033711.00000000 9795705.00000000 24259482.00000000 4014.25976562   418639.18750000 332740.53125000 
0.16000    14846735.00000000 9677717.00000000 23962496.00000000 3924.42529297   409664.78125000 325586.21875000 
0.16100    14660297.00000000 9559921.00000000 23666126.00000000 3836.25903320   400822.59375000 318536.15625000 
0.16200    14474208.00000000 9442164.00000000 23369896.00000000 3749.80322266   392107.28125000 311584.75000000 
0.16300    14288540.00000000 9324485.00000000 23074296.00000000 3664.94238281   383514.00000000 304731.15625000 
0.16400    14103151.00000000 9206968.00000000 22779032.00000000 3581.66772461   375044.00000000 297980.31250000 
0.16500    13918092.00000000 9089362.00000000 22483942.00000000 3499.94750977   366696.28125000 291318.34375000 
0.16600    13733511.00000000 8971780.00000000 22189404.00000000 3419.75097656   358467.18750000 284752.28125000 
0.16700    13549027.00000000 8854314.00000000 21895012.00000000 3340.99975586   350351.71875000 278280.78125000 
0.16800    13365031.00000000 8736791.00000000 21600672.00000000 3263.73413086   342350.78125000 271897.21875000 
0.16900    13181322.00000000 8619443.00000000 21306966.00000000 3187.93115234   334469.09375000 265606.43750000 
0.17000    12997862.00000000 8502035.00000000 21013600.00000000 3113.52685547   326698.62500000 259404.87500000 
