# SAXS profile: number of points = 501, q_min = 0, q_max = 0.5, delta_q = 0.001
#    q    intensity 
0.00000    162234336.00000000 101202256.00000000 256271120.00000000 103322.32812500 8188512.50000000 6467269.50000000 
0.00100    162193424.00000000 101174496.00000000 256202656.00000000 103289.07812500 8186063.50000000 6465346.00000000 
0.00200    162070288.00000000 101095144.00000000 255999664.00000000 103188.49218750 8178790.00000000 6459623.50000000 
0.00300    161858320.00000000 100962808.00000000 255661584.00000000 103021.89062500 8166732.50000000 6450117.00000000 
0.00400    161554880.00000000 100776088.00000000 255188160.00000000 102789.15625000 8149752.00000000 6436785.00000000 
0.00500    161166192.00000000 100536424.00000000 254580576.00000000 102489.80468750 8128067.50000000 6419707.50000000 
0.00600    160696032.00000000 100245584.00000000 253840512.00000000 102125.75000000 8101667.50000000 6398908.00000000 
0.00700    160137008.00000000 99903312.00000000 252972064.00000000 101698.82031250 8070589.00000000 6374412.50000000 
0.00800    159500480.00000000 99510816.00000000 251970240.00000000 101207.53125000 8034886.50000000 6346357.50000000 
0.00900    158784192.00000000 99068752.00000000 250844176.00000000 100654.96875000 7994652.00000000 6314760.00000000 
0.01000    157988976.00000000 98576704.00000000 249591520.00000000 100041.81250000 7950016.50000000 6279584.50000000 
0.01100    157117360.00000000 98035880.00000000 248215232.00000000 99368.62500000  7901007.50000000 6241030.50000000 
0.01200    156165072.00000000 97447552.00000000 246721504.00000000 98637.86718750  7847829.00000000 6199139.00000000 
0.01300    155137344.00000000 96813248.00000000 245108352.00000000 97851.83593750  7790457.50000000 6154008.00000000 
0.01400    154040160.00000000 96134024.00000000 243380608.00000000 97011.32812500  7729154.50000000 6105737.00000000 
0.01500    152872208.00000000 95411560.00000000 241544624.00000000 96118.17187500  7663907.00000000 6054382.00000000 
0.01600    151635232.00000000 94647504.00000000 239598336.00000000 95175.84375000  7595017.50000000 6000167.00000000 
0.01700    150332512.00000000 93841976.00000000 237550624.00000000 94185.08593750  7522453.00000000 5943034.00000000 
0.01800    148967616.00000000 92996912.00000000 235401584.00000000 93147.73437500  7446485.50000000 5883201.00000000 
0.01900    147540368.00000000 92114792.00000000 233157408.00000000 92067.56250000  7367194.00000000 5820806.00000000 
0.02000    146055440.00000000 91196136.00000000 230822304.00000000 90945.01562500  7284795.50000000 5755903.00000000 
0.02100    144515520.00000000 90242496.00000000 228397824.00000000 89784.22656250  7199444.50000000 5688703.00000000 
0.02200    142921856.00000000 89256672.00000000 225890352.00000000 88586.88281250  7111313.00000000 5619269.00000000 
0.02300    141278992.00000000 88239112.00000000 223304848.00000000 87355.92968750  7020546.50000000 5547806.00000000 
0.02400    139589200.00000000 87192952.00000000 220643600.00000000 86093.20312500  6927280.50000000 5474391.50000000 
0.02500    137855776.00000000 86118840.00000000 217916080.00000000 84802.12500000  6831847.50000000 5399175.50000000 
0.02600    136080960.00000000 85019280.00000000 215122352.00000000 83484.64843750  6734267.00000000 5322330.00000000 
0.02700    134267408.00000000 83895976.00000000 212268608.00000000 82143.80468750  6634773.50000000 5243943.50000000 
0.02800    132420256.00000000 82751328.00000000 209359456.00000000 80781.24218750  6533595.50000000 5164186.00000000 
0.02900    130541792.00000000 81586592.00000000 206400640.00000000 79401.07031250  6430860.00000000 5083226.00000000 
0.03000    128633648.00000000 80404368.00000000 203396544.00000000 78004.60937500  6326772.50000000 5001215.00000000 
0.03100    126700832.00000000 79205128.00000000 200351584.00000000 76595.57812500  6221456.50000000 4918255.00000000 
0.03200    124745088.00000000 77991616.00000000 197270976.00000000 75175.03906250  6115241.00000000 4834461.50000000 
0.03300    122770520.00000000 76767552.00000000 194159952.00000000 73747.22656250  6008181.00000000 4750097.50000000 
0.03400    120780656.00000000 75532056.00000000 191025840.00000000 72313.42187500  5900447.50000000 4665152.00000000 
0.03500    118775816.00000000 74288632.00000000 187867136.00000000 70875.95312500  5792252.50000000 4579869.00000000 
0.03600    116761440.00000000 73037536.00000000 184691120.00000000 69437.96875000  5683750.50000000 4494283.50000000 
0.03700    114739600.00000000 71781480.00000000 181504480.00000000 68001.60937500  5575127.00000000 4408638.00000000 
0.03800    112713224.00000000 70522592.00000000 178311072.00000000 66567.11718750  5466516.00000000 4323001.00000000 
0.03900    110685528.00000000 69262432.00000000 175112688.00000000 65138.92187500  5358095.00000000 4237434.00000000 
0.04000    108659152.00000000 68003000.00000000 171916912.00000000 63718.53125000  5249964.00000000 4152119.75000000 
0.04100    106635840.00000000 66745028.00000000 168728080.00000000 62307.57812500  5142390.50000000 4067227.25000000 
0.04200    104619480.00000000 65490952.00000000 165548544.00000000 60907.77734375  5035323.50000000 3982819.00000000 
0.04300    102612448.00000000 64242220.00000000 162381456.00000000 59521.61718750  4929133.50000000 3898965.50000000 
0.04400    100616984.00000000 63000524.00000000 159232416.00000000 58149.67968750  4823756.50000000 3815792.50000000 
0.04500    98634672.00000000 61766552.00000000 156104096.00000000 56794.55078125  4719427.50000000 3733407.25000000 
0.04600    96669160.00000000 60542280.00000000 153001568.00000000 55457.23046875  4616204.50000000 3651931.25000000 
0.04700    94720048.00000000 59329192.00000000 149927264.00000000 54138.60156250  4514153.00000000 3571407.75000000 
0.04800    92792080.00000000 58127916.00000000 146882720.00000000 52840.91015625  4413487.50000000 3491904.75000000 
0.04900    90885896.00000000 56940180.00000000 143872448.00000000 51564.66015625  4314254.50000000 3413532.00000000 
0.05000    89003272.00000000 55766868.00000000 140900256.00000000 50310.65625000  4216515.50000000 3336340.25000000 
0.05100    87146648.00000000 54609448.00000000 137969360.00000000 49080.54296875  4120377.25000000 3260420.75000000 
0.05200    85316960.00000000 53468256.00000000 135078784.00000000 47874.37890625  4025905.00000000 3185765.00000000 
0.05300    83515968.00000000 52344476.00000000 132234656.00000000 46693.28515625  3933154.25000000 3112487.25000000 
0.05400    81744624.00000000 51239256.00000000 129436952.00000000 45537.57031250  3842206.50000000 3040641.75000000 
0.05500    80004272.00000000 50153700.00000000 126687072.00000000 44408.41796875  3753108.75000000 2970214.00000000 
0.05600    78296736.00000000 49087808.00000000 123988280.00000000 43305.39843750  3665861.50000000 2901293.50000000 
0.05700    76622688.00000000 48042368.00000000 121342280.00000000 42229.03125000  3580594.00000000 2833883.25000000 
0.05800    74981952.00000000 47018716.00000000 118750336.00000000 41180.17578125  3497239.25000000 2768003.00000000 
0.05900    73376808.00000000 46015824.00000000 116212904.00000000 40158.35156250  3415884.75000000 2703723.25000000 
0.06000    71807392.00000000 45035124.00000000 113731192.00000000 39163.19140625  3336522.50000000 2640981.00000000 
0.06100    70273456.00000000 44076956.00000000 111307624.00000000 38195.80859375  3259191.25000000 2579843.75000000 
0.06200    68777008.00000000 43141508.00000000 108941048.00000000 37255.24218750  3183829.50000000 2520267.00000000 
0.06300    67316928.00000000 42229776.00000000 106632584.00000000 36341.20312500  3110507.75000000 2462328.50000000 
0.06400    65893708.00000000 41340632.00000000 104382320.00000000 35453.65625000  3039211.50000000 2405942.25000000 
0.06500    64508168.00000000 40474540.00000000 102192296.00000000 34592.81640625  2969880.75000000 2351136.25000000 
0.06600    63160272.00000000 39632136.00000000 100060712.00000000 33757.19140625  2902575.50000000 2297898.00000000 
0.06700    61849108.00000000 38812832.00000000 97987976.00000000 32947.21093750  2837180.75000000 2246216.75000000 
0.06800    60575616.00000000 38016692.00000000 95974464.00000000 32161.59375000  2773740.25000000 2196064.75000000 
0.06900    59338808.00000000 37244284.00000000 94019440.00000000 31400.64062500  2712227.50000000 2147426.50000000 
0.07000    58138692.00000000 36494368.00000000 92121704.00000000 30663.40234375  2652585.75000000 2100270.00000000 
0.07100    56974824.00000000 35767504.00000000 90283200.00000000 29949.01367188  2594769.25000000 2054599.87500000 
0.07200    55846932.00000000 35063024.00000000 88499992.00000000 29257.11132812  2538721.75000000 2010309.00000000 
0.07300    54754172.00000000 34381040.00000000 86773352.00000000 28587.02148438  2484465.50000000 1967428.62500000 
0.07400    53696220.00000000 33720312.00000000 85100888.00000000 27937.65429688  2431928.75000000 1925914.50000000 
0.07500    52672384.00000000 33081698.00000000 83483384.00000000 27308.62890625  2381043.00000000 1885708.25000000 
0.07600    51681640.00000000 32463942.00000000 81919312.00000000 26699.29882812  2331746.50000000 1846775.25000000 
0.07700    50723900.00000000 31866964.00000000 80406776.00000000 26108.68945312  2284026.75000000 1809094.62500000 
0.07800    49797932.00000000 31290120.00000000 78944256.00000000 25536.04296875  2237847.25000000 1772612.50000000 
0.07900    48902540.00000000 30732364.00000000 77530696.00000000 24980.67773438  2193091.00000000 1737273.75000000 
0.08000    48037732.00000000 30194476.00000000 76167176.00000000 24441.93164062  2149744.00000000 1703054.62500000 
0.08100    47202324.00000000 29674760.00000000 74848344.00000000 23918.88671875  2107749.00000000 1669913.87500000 
0.08200    46394840.00000000 29172910.00000000 73575256.00000000 23411.04296875  2067037.00000000 1637796.62500000 
0.08300    45614872.00000000 28688692.00000000 72346560.00000000 22917.50585938  2027565.62500000 1606656.37500000 
0.08400    44861008.00000000 28221136.00000000 71158304.00000000 22437.53906250  1989275.50000000 1576452.12500000 
0.08500    44132960.00000000 27770118.00000000 70012736.00000000 21970.56054688  1952113.87500000 1547150.75000000 
0.08600    43429408.00000000 27334396.00000000 68905248.00000000 21515.94921875  1916031.00000000 1518701.25000000 
0.08700    42749208.00000000 26913872.00000000 67835144.00000000 21073.05078125  1880954.87500000 1491055.00000000 
0.08800    42091728.00000000 26507546.00000000 66801688.00000000 20641.04492188  1846845.37500000 1464189.37500000 
0.08900    41455568.00000000 26114862.00000000 65801616.00000000 20219.60742188  1813676.00000000 1438044.37500000 
0.09000    40840052.00000000 25735406.00000000 64834780.00000000 19807.98437500  1781363.25000000 1412601.00000000 
0.09100    40243548.00000000 25368472.00000000 63899600.00000000 19405.77734375  1749864.00000000 1387801.75000000 
0.09200    39666444.00000000 25013488.00000000 62993812.00000000 19012.39453125  1719136.37500000 1363610.87500000 
0.09300    39106740.00000000 24669642.00000000 62115968.00000000 18627.58789062  1689153.37500000 1340005.75000000 
0.09400    38563580.00000000 24336632.00000000 61265572.00000000 18250.47265625  1659852.75000000 1316944.62500000 
0.09500    38036400.00000000 24013500.00000000 60439480.00000000 17880.93164062  1631193.62500000 1294402.75000000 
0.09600    37523568.00000000 23700136.00000000 59637852.00000000 17518.75390625  1603146.37500000 1272327.00000000 
0.09700    37025528.00000000 23395702.00000000 58858684.00000000 17163.25781250  1575661.50000000 1250707.25000000 
0.09800    36540608.00000000 23099652.00000000 58100148.00000000 16814.31054688  1548725.50000000 1229504.75000000 
0.09900    36067572.00000000 22811514.00000000 57361536.00000000 16471.50390625  1522282.37500000 1208702.00000000 
0.10000    35606196.00000000 22530862.00000000 56641704.00000000 16134.68652344  1496323.25000000 1188275.87500000 
0.10100    35156136.00000000 22256870.00000000 55938844.00000000 15803.43945312  1470807.50000000 1168193.50000000 
0.10200    34715936.00000000 21989348.00000000 55252472.00000000 15477.85253906  1445691.00000000 1148447.37500000 
0.10300    34284952.00000000 21727818.00000000 54580644.00000000 15157.28710938  1420975.00000000 1128990.62500000 
0.10400    33862992.00000000 21471782.00000000 53922704.00000000 14842.05175781  1396628.37500000 1109841.25000000 
0.10500    33449054.00000000 21220796.00000000 53277964.00000000 14531.69042969  1372655.62500000 1090945.62500000 
0.10600    33042406.00000000 20974518.00000000 52644608.00000000 14226.12597656  1348979.37500000 1072309.50000000 
0.10700    32642902.00000000 20732764.00000000 52022628.00000000 13925.47070312  1325627.00000000 1053917.00000000 
0.10800    32249946.00000000 20494674.00000000 51410664.00000000 13629.48339844  1302572.50000000 1035750.62500000 
0.10900    31862542.00000000 20260324.00000000 50807516.00000000 13337.89355469  1279799.62500000 1017807.00000000 
0.11000    31480754.00000000 20029312.00000000 50213528.00000000 13051.05078125  1257307.37500000 1000072.75000000 
0.11100    31103940.00000000 19801416.00000000 49626824.00000000 12768.63574219  1235073.37500000 982536.93750000 
0.11200    30731812.00000000 19576116.00000000 49047456.00000000 12490.72265625  1213092.75000000 965187.37500000 
0.11300    30363884.00000000 19353294.00000000 48474384.00000000 12217.25195312  1191359.25000000 948034.56250000 
0.11400    29999680.00000000 19132884.00000000 47907500.00000000 11948.24609375  1169862.87500000 931064.93750000 
0.11500    29639300.00000000 18914386.00000000 47345852.00000000 11683.64257812  1148611.00000000 914267.12500000 
0.11600    29282068.00000000 18697930.00000000 46788892.00000000 11423.55078125  1127578.87500000 897642.12500000 
0.11700    28928214.00000000 18483110.00000000 46236904.00000000 11167.82617188  1106784.00000000 881190.06250000 
0.11800    28576514.00000000 18269712.00000000 45688720.00000000 10916.47949219  1086215.25000000 864908.50000000 
0.11900    28227704.00000000 18057586.00000000 45144732.00000000 10669.64550781  1065870.37500000 848793.25000000 
0.12000    27881344.00000000 17846748.00000000 44603592.00000000 10427.25976562  1045742.75000000 832850.06250000 
0.12100    27537310.00000000 17636988.00000000 44065916.00000000 10189.39843750  1025840.50000000 817076.50000000 
0.12200    27195356.00000000 17428332.00000000 43531124.00000000 9955.93750000   1006167.56250000 801470.31250000 
0.12300    26855322.00000000 17220694.00000000 42999544.00000000 9727.02832031   986719.25000000 786040.43750000 
0.12400    26517164.00000000 17013878.00000000 42470176.00000000 9502.43457031   967502.31250000 770778.75000000 
0.12500    26180918.00000000 16807800.00000000 41943436.00000000 9282.34375000   948507.62500000 755684.87500000 
0.12600    25846422.00000000 16602473.00000000 41419044.00000000 9066.80761719   929749.93750000 740776.75000000 
0.12700    25513746.00000000 16397921.00000000 40896860.00000000 8855.64550781   911226.00000000 726042.25000000 
0.12800    25182608.00000000 16194135.00000000 40376780.00000000 8648.97851562   892933.93750000 711484.50000000 
0.12900    24853268.00000000 15990964.00000000 39859140.00000000 8446.66992188   874888.18750000 697111.25000000 
0.13000    24525540.00000000 15788505.00000000 39343972.00000000 8248.74609375   857074.18750000 682912.62500000 
0.13100    24199470.00000000 15586701.00000000 38830680.00000000 8055.07568359   839503.00000000 668908.68750000 
0.13200    23875074.00000000 15385705.00000000 38319716.00000000 7865.73388672   822183.18750000 655088.12500000 
0.13300    23552582.00000000 15185229.00000000 37811188.00000000 7680.60595703   805103.31250000 641461.87500000 
0.13400    23231730.00000000 14985715.00000000 37304748.00000000 7499.67578125   788279.81250000 628023.87500000 
0.13500    22912546.00000000 14786906.00000000 36800748.00000000 7322.81884766   771699.37500000 614785.50000000 
0.13600    22595358.00000000 14588875.00000000 36299392.00000000 7150.01562500   755367.81250000 601737.12500000 
0.13700    22279912.00000000 14391692.00000000 35800340.00000000 6981.23925781   739290.62500000 588878.06250000 
0.13800    21966632.00000000 14195426.00000000 35304120.00000000 6816.29394531   723468.43750000 576223.81250000 
0.13900    21655106.00000000 14000017.00000000 34810684.00000000 6655.24755859   707894.37500000 563764.62500000 
0.14000    21345756.00000000 13805652.00000000 34320008.00000000 6497.85302734   692578.43750000 551508.06250000 
0.14100    21038546.00000000 13612233.00000000 33832404.00000000 6344.14941406   677516.18750000 539452.37500000 
0.14200    20733282.00000000 13419954.00000000 33347702.00000000 6193.98730469   662705.56250000 527586.62500000 
0.14300    20430552.00000000 13228745.00000000 32866442.00000000 6047.31005859   648144.75000000 515926.50000000 
0.14400    20129884.00000000 13038710.00000000 32388318.00000000 5903.95068359   633838.62500000 504461.53125000 
0.14500    19831746.00000000 12849881.00000000 31913686.00000000 5763.93750000   619784.25000000 493198.31250000 
0.14600    19536038.00000000 12662299.00000000 31442450.00000000 5627.07666016   605969.43750000 482131.31250000 
0.14700    19242600.00000000 12475986.00000000 30975062.00000000 5493.28271484   592405.25000000 471258.68750000 
0.14800    18951850.00000000 12291132.00000000 30511242.00000000 5362.45703125   579081.50000000 460579.59375000 
0.14900    18663848.00000000 12107519.00000000 30051158.00000000 5234.52636719   566006.00000000 450093.68750000 
0.15000    18378202.00000000 11925461.00000000 29595098.00000000 5109.45947266   553168.56250000 439801.59375000 
0.15100    18095326.00000000 11744917.00000000 29143102.00000000 4987.05078125   540566.50000000 429696.96875000 
0.15200    17815106.00000000 11565965.00000000 28695450.00000000 4867.30615234   528204.62500000 419783.59375000 
0.15300    17538000.00000000 11388503.00000000 28251848.00000000 4750.05224609   516066.78125000 410055.43750000 
0.15400    17263406.00000000 11212701.00000000 27812450.00000000 4635.22949219   504152.18750000 400505.81250000 
0.15500    16991786.00000000 11038524.00000000 27377648.00000000 4522.80322266   492471.71875000 391139.68750000 
0.15600    16723249.00000000 10866123.00000000 26946820.00000000 4412.65283203   481004.03125000 381951.15625000 
0.15700    16457600.00000000 10695427.00000000 26520926.00000000 4304.76855469   469757.71875000 372944.00000000 
0.15800    16194699.00000000 10526308.00000000 26099548.00000000 4199.02246094   458724.84375000 364100.68750000 
0.15900    15934928.00000000 10359167.00000000 25682734.00000000 4095.35546875   447905.75000000 355434.25000000 
0.16000    15678050.00000000 10193723.00000000 25270598.00000000 3993.72216797   437287.12500000 346934.62500000 
0.16100    15424274.00000000 10030183.00000000 24863230.00000000 3894.14526367   426878.90625000 338600.59375000 
0.16200    15173516.00000000 9868519.00000000 24460396.00000000 3796.43164062   416667.68750000 330425.31250000 
0.16300    14925852.00000000 9708645.00000000 24062512.00000000 3700.63500977   406652.53125000 322414.43750000 
0.16400    14681338.00000000 9550685.00000000 23669648.00000000 3606.70629883   396832.53125000 314556.28125000 
0.16500    14439699.00000000 9394720.00000000 23281348.00000000 3514.56176758   387202.25000000 306856.50000000 
0.16600    14201309.00000000 9240535.00000000 22898118.00000000 3424.23608398   377756.15625000 299307.40625000 
0.16700    13965898.00000000 9088261.00000000 22519434.00000000 3335.65112305   368493.03125000 291904.37500000 
0.16800    13733623.00000000 8937935.00000000 22146004.00000000 3248.80371094   359410.78125000 284645.71875000 
0.16900    13504475.00000000 8789559.00000000 21777204.00000000 3163.66625977   350510.03125000 277538.37500000 
0.17000    13278292.00000000 8643116.00000000 21413302.00000000 3080.25756836   341782.28125000 270567.56250000 
