# SAXS profile: number of points = 501, q_min = 0, q_max = 0.5, delta_q = 0.001
#    q    intensity 
0.00000    162234224.00000000 101201736.00000000 256271392.00000000 109414.96093750 8426461.00000000 6655208.50000000 
0.00100    162186336.00000000 101170192.00000000 256192064.00000000 109375.38281250 8423677.00000000 6653011.00000000 
0.00200    162042560.00000000 101076592.00000000 255955808.00000000 109259.26562500 8415238.00000000 6646361.50000000 
0.00300    161793600.00000000 100922000.00000000 255561888.00000000 109064.61718750 8401226.00000000 6635343.00000000 
0.00400    161441360.00000000 100705640.00000000 255010704.00000000 108792.63281250 8381648.00000000 6619907.50000000 
0.00500    160989488.00000000 100427616.00000000 254303312.00000000 108444.90625000 8356558.00000000 6600150.00000000 
0.00600    160443376.00000000 100088936.00000000 253443760.00000000 108021.83593750 8325994.50000000 6576110.50000000 
0.00700    159796752.00000000 99690936.00000000 252432144.00000000 107522.72656250 8290067.00000000 6547891.00000000 
0.00800    159057568.00000000 99235656.00000000 251270208.00000000 106951.42187500 8248821.50000000 6515426.50000000 
0.00900    158225776.00000000 98721104.00000000 249962048.00000000 106308.97656250 8202462.50000000 6478898.50000000 
0.01000    157305168.00000000 98150376.00000000 248510736.00000000 105596.19531250 8150991.00000000 6438380.00000000 
0.01100    156292336.00000000 97523104.00000000 246916624.00000000 104815.56250000 8094531.50000000 6393972.00000000 
0.01200    155191328.00000000 96842928.00000000 245186880.00000000 103967.94531250 8033229.00000000 6345737.00000000 
0.01300    154006848.00000000 96108608.00000000 243322384.00000000 103055.88281250 7967279.50000000 6293787.50000000 
0.01400    152739472.00000000 95325352.00000000 241330288.00000000 102083.32812500 7896794.00000000 6238333.00000000 
0.01500    151394592.00000000 94492648.00000000 239211344.00000000 101050.78906250 7821985.00000000 6179424.00000000 
0.01600    149971488.00000000 93611384.00000000 236972624.00000000 99960.53125000  7743006.00000000 6117213.00000000 
0.01700    148476432.00000000 92685968.00000000 234619296.00000000 98817.00781250  7659927.00000000 6051877.00000000 
0.01800    146908688.00000000 91715320.00000000 232153792.00000000 97621.60156250  7573087.50000000 5983482.00000000 
0.01900    145276320.00000000 90704408.00000000 229583888.00000000 96377.54687500  7482675.00000000 5912245.00000000 
0.02000    143580032.00000000 89654416.00000000 226914352.00000000 95088.33593750  7388789.50000000 5838335.50000000 
0.02100    141823152.00000000 88566176.00000000 224148304.00000000 93756.00000000  7291705.00000000 5761922.50000000 
0.02200    140010896.00000000 87443248.00000000 221294256.00000000 92384.35156250  7191654.50000000 5683087.00000000 
0.02300    138146320.00000000 86287256.00000000 218358400.00000000 90975.54687500  7088784.50000000 5602069.00000000 
0.02400    136231552.00000000 85101960.00000000 215344992.00000000 89534.18750000  6983422.50000000 5519024.00000000 
0.02500    134273600.00000000 83887256.00000000 212261440.00000000 88062.07031250  6875688.50000000 5434158.50000000 
0.02600    132273640.00000000 82647416.00000000 209112160.00000000 86563.11718750  6765819.00000000 5347598.50000000 
0.02700    130236984.00000000 81384336.00000000 205904624.00000000 85040.65625000  6654057.50000000 5259610.50000000 
0.02800    128166952.00000000 80100200.00000000 202643888.00000000 83497.71093750  6540695.00000000 5170215.00000000 
0.02900    126067968.00000000 78798392.00000000 199337312.00000000 81937.40625000  6425802.00000000 5079681.00000000 
0.03000    123943512.00000000 77479616.00000000 195990288.00000000 80362.57812500  6309750.50000000 4988206.50000000 
0.03100    121796712.00000000 76147208.00000000 192608096.00000000 78776.57031250  6192722.50000000 4895979.00000000 
0.03200    119634336.00000000 74804824.00000000 189198976.00000000 77183.38281250  6074923.50000000 4803076.00000000 
0.03300    117457464.00000000 73453408.00000000 185769088.00000000 75584.48437500  5956514.00000000 4709778.50000000 
0.03400    115269480.00000000 72095392.00000000 182320128.00000000 73984.00781250  5837847.00000000 4616202.50000000 
0.03500    113076360.00000000 70732544.00000000 178861632.00000000 72383.85937500  5718997.00000000 4522491.50000000 
0.03600    110880712.00000000 69367592.00000000 175399856.00000000 70786.93750000  5600205.00000000 4428783.50000000 
0.03700    108685496.00000000 68003720.00000000 171938848.00000000 69196.46875000  5481662.50000000 4335278.50000000 
0.03800    106495096.00000000 66641132.00000000 168484736.00000000 67613.89843750  5363526.00000000 4242104.00000000 
0.03900    104312872.00000000 65284008.00000000 165042400.00000000 66043.57031250  5246078.00000000 4149441.50000000 
0.04000    102140936.00000000 63933204.00000000 161617632.00000000 64485.33984375  5129390.50000000 4057365.50000000 
0.04100    99983672.00000000 62590668.00000000 158213824.00000000 62943.04296875  5013714.50000000 3966065.75000000 
0.04200    97844432.00000000 61259012.00000000 154836144.00000000 61418.60937500  4899116.50000000 3875662.25000000 
0.04300    95724080.00000000 59939332.00000000 151491184.00000000 59914.30078125  4785832.50000000 3786249.75000000 
0.04400    93627760.00000000 58633832.00000000 148181680.00000000 58430.61718750  4673938.50000000 3697912.25000000 
0.04500    91556264.00000000 57343744.00000000 144911840.00000000 56970.48437500  4563683.50000000 3610855.00000000 
0.04600    89512752.00000000 56070372.00000000 141686144.00000000 55534.83593750  4455021.50000000 3525061.50000000 
0.04700    87499840.00000000 54816484.00000000 138509376.00000000 54125.17187500  4348181.00000000 3440702.25000000 
0.04800    85518704.00000000 53581956.00000000 135380816.00000000 52743.12109375  4243248.00000000 3357840.50000000 
0.04900    83573864.00000000 52368644.00000000 132310280.00000000 51389.52343750  4140310.50000000 3276532.25000000 
0.05000    81664320.00000000 51177868.00000000 129293960.00000000 50065.10937500  4039477.25000000 3196876.25000000 
0.05100    79792616.00000000 50010428.00000000 126337592.00000000 48771.28906250  3940780.50000000 3118933.25000000 
0.05200    77960528.00000000 48867820.00000000 123443224.00000000 47508.20703125  3844306.00000000 3042709.00000000 
0.05300    76169992.00000000 47750232.00000000 120614008.00000000 46276.85937500  3750132.00000000 2968297.25000000 
0.05400    74422016.00000000 46658852.00000000 117850824.00000000 45077.36328125  3658301.75000000 2895760.00000000 
0.05500    72716040.00000000 45594724.00000000 115157112.00000000 43910.45312500  3568830.25000000 2825035.25000000 
0.05600    71054672.00000000 44557920.00000000 112531784.00000000 42776.39843750  3481764.25000000 2756227.75000000 
0.05700    69438736.00000000 43548596.00000000 109977968.00000000 41674.52343750  3397140.75000000 2689379.00000000 
0.05800    67868344.00000000 42567904.00000000 107496264.00000000 40605.33984375  3314979.00000000 2624396.75000000 
0.05900    66343808.00000000 41615868.00000000 105085864.00000000 39568.61718750  3235220.25000000 2561372.50000000 
0.06000    64865684.00000000 40692416.00000000 102749864.00000000 38564.66406250  3157920.00000000 2500294.75000000 
0.06100    63433948.00000000 39798264.00000000 100487520.00000000 37592.47656250  3083079.75000000 2441139.75000000 
0.06200    62048552.00000000 38933728.00000000 98297728.00000000 36651.67187500  3010658.50000000 2383898.50000000 
0.06300    60709720.00000000 38096920.00000000 96181776.00000000 35742.10937500  2940620.50000000 2328557.00000000 
0.06400    59417368.00000000 37290036.00000000 94138352.00000000 34862.32421875  2872951.25000000 2275066.50000000 
0.06500    58170060.00000000 36511320.00000000 92168216.00000000 34012.94921875  2807597.25000000 2223421.25000000 
0.06600    56968584.00000000 35761380.00000000 90269592.00000000 33192.58984375  2744577.75000000 2173607.75000000 
0.06700    55811924.00000000 35039160.00000000 88441272.00000000 32400.72460938  2683773.00000000 2125537.50000000 
0.06800    54699252.00000000 34344952.00000000 86684040.00000000 31636.14453125  2625153.25000000 2079257.12500000 
0.06900    53629660.00000000 33678216.00000000 84994936.00000000 30898.27343750  2568722.75000000 2034660.25000000 
0.07000    52602944.00000000 33037742.00000000 83371888.00000000 30186.24218750  2514308.75000000 1991684.25000000 
0.07100    51616732.00000000 32423658.00000000 81816896.00000000 29498.95507812  2461930.75000000 1950313.50000000 
0.07200    50671728.00000000 31835136.00000000 80324824.00000000 28835.53125000  2411503.50000000 1910503.25000000 
0.07300    49766052.00000000 31271336.00000000 78896208.00000000 28195.21875000  2362956.75000000 1872187.75000000 
0.07400    48898784.00000000 30732040.00000000 77527112.00000000 27576.75585938  2316224.50000000 1835281.87500000 
0.07500    48067808.00000000 30215822.00000000 76217688.00000000 26979.02148438  2271205.50000000 1799779.12500000 
0.07600    47272816.00000000 29722130.00000000 74964912.00000000 26401.42968750  2227883.75000000 1765581.87500000 
0.07700    46512852.00000000 29250572.00000000 73767056.00000000 25842.88281250  2186112.25000000 1732665.12500000 
0.07800    45785496.00000000 28799918.00000000 72622184.00000000 25302.25976562  2145880.50000000 1700949.00000000 
0.07900    45089668.00000000 28369514.00000000 71528200.00000000 24778.57031250  2107085.25000000 1670364.25000000 
0.08000    44424444.00000000 27958324.00000000 70481576.00000000 24271.11914062  2069629.37500000 1640873.87500000 
0.08100    43787944.00000000 27565810.00000000 69481296.00000000 23778.72656250  2033496.12500000 1612415.00000000 
0.08200    43178756.00000000 27190462.00000000 68525248.00000000 23300.60351562  1998567.12500000 1584905.50000000 
0.08300    42595492.00000000 26831996.00000000 67610624.00000000 22836.06835938  1964765.50000000 1558321.37500000 
0.08400    42037292.00000000 26489188.00000000 66735884.00000000 22383.91601562  1932037.37500000 1532589.12500000 
0.08500    41502216.00000000 26161330.00000000 65898416.00000000 21943.69726562  1900344.75000000 1507630.12500000 
0.08600    40989220.00000000 25847426.00000000 65094496.00000000 21514.67187500  1869564.75000000 1483445.12500000 
0.08700    40496464.00000000 25546682.00000000 64324904.00000000 21095.66601562  1839652.50000000 1459942.00000000 
0.08800    40022636.00000000 25258022.00000000 63585528.00000000 20686.31054688  1810542.37500000 1437076.25000000 
0.08900    39566804.00000000 24980922.00000000 62874352.00000000 20285.92382812  1782190.00000000 1414795.50000000 
0.09000    39127888.00000000 24714550.00000000 62190000.00000000 19893.92773438  1754517.25000000 1393079.37500000 
0.09100    38703556.00000000 24457834.00000000 61529748.00000000 19509.72656250  1727486.25000000 1371852.37500000 
0.09200    38292992.00000000 24209948.00000000 60891660.00000000 19133.01562500  1701020.87500000 1351085.75000000 
0.09300    37896084.00000000 23970392.00000000 60274376.00000000 18763.25976562  1675083.37500000 1330731.00000000 
0.09400    37510136.00000000 23738274.00000000 59675744.00000000 18399.71875000  1649651.25000000 1310767.50000000 
0.09500    37134932.00000000 23512894.00000000 59093664.00000000 18042.07812500  1624645.00000000 1291148.87500000 
0.09600    36769356.00000000 23293650.00000000 58526624.00000000 17690.32812500  1600034.75000000 1271847.12500000 
0.09700    36412188.00000000 23079920.00000000 57973436.00000000 17343.93359375  1575788.12500000 1252820.12500000 
0.09800    36062288.00000000 22870728.00000000 57432356.00000000 17002.54101562  1551880.37500000 1234057.25000000 
0.09900    35719024.00000000 22665700.00000000 56901812.00000000 16666.22656250  1528270.37500000 1215523.62500000 
0.10000    35381284.00000000 22464398.00000000 56379776.00000000 16334.31640625  1504916.00000000 1197187.25000000 
0.10100    35049184.00000000 22266070.00000000 55865872.00000000 16007.01367188  1481799.62500000 1179043.25000000 
0.10200    34720444.00000000 22070512.00000000 55358316.00000000 15684.13867188  1458909.87500000 1161064.50000000 
0.10300    34395600.00000000 21876892.00000000 54856248.00000000 15365.33789062  1436220.50000000 1143232.37500000 
0.10400    34073732.00000000 21685096.00000000 54358884.00000000 15050.71777344  1413714.12500000 1125542.87500000 
0.10500    33753476.00000000 21494444.00000000 53864540.00000000 14740.33496094  1391377.87500000 1107969.25000000 
0.10600    33435236.00000000 21304540.00000000 53372560.00000000 14433.88085938  1369183.62500000 1090511.25000000 
0.10700    33118076.00000000 21115392.00000000 52882132.00000000 14131.46191406  1347142.37500000 1073159.62500000 
0.10800    32801714.00000000 20926394.00000000 52392976.00000000 13833.12792969  1325235.25000000 1055910.12500000 
0.10900    32485624.00000000 20737440.00000000 51903652.00000000 13538.73632812  1303461.75000000 1038747.56250000 
0.11000    32169614.00000000 20548202.00000000 51414140.00000000 13248.42871094  1281801.62500000 1021676.62500000 
0.11100    31853092.00000000 20358582.00000000 50923436.00000000 12962.26269531  1260277.87500000 1004685.00000000 
0.11200    31536152.00000000 20168004.00000000 50432124.00000000 12680.18164062  1238870.37500000 987791.18750000 
0.11300    31218182.00000000 19976944.00000000 49938232.00000000 12402.24707031  1217590.25000000 970971.81250000 
0.11400    30899252.00000000 19784696.00000000 49442504.00000000 12128.64550781  1196431.00000000 954243.81250000 
0.11500    30579116.00000000 19591360.00000000 48944700.00000000 11859.22363281  1175403.50000000 937613.37500000 
0.11600    30257560.00000000 19396980.00000000 48444376.00000000 11594.12890625  1154513.62500000 921064.56250000 
0.11700    29934902.00000000 19201282.00000000 47941440.00000000 11333.51074219  1133751.87500000 904617.93750000 
0.11800    29610724.00000000 19004220.00000000 47435964.00000000 11077.22460938  1113128.62500000 888271.06250000 
0.11900    29285184.00000000 18805910.00000000 46927040.00000000 10825.36523438  1092666.00000000 872032.31250000 
0.12000    28958022.00000000 18606418.00000000 46415560.00000000 10578.06542969  1072331.12500000 855901.87500000 
0.12100    28629524.00000000 18405448.00000000 45901688.00000000 10335.32324219  1052184.50000000 839899.50000000 
0.12200    28299802.00000000 18203148.00000000 45384644.00000000 10097.19726562  1032201.43750000 824007.87500000 
0.12300    27968820.00000000 17999908.00000000 44865384.00000000 9863.64355469   1012393.37500000 808250.93750000 
0.12400    27636452.00000000 17795048.00000000 44343560.00000000 9634.66210938   992774.31250000 792638.43750000 
0.12500    27303152.00000000 17589398.00000000 43819560.00000000 9410.33789062   973342.00000000 777158.87500000 
0.12600    26969138.00000000 17382656.00000000 43293748.00000000 9190.70898438   954115.00000000 761836.43750000 
0.12700    26633908.00000000 17174860.00000000 42765800.00000000 8975.48144531   935096.87500000 746666.31250000 
0.12800    26298250.00000000 16966302.00000000 42236484.00000000 8764.90527344   916287.62500000 731654.87500000 
0.12900    25962106.00000000 16756845.00000000 41705692.00000000 8558.96582031   897699.93750000 716816.37500000 
0.13000    25625484.00000000 16547020.00000000 41173816.00000000 8357.48046875   879335.43750000 702150.75000000 
0.13100    25288912.00000000 16336440.00000000 40641128.00000000 8160.40283203   861211.31250000 687662.18750000 
0.13200    24952408.00000000 16125705.00000000 40108404.00000000 7967.74951172   843321.75000000 673358.50000000 
0.13300    24616010.00000000 15914458.00000000 39575172.00000000 7779.50097656   825673.43750000 659248.00000000 
0.13400    24279856.00000000 15703102.00000000 39041980.00000000 7595.54687500   808279.25000000 645325.50000000 
0.13500    23944554.00000000 15491917.00000000 38509832.00000000 7415.68457031   791133.81250000 631598.81250000 
0.13600    23609796.00000000 15280527.00000000 37977472.00000000 7239.99609375   774246.00000000 618072.06250000 
0.13700    23276056.00000000 15069509.00000000 37446440.00000000 7068.33642578   757615.62500000 604742.43750000 
0.13800    22943226.00000000 14858797.00000000 36917112.00000000 6900.57031250   741239.75000000 591621.37500000 
0.13900    22612094.00000000 14648636.00000000 36389112.00000000 6736.66113281   725138.18750000 578713.37500000 
0.14000    22282240.00000000 14439063.00000000 35862768.00000000 6576.60644531   709295.93750000 566008.25000000 
0.14100    21953828.00000000 14230065.00000000 35339304.00000000 6420.07910156   693723.18750000 553511.81250000 
0.14200    21627176.00000000 14021946.00000000 34817584.00000000 6267.11914062   678407.62500000 541225.06250000 
0.14300    21302624.00000000 13814808.00000000 34298932.00000000 6117.67871094   663367.75000000 529156.37500000 
0.14400    20980032.00000000 13608672.00000000 33783136.00000000 5971.50000000   648581.62500000 517291.28125000 
0.14500    20659720.00000000 13403737.00000000 33270802.00000000 5828.64794922   634065.00000000 505640.71875000 
0.14600    20341706.00000000 13200047.00000000 32761974.00000000 5688.86523438   619811.37500000 494199.46875000 
0.14700    20026296.00000000 12997738.00000000 32256766.00000000 5552.26025391   605818.93750000 482964.78125000 
0.14800    19713246.00000000 12796818.00000000 31755018.00000000 5418.58837891   592088.62500000 471940.59375000 
0.14900    19403092.00000000 12597527.00000000 31257534.00000000 5287.69580078   578606.87500000 461119.53125000 
0.15000    19095602.00000000 12399658.00000000 30764318.00000000 5159.76513672   565388.93750000 450507.53125000 
0.15100    18791360.00000000 12203542.00000000 30275702.00000000 5034.45019531   552413.56250000 440094.59375000 
0.15200    18489702.00000000 12009238.00000000 29791516.00000000 4911.87792969   539693.50000000 429886.21875000 
0.15300    18191144.00000000 11816741.00000000 29312444.00000000 4791.78125000   527215.93750000 419869.34375000 
0.15400    17896050.00000000 11626066.00000000 28837724.00000000 4674.26416016   514982.31250000 410052.71875000 
0.15500    17603990.00000000 11437328.00000000 28368176.00000000 4559.22802734   502985.31250000 400426.46875000 
0.15600    17315052.00000000 11250567.00000000 27903634.00000000 4446.53759766   491226.56250000 390991.93750000 
0.15700    17029628.00000000 11065973.00000000 27444802.00000000 4336.27685547   479697.37500000 381743.56250000 
0.15800    16747540.00000000 10883310.00000000 26990546.00000000 4228.29931641   468396.50000000 372681.78125000 
0.15900    16468916.00000000 10702835.00000000 26542016.00000000 4122.58789062   457322.53125000 363800.65625000 
0.16000    16193641.00000000 10524468.00000000 26098906.00000000 4019.15942383   446465.50000000 355097.31250000 
0.16100    15921759.00000000 10348366.00000000 25661468.00000000 3917.97631836   435832.56250000 346570.75000000 
0.16200    15653473.00000000 10174322.00000000 25229446.00000000 3818.95678711   425410.78125000 338214.96875000 
0.16300    15388753.00000000 10002595.00000000 24802922.00000000 3722.14794922   415201.43750000 330034.96875000 
0.16400    15127442.00000000 9833150.00000000 24382004.00000000 3627.55834961   405200.75000000 322022.37500000 
0.16500    14869713.00000000 9665837.00000000 23967002.00000000 3535.05322266   395401.93750000 314169.84375000 
0.16600    14615591.00000000 9500889.00000000 23557552.00000000 3444.79223633   385808.12500000 306483.56250000 
0.16700    14365027.00000000 9338106.00000000 23153488.00000000 3356.63159180   376408.59375000 298955.65625000 
0.16800    14117997.00000000 9177602.00000000 22755252.00000000 3270.60205078   367206.78125000 291582.18750000 
0.16900    13874515.00000000 9019445.00000000 22362714.00000000 3186.80322266   358196.84375000 284366.03125000 
0.17000    13634486.00000000 8863436.00000000 21976016.00000000 3105.13183594   349375.87500000 277300.75000000 
