# SAXS profile: number of points = 501, q_min = 0, q_max = 0.5, delta_q = 0.001
#    q    intensity 
0.00000    162233872.00000000 101201728.00000000 256271136.00000000 104259.90625000 8225540.00000000 6496530.50000000 
0.00100    162199408.00000000 101177904.00000000 256212000.00000000 104226.91406250 8223319.50000000 6494762.50000000 
0.00200    162088976.00000000 101107744.00000000 256034496.00000000 104130.42968750 8216547.00000000 6489451.50000000 
0.00300    161905296.00000000 100991904.00000000 255738192.00000000 103969.27343750 8205283.00000000 6480611.50000000 
0.00400    161638384.00000000 100829408.00000000 255323440.00000000 103744.35156250 8189617.50000000 6468270.50000000 
0.00500    161298832.00000000 100621008.00000000 254791840.00000000 103455.48437500 8169452.00000000 6452373.50000000 
0.00600    160884912.00000000 100364648.00000000 254140368.00000000 103105.15625000 8144894.50000000 6433089.00000000 
0.00700    160397984.00000000 100064768.00000000 253378512.00000000 102692.04687500 8115980.50000000 6410339.00000000 
0.00800    159835536.00000000 99720000.00000000 252502288.00000000 102216.46093750 8082841.00000000 6384250.00000000 
0.00900    159206032.00000000 99332208.00000000 251511632.00000000 101682.83593750 8045425.00000000 6354790.50000000 
0.01000    158507168.00000000 98900408.00000000 250409632.00000000 101088.89843750 8003855.50000000 6322099.50000000 
0.01100    157737696.00000000 98425256.00000000 249200528.00000000 100438.37500000 7958255.00000000 6286202.50000000 
0.01200    156900784.00000000 97907592.00000000 247884240.00000000 99731.21875000  7908638.50000000 6247185.00000000 
0.01300    155995168.00000000 97349768.00000000 246463792.00000000 98969.19531250  7855195.50000000 6205110.50000000 
0.01400    155025456.00000000 96751032.00000000 244940112.00000000 98154.10156250  7797909.50000000 6160036.50000000 
0.01500    153993104.00000000 96114096.00000000 243318896.00000000 97287.80468750  7737004.00000000 6112136.00000000 
0.01600    152900160.00000000 95438600.00000000 241598944.00000000 96371.67187500  7672468.50000000 6061341.50000000 
0.01700    151746336.00000000 94726824.00000000 239785824.00000000 95408.40625000  7604585.00000000 6007901.50000000 
0.01800    150534720.00000000 93978312.00000000 237881888.00000000 94399.03906250  7533366.00000000 5951806.00000000 
0.01900    149267264.00000000 93195432.00000000 235889872.00000000 93345.82812500  7458977.50000000 5893318.00000000 
0.02000    147945264.00000000 92379688.00000000 233812976.00000000 92251.63281250  7381575.00000000 5832341.50000000 
0.02100    146574320.00000000 91531216.00000000 231655568.00000000 91118.43750000  7301284.00000000 5769142.00000000 
0.02200    145151328.00000000 90653016.00000000 229420032.00000000 89947.78125000  7218271.00000000 5703821.50000000 
0.02300    143682832.00000000 89744944.00000000 227108480.00000000 88742.91406250  7132635.50000000 5636360.00000000 
0.02400    142168960.00000000 88809664.00000000 224730160.00000000 87505.53906250  7044569.00000000 5566972.50000000 
0.02500    140613472.00000000 87847912.00000000 222281856.00000000 86238.25000000  6954191.50000000 5495823.00000000 
0.02600    139017296.00000000 86860120.00000000 219772224.00000000 84943.71875000  6861723.50000000 5423030.00000000 
0.02700    137383712.00000000 85849912.00000000 217201936.00000000 83623.85937500  6767306.50000000 5348661.50000000 
0.02800    135715344.00000000 84817568.00000000 214578272.00000000 82281.78125000  6671038.00000000 5272816.50000000 
0.02900    134013968.00000000 83765080.00000000 211902144.00000000 80919.08593750  6573128.50000000 5195769.50000000 
0.03000    132283024.00000000 82693560.00000000 209178224.00000000 79538.51562500  6473797.00000000 5117429.50000000 
0.03100    130524976.00000000 81604064.00000000 206410464.00000000 78142.96093750  6373061.00000000 5038129.00000000 
0.03200    128741600.00000000 80499760.00000000 203603712.00000000 76734.52343750  6271207.00000000 4957864.00000000 
0.03300    126935824.00000000 79381352.00000000 200761200.00000000 75315.67968750  6168348.00000000 4876824.50000000 
0.03400    125110168.00000000 78250104.00000000 197885440.00000000 73887.75000000  6064671.00000000 4795110.00000000 
0.03500    123266880.00000000 77108248.00000000 194985840.00000000 72455.36718750  5960285.50000000 4712819.00000000 
0.03600    121409784.00000000 75956880.00000000 192060304.00000000 71018.39062500  5855354.50000000 4630149.50000000 
0.03700    119538456.00000000 74796736.00000000 189113920.00000000 69580.64843750  5750074.00000000 4547168.00000000 
0.03800    117658576.00000000 73630464.00000000 186151888.00000000 68143.11718750  5644537.00000000 4463953.00000000 
0.03900    115770800.00000000 72459336.00000000 183176368.00000000 66708.95312500  5538899.50000000 4380678.00000000 
0.04000    113877544.00000000 71283840.00000000 180192544.00000000 65279.17187500  5433317.50000000 4297424.00000000 
0.04100    111981184.00000000 70105768.00000000 177205376.00000000 63856.22656250  5327967.50000000 4214354.50000000 
0.04200    110084128.00000000 68927760.00000000 174215408.00000000 62442.21484375  5222917.00000000 4131477.00000000 
0.04300    108188440.00000000 67750184.00000000 171226736.00000000 61038.37109375  5118281.00000000 4048978.50000000 
0.04400    106295992.00000000 66573832.00000000 168243920.00000000 59646.94531250  5014255.50000000 3966927.25000000 
0.04500    104410008.00000000 65401340.00000000 165268592.00000000 58269.50781250  4910988.00000000 3885412.50000000 
0.04600    102531208.00000000 64233264.00000000 162306064.00000000 56907.17578125  4808443.50000000 3804511.25000000 
0.04700    100662160.00000000 63070436.00000000 159357616.00000000 55561.49609375  4706837.50000000 3724327.75000000 
0.04800    98804488.00000000 61914400.00000000 156425552.00000000 54233.94140625  4606251.50000000 3644945.75000000 
0.04900    96959808.00000000 60766432.00000000 153515472.00000000 52926.30078125  4506766.00000000 3566431.50000000 
0.05000    95129648.00000000 59627004.00000000 150627888.00000000 51638.91406250  4408498.50000000 3488851.75000000 
0.05100    93316800.00000000 58497496.00000000 147765872.00000000 50372.93359375  4311495.00000000 3412300.00000000 
0.05200    91521240.00000000 57379096.00000000 144930544.00000000 49129.78515625  4215921.00000000 3336780.25000000 
0.05300    89745216.00000000 56272188.00000000 142126736.00000000 47909.88281250  4121701.00000000 3262427.25000000 
0.05400    87990456.00000000 55178016.00000000 139356864.00000000 46714.42968750  4029033.75000000 3189239.25000000 
0.05500    86257456.00000000 54097248.00000000 136620064.00000000 45543.49609375  3937935.50000000 3117271.50000000 
0.05600    84547696.00000000 53031076.00000000 133918832.00000000 44398.21875000  3848478.25000000 3046594.50000000 
0.05700    82862368.00000000 51979428.00000000 131256416.00000000 43279.02343750  3760670.75000000 2977210.00000000 
0.05800    81202640.00000000 50943232.00000000 128633984.00000000 42185.93750000  3674552.75000000 2909184.00000000 
0.05900    79568616.00000000 49923668.00000000 126052816.00000000 41119.50390625  3590192.75000000 2842531.00000000 
0.06000    77962456.00000000 48920600.00000000 123513096.00000000 40079.78906250  3507617.50000000 2777268.25000000 
0.06100    76384000.00000000 47934756.00000000 121018040.00000000 39067.14453125  3426850.00000000 2713408.00000000 
0.06200    74834224.00000000 46966424.00000000 118568464.00000000 38081.34375000  3347893.25000000 2651015.00000000 
0.06300    73313232.00000000 46016344.00000000 116164032.00000000 37122.69921875  3270787.50000000 2590063.50000000 
0.06400    71822704.00000000 45084104.00000000 113806560.00000000 36190.65234375  3195499.25000000 2530530.50000000 
0.06500    70361360.00000000 44170672.00000000 111495800.00000000 35285.51562500  3122079.00000000 2472501.00000000 
0.06600    68931096.00000000 43276320.00000000 109232696.00000000 34406.31640625  3050491.75000000 2415876.50000000 
0.06700    67531472.00000000 42400948.00000000 107019384.00000000 33553.82812500  2980758.25000000 2360740.00000000 
0.06800    66161816.00000000 41544344.00000000 104853512.00000000 32726.76367188  2912862.00000000 2307044.25000000 
0.06900    64823904.00000000 40707052.00000000 102737360.00000000 31925.02929688  2846771.00000000 2254760.50000000 
0.07000    63516904.00000000 39889500.00000000 100668920.00000000 31148.01367188  2782475.50000000 2203916.50000000 
0.07100    62240908.00000000 39091024.00000000 98650208.00000000 30395.39062500  2719935.50000000 2154453.25000000 
0.07200    60995372.00000000 38311844.00000000 96680176.00000000 29666.71484375  2659185.75000000 2106375.75000000 
0.07300    59780956.00000000 37551996.00000000 94759288.00000000 28961.07617188  2600146.00000000 2059660.37500000 
0.07400    58597260.00000000 36811180.00000000 92886744.00000000 28278.03906250  2542781.50000000 2014298.75000000 
0.07500    57443692.00000000 36089500.00000000 91061160.00000000 27616.63671875  2487072.25000000 1970245.25000000 
0.07600    56320060.00000000 35386328.00000000 89283432.00000000 26976.73828125  2432997.00000000 1927451.75000000 
0.07700    55226184.00000000 34702136.00000000 87552360.00000000 26356.93164062  2380490.25000000 1885914.62500000 
0.07800    54161160.00000000 34036140.00000000 85868368.00000000 25757.10546875  2329523.25000000 1845603.25000000 
0.07900    53124992.00000000 33388366.00000000 84229072.00000000 25176.13671875  2280067.50000000 1806454.25000000 
0.08000    52117208.00000000 32757946.00000000 82635600.00000000 24613.71875000  2232036.25000000 1768476.87500000 
0.08100    51137048.00000000 32145460.00000000 81085016.00000000 24068.61718750  2185430.00000000 1731606.75000000 
0.08200    50184064.00000000 31549908.00000000 79579144.00000000 23540.16210938  2140173.25000000 1695821.87500000 
0.08300    49257948.00000000 30971272.00000000 78114360.00000000 23028.01953125  2096243.37500000 1661063.37500000 
0.08400    48357492.00000000 30409056.00000000 76691048.00000000 22530.86718750  2053568.12500000 1627329.12500000 
0.08500    47482556.00000000 29862992.00000000 75308168.00000000 22048.39453125  2012112.50000000 1594535.87500000 
0.08600    46632060.00000000 29332220.00000000 73964728.00000000 21579.68750000  1971828.62500000 1562690.87500000 
0.08700    45805648.00000000 28816806.00000000 72659432.00000000 21124.11132812  1932670.37500000 1531734.25000000 
0.08800    45002276.00000000 28316268.00000000 71390848.00000000 20681.14648438  1894596.50000000 1501629.75000000 
0.08900    44221720.00000000 27830208.00000000 70158640.00000000 20249.66406250  1857540.50000000 1472340.00000000 
0.09000    43463016.00000000 27358074.00000000 68961944.00000000 19829.49609375  1821477.37500000 1443840.62500000 
0.09100    42725468.00000000 26899446.00000000 67798616.00000000 19419.70312500  1786344.00000000 1416082.12500000 
0.09200    42008800.00000000 26453700.00000000 66667556.00000000 19019.80273438  1752106.25000000 1389017.87500000 
0.09300    41311476.00000000 26020736.00000000 65568832.00000000 18629.27929688  1718741.12500000 1362647.87500000 
0.09400    40633584.00000000 25599816.00000000 64499516.00000000 18247.65429688  1686161.62500000 1336919.25000000 
0.09500    39973292.00000000 25190624.00000000 63459996.00000000 17874.12304688  1654363.12500000 1311789.12500000 
0.09600    39331384.00000000 24792762.00000000 62449136.00000000 17508.38281250  1623283.25000000 1287241.87500000 
0.09700    38706552.00000000 24405670.00000000 61465000.00000000 17149.94921875  1592895.00000000 1263247.87500000 
0.09800    38097428.00000000 24029014.00000000 60507272.00000000 16798.38476562  1563167.62500000 1239773.25000000 
0.09900    37504108.00000000 23662386.00000000 59573872.00000000 16453.33398438  1534065.87500000 1216804.50000000 
0.10000    36925696.00000000 23305118.00000000 58664784.00000000 16114.45507812  1505548.87500000 1194284.50000000 
0.10100    36361976.00000000 22957274.00000000 57778168.00000000 15781.33300781  1477590.12500000 1172222.37500000 
0.10200    35811596.00000000 22617852.00000000 56913684.00000000 15453.74316406  1450160.62500000 1150571.12500000 
0.10300    35274132.00000000 22286988.00000000 56070328.00000000 15131.26953125  1423230.12500000 1129303.12500000 
0.10400    34749128.00000000 21964074.00000000 55246436.00000000 14813.83984375  1396785.00000000 1108424.12500000 
0.10500    34236436.00000000 21648794.00000000 54441840.00000000 14501.23925781  1370785.12500000 1087916.62500000 
0.10600    33734804.00000000 21340632.00000000 53655208.00000000 14193.15136719  1345217.12500000 1067730.00000000 
0.10700    33244182.00000000 21039502.00000000 52886000.00000000 13889.48339844  1320059.37500000 1047869.93750000 
0.10800    32763674.00000000 20744808.00000000 52133392.00000000 13590.00097656  1295304.37500000 1028322.25000000 
0.10900    32293092.00000000 20456328.00000000 51395916.00000000 13294.69433594  1270899.12500000 1009071.56250000 
0.11000    31831850.00000000 20173766.00000000 50673344.00000000 13003.40136719  1246865.62500000 990094.75000000 
0.11100    31379324.00000000 19896618.00000000 49965164.00000000 12716.19531250  1223182.12500000 971386.06250000 
0.11200    30935390.00000000 19624830.00000000 49270208.00000000 12432.80761719  1199822.00000000 952945.68750000 
0.11300    30499692.00000000 19358224.00000000 48587836.00000000 12153.38769531  1176782.62500000 934754.56250000 
0.11400    30071520.00000000 19096412.00000000 47917964.00000000 11877.79589844  1154059.37500000 916815.00000000 
0.11500    29650586.00000000 18839292.00000000 47259528.00000000 11605.99316406  1131654.50000000 899108.00000000 
0.11600    29236796.00000000 18586212.00000000 46611900.00000000 11338.11132812  1109535.75000000 881627.31250000 
0.11700    28829368.00000000 18337416.00000000 45974656.00000000 11074.17089844  1087715.37500000 864384.50000000 
0.11800    28428708.00000000 18092330.00000000 45347628.00000000 10814.07617188  1066167.00000000 847352.62500000 
0.11900    28033698.00000000 17851040.00000000 44730176.00000000 10557.96582031  1044911.75000000 830548.43750000 
0.12000    27644618.00000000 17613138.00000000 44121000.00000000 10305.80761719  1023929.93750000 813956.56250000 
0.12100    27261264.00000000 17378700.00000000 43521020.00000000 10057.74511719  1003233.43750000 797592.50000000 
0.12200    26882970.00000000 17147204.00000000 42929556.00000000 9813.69140625   982816.25000000 781432.18750000 
0.12300    26509756.00000000 16919204.00000000 42345520.00000000 9573.88867188   962676.87500000 765486.81250000 
0.12400    26141552.00000000 16693899.00000000 41769020.00000000 9338.24804688   942806.93750000 749762.43750000 
0.12500    25777906.00000000 16471185.00000000 41199748.00000000 9106.85742188   923217.31250000 734245.12500000 
0.12600    25419090.00000000 16251269.00000000 40637260.00000000 8879.81835938   903906.25000000 718951.62500000 
0.12700    25064680.00000000 16033938.00000000 40081828.00000000 8657.09570312   884876.37500000 703865.81250000 
0.12800    24714176.00000000 15818809.00000000 39532948.00000000 8438.84667969   866118.87500000 688997.50000000 
0.12900    24368170.00000000 15606369.00000000 38990152.00000000 8225.00097656   847653.87500000 674352.25000000 
0.13000    24026094.00000000 15395997.00000000 38453328.00000000 8015.69970703   829463.31250000 659922.43750000 
0.13100    23687974.00000000 15187840.00000000 37922648.00000000 7810.98925781   811557.87500000 645717.18750000 
0.13200    23353300.00000000 14981887.00000000 37397236.00000000 7610.78466797   793953.43750000 631732.87500000 
0.13300    23022816.00000000 14777960.00000000 36877628.00000000 7415.24755859   776628.25000000 617978.06250000 
0.13400    22695680.00000000 14576023.00000000 36363556.00000000 7224.26562500   759588.81250000 604445.50000000 
0.13500    22372266.00000000 14376077.00000000 35854472.00000000 7037.88378906   742848.93750000 591138.06250000 
0.13600    22052276.00000000 14178028.00000000 35351020.00000000 6856.15234375   726396.81250000 578058.56250000 
0.13700    21735998.00000000 13981873.00000000 34852684.00000000 6679.03125000   710238.25000000 565212.37500000 
0.13800    21422760.00000000 13787562.00000000 34359072.00000000 6506.45800781   694375.06250000 552593.00000000 
0.13900    21112932.00000000 13595111.00000000 33870584.00000000 6338.42822266   678806.37500000 540197.75000000 
0.14000    20806590.00000000 13404493.00000000 33387026.00000000 6174.99951172   663532.12500000 528038.81250000 
0.14100    20503424.00000000 13215594.00000000 32908252.00000000 6016.04492188   648553.62500000 516111.81250000 
0.14200    20203532.00000000 13028499.00000000 32434282.00000000 5861.37744141   633869.75000000 504413.15625000 
0.14300    19906702.00000000 12843123.00000000 31965152.00000000 5711.17285156   619471.18750000 492941.15625000 
0.14400    19612980.00000000 12659341.00000000 31500324.00000000 5565.25292969   605367.37500000 481697.00000000 
0.14500    19322558.00000000 12477361.00000000 31040664.00000000 5423.54492188   591554.43750000 470685.65625000 
0.14600    19035392.00000000 12297055.00000000 30585184.00000000 5286.09863281   578032.37500000 459896.87500000 
0.14700    18751072.00000000 12118531.00000000 30134628.00000000 5152.62158203   564787.62500000 449331.93750000 
0.14800    18470028.00000000 11941586.00000000 29688474.00000000 5023.11279297   551818.68750000 438985.59375000 
0.14900    18191552.00000000 11766340.00000000 29246910.00000000 4897.44531250   539138.12500000 428860.18750000 
0.15000    17916542.00000000 11592684.00000000 28809622.00000000 4775.58740234   526726.37500000 418950.50000000 
0.15100    17644330.00000000 11420744.00000000 28377160.00000000 4657.41015625   514584.03125000 409257.28125000 
0.15200    17375360.00000000 11250500.00000000 27948972.00000000 4542.80126953   502714.15625000 399771.62500000 
0.15300    17109142.00000000 11081897.00000000 27525256.00000000 4431.59863281   491101.40625000 390496.96875000 
0.15400    16845884.00000000 10914950.00000000 27105888.00000000 4323.68115234   479739.84375000 381419.18750000 
0.15500    16585613.00000000 10749585.00000000 26691078.00000000 4219.03076172   468633.40625000 372544.21875000 
0.15600    16328166.00000000 10585895.00000000 26280478.00000000 4117.48828125   457770.71875000 363864.25000000 
0.15700    16073753.00000000 10423900.00000000 25874348.00000000 4018.91040039   447149.68750000 355374.46875000 
0.15800    15821993.00000000 10263426.00000000 25472318.00000000 3923.14306641   436759.93750000 347068.18750000 
0.15900    15573052.00000000 10104574.00000000 25074820.00000000 3830.18896484   426600.71875000 338950.90625000 
0.16000    15326895.00000000 9947375.00000000 24681476.00000000 3739.82739258   416662.21875000 331002.50000000 
0.16100    15083662.00000000 9791974.00000000 24292458.00000000 3652.01489258   406942.81250000 323232.78125000 
0.16200    14843125.00000000 9638019.00000000 23907574.00000000 3566.61938477   397432.09375000 315627.50000000 
0.16300    14605348.00000000 9485683.00000000 23527290.00000000 3483.50488281   388123.12500000 308187.46875000 
0.16400    14370294.00000000 9334985.00000000 23150954.00000000 3402.58984375   379017.56250000 300907.37500000 
0.16500    14138008.00000000 9185966.00000000 22778828.00000000 3323.78173828   370098.62500000 293776.93750000 
0.16600    13908402.00000000 9038536.00000000 22410776.00000000 3246.96411133   361371.43750000 286801.43750000 
0.16700    13681321.00000000 8892655.00000000 22046974.00000000 3172.04663086   352817.15625000 279964.00000000 
0.16800    13456958.00000000 8748363.00000000 21687092.00000000 3098.93554688   344439.62500000 273266.96875000 
0.16900    13235342.00000000 8605711.00000000 21331462.00000000 3027.61279297   336235.87500000 266708.28125000 
0.17000    13016180.00000000 8464638.00000000 20979956.00000000 2957.90136719   328189.84375000 260276.65625000 
