# SAXS profile: number of points = 501, q_min = 0, q_max = 0.5, delta_q = 0.001
#    q    intensity 
0.00000    162233072.00000000 101201616.00000000 256270368.00000000 105758.14062500 8284429.50000000 6543059.00000000 
0.00100    162204816.00000000 101182408.00000000 256221792.00000000 105728.79687500 8282486.50000000 6541513.00000000 
0.00200    162113648.00000000 101124976.00000000 256073488.00000000 105643.47656250 8276627.00000000 6536921.00000000 
0.00300    161959712.00000000 101028200.00000000 255827200.00000000 105500.45312500 8266835.50000000 6529224.50000000 
0.00400    161738544.00000000 100893224.00000000 255482496.00000000 105300.40625000 8253182.00000000 6518529.50000000 
0.00500    161454320.00000000 100720528.00000000 255039328.00000000 105044.54687500 8235656.00000000 6504791.50000000 
0.00600    161105808.00000000 100508384.00000000 254497712.00000000 104732.15625000 8214296.00000000 6488034.50000000 
0.00700    160700304.00000000 100259568.00000000 253862096.00000000 104364.51562500 8189142.00000000 6468305.50000000 
0.00800    160228112.00000000 99973176.00000000 253130064.00000000 103942.42968750 8160235.00000000 6445622.00000000 
0.00900    159698256.00000000 99650560.00000000 252303424.00000000 103465.93750000 8127571.00000000 6420031.50000000 
0.01000    159109168.00000000 99290824.00000000 251381744.00000000 102936.85156250 8091276.00000000 6391547.00000000 
0.01100    158463808.00000000 98895752.00000000 250368784.00000000 102354.60937500 8051383.50000000 6360246.00000000 
0.01200    157758608.00000000 98464032.00000000 249265040.00000000 101722.32031250 8007918.50000000 6326165.50000000 
0.01300    156994784.00000000 97997160.00000000 248071136.00000000 101038.64843750 7960984.00000000 6289376.50000000 
0.01400    156174112.00000000 97495720.00000000 246789968.00000000 100306.88281250 7910646.00000000 6249907.00000000 
0.01500    155298800.00000000 96960424.00000000 245421392.00000000 99527.38281250  7857000.50000000 6207782.50000000 
0.01600    154370592.00000000 96392336.00000000 243968880.00000000 98701.91406250  7800109.50000000 6163198.50000000 
0.01700    153389856.00000000 95792920.00000000 242433792.00000000 97831.07031250  7740085.00000000 6116087.00000000 
0.01800    152356624.00000000 95160856.00000000 240818624.00000000 96917.08593750  7676974.00000000 6066588.50000000 
0.01900    151272736.00000000 94498088.00000000 239123856.00000000 95961.62500000  7610891.50000000 6014821.50000000 
0.02000    150142464.00000000 93805312.00000000 237353072.00000000 94965.48437500  7541980.00000000 5960704.50000000 
0.02100    148962336.00000000 93083968.00000000 235507328.00000000 93931.50000000  7470340.00000000 5904433.50000000 
0.02200    147737600.00000000 92333984.00000000 233590624.00000000 92859.84375000  7396015.00000000 5846110.50000000 
0.02300    146468640.00000000 91557328.00000000 231604160.00000000 91754.07812500  7319146.50000000 5785838.00000000 
0.02400    145157312.00000000 90752880.00000000 229549616.00000000 90614.25000000  7239864.00000000 5723536.50000000 
0.02500    143803632.00000000 89924000.00000000 227430528.00000000 89443.46875000  7158290.50000000 5659494.00000000 
0.02600    142411872.00000000 89070952.00000000 225250368.00000000 88242.54687500  7074455.50000000 5593704.50000000 
0.02700    140982128.00000000 88194208.00000000 223012240.00000000 87014.60937500  6988590.50000000 5526290.50000000 
0.02800    139516208.00000000 87295344.00000000 220716016.00000000 85760.90625000  6900788.00000000 5457335.00000000 
0.02900    138016160.00000000 86374832.00000000 218365936.00000000 84483.46875000  6811104.00000000 5386929.50000000 
0.03000    136483472.00000000 85433368.00000000 215964192.00000000 83184.47656250  6719726.00000000 5315176.50000000 
0.03100    134919040.00000000 84474600.00000000 213515440.00000000 81865.14062500  6626827.50000000 5242144.50000000 
0.03200    133328400.00000000 83497088.00000000 211020176.00000000 80527.80468750  6532439.00000000 5167979.50000000 
0.03300    131709624.00000000 82502464.00000000 208482080.00000000 79174.85937500  6436690.50000000 5092811.50000000 
0.03400    130065792.00000000 81492192.00000000 205905376.00000000 77807.72656250  6339780.50000000 5016636.50000000 
0.03500    128399016.00000000 80466976.00000000 203291168.00000000 76428.48437500  6241775.00000000 4939602.00000000 
0.03600    126709848.00000000 79427936.00000000 200639872.00000000 75039.27343750  6142758.50000000 4861797.50000000 
0.03700    125001888.00000000 78377120.00000000 197960192.00000000 73641.64843750  6042973.00000000 4783355.50000000 
0.03800    123275840.00000000 77315616.00000000 195254192.00000000 72237.79687500  5942459.50000000 4704324.50000000 
0.03900    121534464.00000000 76242744.00000000 192519280.00000000 70828.85937500  5841375.50000000 4624808.50000000 
0.04000    119777936.00000000 75160776.00000000 189761728.00000000 69418.03125000  5739799.50000000 4544940.00000000 
0.04100    118010368.00000000 74071040.00000000 186984048.00000000 68005.41406250  5637848.50000000 4464755.00000000 
0.04200    116230480.00000000 72973624.00000000 184190960.00000000 66593.58593750  5535708.00000000 4384358.50000000 
0.04300    114442912.00000000 71870408.00000000 181381840.00000000 65183.80859375  5433398.50000000 4303865.00000000 
0.04400    112647912.00000000 70762520.00000000 178562832.00000000 63778.45703125  5331071.50000000 4223332.50000000 
0.04500    110848144.00000000 69651240.00000000 175732272.00000000 62378.66796875  5228849.00000000 4142832.50000000 
0.04600    109043704.00000000 68537352.00000000 172896864.00000000 60985.96875000  5126779.50000000 4062484.00000000 
0.04700    107238432.00000000 67421152.00000000 170058512.00000000 59601.92968750  5025041.50000000 3982382.75000000 
0.04800    105432496.00000000 66303644.00000000 167216528.00000000 58228.00390625  4923701.00000000 3902547.00000000 
0.04900    103627208.00000000 65186712.00000000 164376368.00000000 56865.23828125  4822872.00000000 3823090.50000000 
0.05000    101825584.00000000 64071032.00000000 161540272.00000000 55514.96875000  4722620.50000000 3744091.50000000 
0.05100    100027424.00000000 62957032.00000000 158709312.00000000 54178.90625000  4623003.00000000 3665595.50000000 
0.05200    98235128.00000000 61846572.00000000 155887648.00000000 52857.79687500  4524164.50000000 3587672.50000000 
0.05300    96449384.00000000 60739404.00000000 153075792.00000000 51552.98046875  4426148.00000000 3510378.75000000 
0.05400    94672064.00000000 59637096.00000000 150276048.00000000 50265.06640625  4329066.00000000 3433820.00000000 
0.05500    92905672.00000000 58540100.00000000 147491536.00000000 48995.23046875  4232962.00000000 3358004.00000000 
0.05600    91149904.00000000 57449576.00000000 144724240.00000000 47744.64843750  4137912.25000000 3282996.00000000 
0.05700    89405672.00000000 56365896.00000000 141974704.00000000 46513.77343750  4043982.75000000 3208855.75000000 
0.05800    87674664.00000000 55289900.00000000 139246096.00000000 45303.37109375  3951253.25000000 3135647.00000000 
0.05900    85959488.00000000 54222392.00000000 136540192.00000000 44114.62500000  3859728.00000000 3063376.00000000 
0.06000    84259448.00000000 53163888.00000000 133856528.00000000 42947.14843750  3769522.75000000 2992115.00000000 
0.06100    82575360.00000000 52115304.00000000 131199104.00000000 41802.62109375  3680620.75000000 2921872.00000000 
0.06200    80909512.00000000 51077572.00000000 128569048.00000000 40680.86328125  3593119.75000000 2852724.50000000 
0.06300    79263208.00000000 50050500.00000000 125967408.00000000 39582.55078125  3507060.25000000 2784689.75000000 
0.06400    77635240.00000000 49034724.00000000 123396216.00000000 38507.76171875  3422452.75000000 2717774.50000000 
0.06500    76027792.00000000 48031312.00000000 120854936.00000000 37457.21093750  3339307.75000000 2652031.25000000 
0.06600    74440648.00000000 47040120.00000000 118347000.00000000 36430.76171875  3257722.25000000 2587471.00000000 
0.06700    72875792.00000000 46061724.00000000 115872440.00000000 35428.81250000  3177621.75000000 2524116.50000000 
0.06800    71333280.00000000 45097080.00000000 113432736.00000000 34451.28906250  3099164.00000000 2461975.00000000 
0.06900    69813552.00000000 44146056.00000000 111027592.00000000 33498.42578125  3022250.25000000 2401088.75000000 
0.07000    68317160.00000000 43209484.00000000 108659744.00000000 32569.86523438  2946946.00000000 2341432.50000000 
0.07100    66844688.00000000 42286864.00000000 106328872.00000000 31666.28515625  2873254.00000000 2283053.25000000 
0.07200    65396892.00000000 41379432.00000000 104036104.00000000 30786.66406250  2801182.00000000 2225913.25000000 
0.07300    63974100.00000000 40486808.00000000 101781952.00000000 29931.65625000  2730713.25000000 2170060.00000000 
0.07400    62575824.00000000 39609620.00000000 99566712.00000000 29100.64453125  2661875.50000000 2115469.75000000 
0.07500    61203216.00000000 38747804.00000000 97392600.00000000 28293.48046875  2594667.75000000 2062140.62500000 
0.07600    59856668.00000000 37901396.00000000 95256896.00000000 27510.03320312  2529075.00000000 2010106.75000000 
0.07700    58535592.00000000 37071284.00000000 93162792.00000000 26749.85742188  2465075.50000000 1959305.12500000 
0.07800    57241048.00000000 36257552.00000000 91108632.00000000 26012.58593750  2402686.50000000 1909764.12500000 
0.07900    55972432.00000000 35459296.00000000 89096312.00000000 25297.82812500  2341870.75000000 1861470.12500000 
0.08000    54730740.00000000 34677596.00000000 87125616.00000000 24605.29101562  2282648.75000000 1814429.87500000 
0.08100    53514952.00000000 33911736.00000000 85195864.00000000 23934.65429688  2224985.25000000 1768598.87500000 
0.08200    52325384.00000000 33162334.00000000 83306944.00000000 23285.12500000  2168838.75000000 1723979.25000000 
0.08300    51162204.00000000 32429408.00000000 81460704.00000000 22656.50781250  2114215.25000000 1680544.75000000 
0.08400    50025396.00000000 31712532.00000000 79654784.00000000 22048.24218750  2061091.12500000 1638296.62500000 
0.08500    48914748.00000000 31011966.00000000 77890400.00000000 21459.69726562  2009443.25000000 1597203.75000000 
0.08600    47830312.00000000 30327442.00000000 76167624.00000000 20890.72656250  1959224.62500000 1557257.25000000 
0.08700    46771824.00000000 29659232.00000000 74484408.00000000 20340.19140625  1910443.75000000 1518425.37500000 
0.08800    45738768.00000000 29006810.00000000 72842528.00000000 19808.08593750  1863027.37500000 1480686.87500000 
0.08900    44731696.00000000 28370420.00000000 71240928.00000000 19293.44531250  1816998.12500000 1444034.00000000 
0.09000    43749672.00000000 27749882.00000000 69679888.00000000 18796.07031250  1772298.75000000 1408432.75000000 
0.09100    42792732.00000000 27145044.00000000 68157848.00000000 18315.16210938  1728895.62500000 1373857.12500000 
0.09200    41860300.00000000 26555696.00000000 66675720.00000000 17850.20703125  1686765.50000000 1340298.50000000 
0.09300    40952592.00000000 25981684.00000000 65231168.00000000 17400.83789062  1645880.50000000 1307723.50000000 
0.09400    40068920.00000000 25422478.00000000 63825632.00000000 16966.15429688  1606206.12500000 1276103.00000000 
0.09500    39208456.00000000 24878538.00000000 62457340.00000000 16546.09179688  1567708.00000000 1245410.50000000 
0.09600    38371784.00000000 24349182.00000000 61126384.00000000 16139.71386719  1530355.12500000 1215636.75000000 
0.09700    37558220.00000000 23834590.00000000 59831744.00000000 15746.44335938  1494115.37500000 1186752.25000000 
0.09800    36767336.00000000 23334190.00000000 58572792.00000000 15365.86328125  1458963.00000000 1158721.37500000 
0.09900    35998680.00000000 22847770.00000000 57350056.00000000 14997.76171875  1424854.87500000 1131528.75000000 
0.10000    35251568.00000000 22375214.00000000 56161924.00000000 14641.08300781  1391767.87500000 1105151.25000000 
0.10100    34526152.00000000 21916278.00000000 55007640.00000000 14295.69531250  1359670.00000000 1079541.50000000 
0.10200    33821464.00000000 21470668.00000000 53886536.00000000 13961.06738281  1328508.62500000 1054711.87500000 
0.10300    33137584.00000000 21038084.00000000 52798744.00000000 13636.62304688  1298295.87500000 1030611.93750000 
0.10400    32473420.00000000 20618412.00000000 51742624.00000000 13321.97949219  1268957.00000000 1007222.68750000 
0.10500    31829302.00000000 20210994.00000000 50717936.00000000 13016.84570312  1240500.12500000 984533.56250000 
0.10600    31204028.00000000 19815902.00000000 49723628.00000000 12720.42578125  1212867.62500000 962499.50000000 
0.10700    30597648.00000000 19432806.00000000 48759516.00000000 12432.71093750  1186030.75000000 941115.00000000 
0.10800    30009400.00000000 19061472.00000000 47824776.00000000 12153.06933594  1159976.25000000 920355.18750000 
0.10900    29438978.00000000 18701336.00000000 46918136.00000000 11881.24609375  1134668.12500000 900196.06250000 
0.11000    28885896.00000000 18352586.00000000 46039664.00000000 11616.83886719  1110098.62500000 880617.56250000 
0.11100    28349796.00000000 18014336.00000000 45187504.00000000 11359.50585938  1086218.50000000 861592.68750000 
0.11200    27829968.00000000 17686700.00000000 44362068.00000000 11108.96386719  1063002.62500000 843117.31250000 
0.11300    27326036.00000000 17369302.00000000 43561972.00000000 10864.94628906  1040442.06250000 825153.18750000 
0.11400    26837392.00000000 17061866.00000000 42786792.00000000 10627.01074219  1018502.56250000 807699.18750000 
0.11500    26364168.00000000 16764116.00000000 42035684.00000000 10395.03515625  997167.87500000 790730.81250000 
0.11600    25905312.00000000 16475685.00000000 41307872.00000000 10168.65527344  976404.25000000 774217.43750000 
0.11700    25460528.00000000 16196312.00000000 40603172.00000000 9947.77050781   956213.62500000 758162.81250000 
0.11800    25029422.00000000 15925770.00000000 39919840.00000000 9732.03222656   936539.75000000 742523.75000000 
0.11900    24611516.00000000 15663646.00000000 39257744.00000000 9521.24414062   917386.18750000 727313.25000000 
0.12000    24206390.00000000 15409823.00000000 38616316.00000000 9315.21289062   898736.62500000 712498.62500000 
0.12100    23813596.00000000 15163980.00000000 37994548.00000000 9113.79101562   880569.62500000 698079.00000000 
0.12200    23432900.00000000 14925863.00000000 37392072.00000000 8916.74121094   862846.43750000 684023.62500000 
0.12300    23063214.00000000 14694975.00000000 36808044.00000000 8724.06054688   845588.56250000 670323.37500000 
0.12400    22705118.00000000 14471337.00000000 36241780.00000000 8535.43750000   828741.25000000 656978.50000000 
0.12500    22357224.00000000 14254467.00000000 35692588.00000000 8350.77148438   812320.93750000 643958.93750000 
0.12600    22020044.00000000 14044425.00000000 35159916.00000000 8169.99560547   796290.37500000 631265.93750000 
0.12700    21692706.00000000 13840602.00000000 34643344.00000000 7992.93750000   780645.00000000 618878.37500000 
0.12800    21374522.00000000 13642913.00000000 34141524.00000000 7819.53906250   765373.06250000 606785.93750000 
0.12900    21065860.00000000 13451025.00000000 33654696.00000000 7649.70361328   750451.68750000 594986.18750000 
0.13000    20765708.00000000 13264846.00000000 33181598.00000000 7483.21923828   735881.31250000 583460.93750000 
0.13100    20473962.00000000 13083927.00000000 32721980.00000000 7320.13378906   721637.81250000 572198.31250000 
0.13200    20190184.00000000 12908157.00000000 32275466.00000000 7160.36230469   707715.12500000 561194.62500000 
0.13300    19914222.00000000 12737408.00000000 31840922.00000000 7003.75830078   694099.25000000 550440.75000000 
0.13400    19645404.00000000 12571252.00000000 31418414.00000000 6850.34472656   680781.50000000 539927.00000000 
0.13500    19383602.00000000 12409532.00000000 31006954.00000000 6700.03906250   667753.00000000 529640.81250000 
0.13600    19128518.00000000 12252109.00000000 30606218.00000000 6552.69335938   655005.00000000 519578.56250000 
0.13700    18879940.00000000 12098773.00000000 30215462.00000000 6408.33251953   642520.00000000 509731.53125000 
0.13800    18637328.00000000 11949213.00000000 29834306.00000000 6266.92236328   630302.62500000 500088.50000000 
0.13900    18400424.00000000 11803249.00000000 29462182.00000000 6128.39111328   618331.68750000 490649.90625000 
0.14000    18168990.00000000 11660909.00000000 29099196.00000000 5992.70703125   606601.81250000 481404.06250000 
0.14100    17942718.00000000 11521644.00000000 28744076.00000000 5859.78808594   595114.50000000 472342.31250000 
0.14200    17721392.00000000 11385550.00000000 28396884.00000000 5729.59130859   583847.06250000 463461.18750000 
0.14300    17504780.00000000 11252328.00000000 28057000.00000000 5602.13964844   572796.12500000 454750.65625000 
0.14400    17292276.00000000 11121732.00000000 27723746.00000000 5477.32031250   561957.81250000 446208.43750000 
0.14500    17084164.00000000 10993765.00000000 27397392.00000000 5355.15625000   551328.68750000 437827.06250000 
0.14600    16879876.00000000 10868182.00000000 27076926.00000000 5235.64501953   540892.81250000 429601.06250000 
0.14700    16679175.00000000 10744897.00000000 26762328.00000000 5118.62939453   530646.87500000 421526.40625000 
0.14800    16482003.00000000 10623701.00000000 26453044.00000000 5004.11523438   520586.12500000 413594.71875000 
0.14900    16287945.00000000 10504291.00000000 26148600.00000000 4892.09277344   510705.81250000 405800.71875000 
0.15000    16096941.00000000 10386852.00000000 25849022.00000000 4782.51708984   500992.81250000 398143.90625000 
0.15100    15908728.00000000 10271073.00000000 25553546.00000000 4675.34277344   491448.15625000 390613.50000000 
0.15200    15723112.00000000 10156829.00000000 25262338.00000000 4570.54443359   482064.09375000 383210.00000000 
0.15300    15539975.00000000 10044040.00000000 24974694.00000000 4468.05664062   472835.00000000 375923.90625000 
0.15400    15359017.00000000 9932461.00000000 24690456.00000000 4367.87304688   463751.40625000 368752.93750000 
0.15500    15180044.00000000 9822066.00000000 24409496.00000000 4269.94433594   454813.18750000 361697.15625000 
0.15600    15003147.00000000 9712924.00000000 24131252.00000000 4174.21142578   446016.65625000 354743.00000000 
0.15700    14827949.00000000 9604647.00000000 23855958.00000000 4080.65454102   437356.28125000 347894.87500000 
0.15800    14654521.00000000 9497344.00000000 23582916.00000000 3989.23461914   428818.00000000 341145.71875000 
0.15900    14482411.00000000 9390832.00000000 23312146.00000000 3899.86889648   420411.25000000 334492.43750000 
0.16000    14311583.00000000 9284929.00000000 23043278.00000000 3812.59521484   412119.37500000 327930.09375000 
0.16100    14142174.00000000 9179788.00000000 22776364.00000000 3727.33129883   403951.50000000 321457.93750000 
0.16200    13973950.00000000 9075246.00000000 22510842.00000000 3644.01489258   395892.84375000 315072.96875000 
0.16300    13806555.00000000 8971157.00000000 22247046.00000000 3562.62353516   387941.50000000 308769.93750000 
0.16400    13640228.00000000 8867542.00000000 21984390.00000000 3483.15332031   380102.84375000 302544.87500000 
0.16500    13474691.00000000 8764311.00000000 21723004.00000000 3405.51025391   372361.81250000 296398.25000000 
0.16600    13309944.00000000 8661394.00000000 21462452.00000000 3329.67114258   364724.84375000 290325.65625000 
0.16700    13145885.00000000 8558853.00000000 21203046.00000000 3255.63134766   357176.03125000 284325.59375000 
0.16800    12982413.00000000 8456482.00000000 20944248.00000000 3183.27026367   349723.46875000 278396.28125000 
0.16900    12819526.00000000 8354398.00000000 20686296.00000000 3112.68603516   342363.84375000 272536.18750000 
0.17000    12657230.00000000 8252459.00000000 20429072.00000000 3043.73071289   335090.65625000 266742.93750000 
