# SAXS profile: number of points = 501, q_min = 0, q_max = 0.5, delta_q = 0.001
#    q    intensity 
0.00000    162233568.00000000 101202272.00000000 256270512.00000000 107988.50781250 8371378.50000000 6611688.50000000 
0.00100    162191584.00000000 101173584.00000000 256198816.00000000 107951.35937500 8368730.50000000 6609605.00000000 
0.00200    162059584.00000000 101088704.00000000 255985264.00000000 107840.40625000 8360855.00000000 6603438.00000000 
0.00300    161834720.00000000 100948648.00000000 255626368.00000000 107655.47656250 8347770.00000000 6593135.50000000 
0.00400    161515312.00000000 100752008.00000000 255126736.00000000 107397.68750000 8329480.00000000 6578761.50000000 
0.00500    161106240.00000000 100499512.00000000 254484432.00000000 107066.73437500 8306041.50000000 6560324.50000000 
0.00600    160607616.00000000 100191968.00000000 253703744.00000000 106663.89843750 8277498.00000000 6537870.50000000 
0.00700    160016592.00000000 99831344.00000000 252785984.00000000 106190.10156250 8243922.00000000 6511463.00000000 
0.00800    159343584.00000000 99416600.00000000 251727104.00000000 105646.81250000 8205382.00000000 6481166.50000000 
0.00900    158586752.00000000 98950152.00000000 250537472.00000000 105036.06250000 8161954.50000000 6446990.50000000 
0.01000    157747488.00000000 98431400.00000000 249216128.00000000 104357.69531250 8113760.50000000 6409116.50000000 
0.01100    156825136.00000000 97860464.00000000 247764048.00000000 103613.52343750 8060879.00000000 6367568.50000000 
0.01200    155819200.00000000 97241248.00000000 246187360.00000000 102806.82812500 8003488.50000000 6322385.50000000 
0.01300    154736400.00000000 96572344.00000000 244485344.00000000 101938.96875000 7941679.50000000 6273771.00000000 
0.01400    153578320.00000000 95856896.00000000 242664672.00000000 101010.77343750 7875525.00000000 6221749.50000000 
0.01500    152347168.00000000 95096808.00000000 240729104.00000000 100026.39843750 7805253.00000000 6166527.50000000 
0.01600    151042320.00000000 94291736.00000000 238679760.00000000 98986.46875000  7730997.50000000 6108085.00000000 
0.01700    149669840.00000000 93444440.00000000 236521840.00000000 97894.23437500  7652958.00000000 6046651.00000000 
0.01800    148231472.00000000 92555048.00000000 234261040.00000000 96751.92187500  7571195.50000000 5982354.00000000 
0.01900    146728352.00000000 91628056.00000000 231899936.00000000 95562.86718750  7485971.00000000 5915272.50000000 
0.02000    145165792.00000000 90662440.00000000 229443920.00000000 94328.67187500  7397388.00000000 5845609.50000000 
0.02100    143546448.00000000 89661336.00000000 226896176.00000000 93053.22656250  7305758.00000000 5773479.50000000 
0.02200    141871696.00000000 88626576.00000000 224262832.00000000 91739.31250000  7211150.50000000 5699074.50000000 
0.02300    140146560.00000000 87560240.00000000 221549184.00000000 90388.15625000  7113778.00000000 5622415.00000000 
0.02400    138372512.00000000 86463424.00000000 218760960.00000000 89004.25000000  7013872.00000000 5543792.50000000 
0.02500    136554544.00000000 85338976.00000000 215900176.00000000 87590.66406250  6911634.00000000 5463314.00000000 
0.02600    134693744.00000000 84187080.00000000 212974784.00000000 86148.61718750  6807251.00000000 5381164.00000000 
0.02700    132795760.00000000 83013400.00000000 209987456.00000000 84683.29687500  6700942.00000000 5297400.50000000 
0.02800    130862216.00000000 81816520.00000000 206946464.00000000 83196.29687500  6592860.50000000 5212297.50000000 
0.02900    128897864.00000000 80601304.00000000 203855504.00000000 81691.36718750  6483189.00000000 5125997.00000000 
0.03000    126905272.00000000 79367000.00000000 200719344.00000000 80170.63281250  6372250.00000000 5038588.00000000 
0.03100    124887392.00000000 78117968.00000000 197542240.00000000 78637.73437500  6260141.00000000 4950297.50000000 
0.03200    122848856.00000000 76854352.00000000 194334704.00000000 77095.00781250  6147138.00000000 4861261.50000000 
0.03300    120792672.00000000 75581208.00000000 191097360.00000000 75545.92187500  6033325.50000000 4771638.50000000 
0.03400    118721440.00000000 74297880.00000000 187836080.00000000 73993.21875000  5919009.50000000 4681564.50000000 
0.03500    116639224.00000000 73007992.00000000 184556800.00000000 72437.84375000  5804371.50000000 4591222.00000000 
0.03600    114547496.00000000 71710664.00000000 181263040.00000000 70884.33593750  5689505.00000000 4500686.50000000 
0.03700    112452328.00000000 70410544.00000000 177961424.00000000 69334.78125000  5574675.00000000 4410174.00000000 
0.03800    110354576.00000000 69108424.00000000 174656704.00000000 67791.60156250  5460064.50000000 4319790.00000000 
0.03900    108258160.00000000 67806824.00000000 171354384.00000000 66256.78125000  5345747.50000000 4229690.50000000 
0.04000    106165216.00000000 66507636.00000000 168056000.00000000 64732.82812500  5231981.00000000 4139936.25000000 
0.04100    104079368.00000000 65212396.00000000 164768048.00000000 63221.73437500  5118897.50000000 4050756.75000000 
0.04200    102003648.00000000 63923140.00000000 161496576.00000000 61725.65625000  5006648.50000000 3962222.50000000 
0.04300    99941352.00000000 62640600.00000000 158242752.00000000 60246.44921875  4895348.50000000 3874460.00000000 
0.04400    97892888.00000000 61367528.00000000 155012688.00000000 58786.70312500  4785221.00000000 3787548.00000000 
0.04500    95862208.00000000 60104960.00000000 151809744.00000000 57346.92968750  4676313.50000000 3701609.25000000 
0.04600    93851592.00000000 58854004.00000000 148637632.00000000 55929.17578125  4568792.00000000 3616760.75000000 
0.04700    91862912.00000000 57616296.00000000 145499552.00000000 54534.66015625  4462783.50000000 3533063.75000000 
0.04800    89898384.00000000 56393652.00000000 142400784.00000000 53165.48437500  4358347.00000000 3450624.00000000 
0.04900    87959656.00000000 55187108.00000000 139341360.00000000 51821.70703125  4255597.50000000 3369516.00000000 
0.05000    86049872.00000000 53997544.00000000 136327312.00000000 50505.16406250  4154674.00000000 3289797.50000000 
0.05100    84169992.00000000 52825936.00000000 133359080.00000000 49216.72656250  4055591.75000000 3211551.00000000 
0.05200    82320840.00000000 51673860.00000000 130440664.00000000 47956.73828125  3958456.00000000 3134843.50000000 
0.05300    80505880.00000000 50541576.00000000 127573832.00000000 46726.30468750  3863342.25000000 3059727.75000000 
0.05400    78723688.00000000 49431428.00000000 124760096.00000000 45525.98046875  3770302.50000000 2986216.75000000 
0.05500    76978600.00000000 48342372.00000000 122003160.00000000 44355.81250000  3679394.50000000 2914364.25000000 
0.05600    75269984.00000000 47276120.00000000 119304080.00000000 43216.50781250  3590630.50000000 2844209.00000000 
0.05700    73599080.00000000 46233568.00000000 116664120.00000000 42108.28125000  3504090.50000000 2775817.50000000 
0.05800    71966768.00000000 45214264.00000000 114084152.00000000 41031.41406250  3419782.50000000 2709154.00000000 
0.05900    70374360.00000000 44219888.00000000 111566352.00000000 39985.45312500  3337684.75000000 2644252.00000000 
0.06000    68820256.00000000 43249748.00000000 109111120.00000000 38970.67968750  3257858.75000000 2581134.25000000 
0.06100    67307344.00000000 42304856.00000000 106720168.00000000 37986.42187500  3180293.75000000 2519798.50000000 
0.06200    65835768.00000000 41384940.00000000 104392904.00000000 37033.28125000  3104983.75000000 2460260.25000000 
0.06300    64405280.00000000 40490548.00000000 102130800.00000000 36110.02343750  3031945.00000000 2402491.75000000 
0.06400    63015644.00000000 39621964.00000000 99933176.00000000 35216.76171875  2961113.75000000 2346499.00000000 
0.06500    61666924.00000000 38778668.00000000 97799960.00000000 34352.59765625  2892540.00000000 2292217.50000000 
0.06600    60359020.00000000 37961396.00000000 95731640.00000000 33517.22656250  2826131.25000000 2239693.50000000 
0.06700    59092560.00000000 37168740.00000000 93729024.00000000 32710.37500000  2761905.50000000 2188899.50000000 
0.06800    57866452.00000000 36402504.00000000 91789512.00000000 31930.50195312  2699808.50000000 2139749.25000000 
0.06900    56680872.00000000 35660968.00000000 89914280.00000000 31177.59375000  2639772.75000000 2092273.75000000 
0.07000    55534600.00000000 34943932.00000000 88101592.00000000 30450.74023438  2581781.25000000 2046401.12500000 
0.07100    54427656.00000000 34251968.00000000 86351016.00000000 29748.82421875  2525811.75000000 2002108.62500000 
0.07200    53359056.00000000 33584240.00000000 84661592.00000000 29071.26757812  2471757.50000000 1959345.00000000 
0.07300    52328696.00000000 32939980.00000000 83031864.00000000 28417.25781250  2419608.00000000 1918085.87500000 
0.07400    51335696.00000000 32319432.00000000 81461264.00000000 27785.75976562  2369277.75000000 1878288.37500000 
0.07500    50378344.00000000 31721372.00000000 79948760.00000000 27175.62304688  2320704.25000000 1839890.00000000 
0.07600    49456808.00000000 31145650.00000000 78491800.00000000 26586.48242188  2273865.50000000 1802833.37500000 
0.07700    48569544.00000000 30591924.00000000 77089720.00000000 26016.92382812  2228668.00000000 1767101.00000000 
0.07800    47715852.00000000 30058942.00000000 75740072.00000000 25466.29687500  2185047.00000000 1732603.62500000 
0.07900    46894496.00000000 29546656.00000000 74442368.00000000 24933.81835938  2142944.50000000 1699319.00000000 
0.08000    46104520.00000000 29054454.00000000 73195072.00000000 24418.18945312  2102287.00000000 1667186.00000000 
0.08100    45344900.00000000 28581204.00000000 71995960.00000000 23918.84765625  2063049.62500000 1636164.37500000 
0.08200    44614264.00000000 28126472.00000000 70843472.00000000 23434.83593750  2025076.00000000 1606166.50000000 
0.08300    43911780.00000000 27689464.00000000 69735096.00000000 22965.34570312  1988384.00000000 1577180.50000000 
0.08400    43236356.00000000 27269732.00000000 68669208.00000000 22509.29882812  1952870.87500000 1549132.12500000 
0.08500    42586416.00000000 26866208.00000000 67645680.00000000 22065.98632812  1918496.25000000 1521975.25000000 
0.08600    41960968.00000000 26478386.00000000 66660384.00000000 21635.04492188  1885172.00000000 1495670.50000000 
0.08700    41358624.00000000 26105538.00000000 65712940.00000000 21215.12500000  1852837.00000000 1470137.75000000 
0.08800    40779112.00000000 25746996.00000000 64800492.00000000 20806.05273438  1821441.00000000 1445363.62500000 
0.08900    40220284.00000000 25401580.00000000 63921660.00000000 20406.61328125  1790931.12500000 1421270.87500000 
0.09000    39681872.00000000 25068914.00000000 63075228.00000000 20016.19726562  1761230.75000000 1397847.75000000 
0.09100    39161512.00000000 24748476.00000000 62258272.00000000 19634.95898438  1732293.50000000 1375024.12500000 
0.09200    38659132.00000000 24439432.00000000 61469872.00000000 19261.39062500  1704056.50000000 1352768.75000000 
0.09300    38173476.00000000 24140706.00000000 60708012.00000000 18895.43359375  1676497.87500000 1331030.12500000 
0.09400    37703056.00000000 23852086.00000000 59970792.00000000 18536.60156250  1649537.50000000 1309769.12500000 
0.09500    37246644.00000000 23572698.00000000 59256412.00000000 18184.15039062  1623146.87500000 1288961.62500000 
0.09600    36804492.00000000 23302044.00000000 58564068.00000000 17838.07031250  1597273.00000000 1268582.37500000 
0.09700    36374296.00000000 23039130.00000000 57891248.00000000 17497.86523438  1571892.50000000 1248568.62500000 
0.09800    35955652.00000000 22783738.00000000 57237028.00000000 17162.84179688  1546939.12500000 1228905.25000000 
0.09900    35547676.00000000 22535216.00000000 56599376.00000000 16833.03515625  1522391.25000000 1209558.00000000 
0.10000    35149116.00000000 22292548.00000000 55977504.00000000 16508.00976562  1498232.50000000 1190505.50000000 
0.10100    34759752.00000000 22055722.00000000 55369524.00000000 16187.62207031  1474389.00000000 1171722.37500000 
0.10200    34377764.00000000 21823968.00000000 54774632.00000000 15871.60156250  1450877.25000000 1153180.62500000 
0.10300    34003436.00000000 21596894.00000000 54191064.00000000 15559.71875000  1427635.75000000 1134860.50000000 
0.10400    33635480.00000000 21373914.00000000 53618056.00000000 15251.93457031  1404663.50000000 1116741.37500000 
0.10500    33273440.00000000 21154660.00000000 53053800.00000000 14948.09960938  1381940.87500000 1098821.50000000 
0.10600    32916552.00000000 20938478.00000000 52498336.00000000 14647.98828125  1359433.00000000 1081063.00000000 
0.10700    32564212.00000000 20725562.00000000 51949668.00000000 14351.73535156  1337140.75000000 1063464.62500000 
0.10800    32215886.00000000 20514786.00000000 51407536.00000000 14058.85839844  1315032.37500000 1046020.18750000 
0.10900    31870976.00000000 20306152.00000000 50870792.00000000 13769.87207031  1293105.87500000 1028700.25000000 
0.11000    31529006.00000000 20099394.00000000 50338900.00000000 13484.38574219  1271348.62500000 1011523.81250000 
0.11100    31189590.00000000 19894128.00000000 49810120.00000000 13202.49121094  1249754.62500000 994460.75000000 
0.11200    30852412.00000000 19690228.00000000 49285472.00000000 12924.23828125  1228313.37500000 977514.93750000 
0.11300    30517048.00000000 19486902.00000000 48763404.00000000 12649.60546875  1207035.25000000 960677.56250000 
0.11400    30183160.00000000 19284712.00000000 48243136.00000000 12378.49511719  1185903.00000000 943958.00000000 
0.11500    29850302.00000000 19083136.00000000 47724460.00000000 12111.11230469  1164918.25000000 927342.31250000 
0.11600    29518354.00000000 18881922.00000000 47206868.00000000 11847.46093750  1144070.00000000 910835.31250000 
0.11700    29187328.00000000 18680710.00000000 46690308.00000000 11587.59472656  1123373.12500000 894445.87500000 
0.11800    28856374.00000000 18479622.00000000 46174208.00000000 11331.41210938  1102822.87500000 878152.62500000 
0.11900    28526062.00000000 18278558.00000000 45658572.00000000 11079.30078125  1082419.75000000 861969.75000000 
0.12000    28195754.00000000 18077364.00000000 45142472.00000000 10830.90917969  1062181.12500000 845904.25000000 
0.12100    27865642.00000000 17875880.00000000 44626044.00000000 10586.53613281  1042096.56250000 829970.12500000 
0.12200    27535524.00000000 17674018.00000000 44109616.00000000 10346.16796875  1022173.00000000 814143.75000000 
0.12300    27205338.00000000 17471962.00000000 43592616.00000000 10109.79687500  1002419.31250000 798445.81250000 
0.12400    26875290.00000000 17269620.00000000 43075364.00000000 9877.53906250   982839.50000000 782883.00000000 
0.12500    26544838.00000000 17066780.00000000 42557452.00000000 9649.35546875   963445.06250000 767452.12500000 
0.12600    26214558.00000000 16863610.00000000 42039140.00000000 9425.41308594   944241.00000000 752173.75000000 
0.12700    25884130.00000000 16660077.00000000 41519868.00000000 9205.59472656   925227.81250000 737032.06250000 
0.12800    25553848.00000000 16456195.00000000 41000720.00000000 8989.92480469   906408.75000000 722045.18750000 
0.12900    25223600.00000000 16252166.00000000 40481308.00000000 8778.49316406   887804.31250000 707221.87500000 
0.13000    24893490.00000000 16047644.00000000 39961328.00000000 8571.16894531   869411.87500000 692555.87500000 
0.13100    24563530.00000000 15843022.00000000 39441528.00000000 8368.07031250   851231.75000000 678062.50000000 
0.13200    24234084.00000000 15638305.00000000 38921684.00000000 8169.23095703   833288.25000000 663741.81250000 
0.13300    23904872.00000000 15433444.00000000 38402308.00000000 7974.53320312   815570.87500000 649604.00000000 
0.13400    23576428.00000000 15228633.00000000 37883124.00000000 7783.98095703   798092.50000000 635643.81250000 
0.13500    23248640.00000000 15023959.00000000 37365388.00000000 7597.49707031   780862.62500000 621876.50000000 
0.13600    22921832.00000000 14819377.00000000 36847992.00000000 7415.10107422   763869.00000000 608302.87500000 
0.13700    22596134.00000000 14615184.00000000 36331392.00000000 7236.68750000   747132.12500000 594924.12500000 
0.13800    22270874.00000000 14411256.00000000 35816436.00000000 7062.22363281   730647.31250000 581754.18750000 
0.13900    21947382.00000000 14207803.00000000 35303240.00000000 6891.74023438   714422.37500000 568773.75000000 
0.14000    21625106.00000000 14004985.00000000 34791812.00000000 6725.10009766   698470.31250000 556008.56250000 
0.14100    21304408.00000000 13802747.00000000 34282052.00000000 6562.18115234   682766.25000000 543453.25000000 
0.14200    20985468.00000000 13601174.00000000 33775256.00000000 6402.97558594   667344.43750000 531105.68750000 
0.14300    20668070.00000000 13400609.00000000 33270688.00000000 6247.51074219   652178.37500000 518971.28125000 
0.14400    20352900.00000000 13200892.00000000 32768554.00000000 6095.42285156   637288.56250000 507047.28125000 
0.14500    20039926.00000000 13002202.00000000 32269644.00000000 5946.93212891   622666.37500000 495341.18750000 
0.14600    19728754.00000000 12804658.00000000 31774096.00000000 5801.83886719   608312.62500000 483848.53125000 
0.14700    19420364.00000000 12608461.00000000 31281778.00000000 5660.04101562   594227.18750000 472570.37500000 
0.14800    19114036.00000000 12413389.00000000 30792974.00000000 5521.48535156   580410.75000000 461508.15625000 
0.14900    18810566.00000000 12219822.00000000 30308186.00000000 5386.04980469   566858.12500000 450657.84375000 
0.15000    18509544.00000000 12027686.00000000 29827414.00000000 5253.71923828   553578.12500000 440022.81250000 
0.15100    18211552.00000000 11837065.00000000 29350710.00000000 5124.35693359   540553.56250000 429595.84375000 
0.15200    17916558.00000000 11648293.00000000 28878522.00000000 4997.91748047   527796.37500000 419385.31250000 
0.15300    17624272.00000000 11461232.00000000 28410952.00000000 4874.35156250   515296.06250000 409380.65625000 
0.15400    17335164.00000000 11275769.00000000 27947970.00000000 4753.42724609   503051.96875000 399577.25000000 
0.15500    17049338.00000000 11092245.00000000 27489888.00000000 4635.21679688   491062.81250000 389983.40625000 
0.15600    16766623.00000000 10910507.00000000 27036716.00000000 4519.69238281   479318.90625000 380585.09375000 
0.15700    16487584.00000000 10730936.00000000 26588882.00000000 4406.65478516   467825.68750000 371389.68750000 
0.15800    16211625.00000000 10553316.00000000 26146086.00000000 4296.03466797   456571.25000000 362385.84375000 
0.15900    15939111.00000000 10377790.00000000 25708570.00000000 4187.93945312   445555.50000000 353577.34375000 
0.16000    15669991.00000000 10204298.00000000 25276894.00000000 4082.13476562   434769.37500000 344955.87500000 
0.16100    15404573.00000000 10033020.00000000 24850284.00000000 3978.67529297   424221.96875000 336523.18750000 
0.16200    15142693.00000000 9863961.00000000 24429628.00000000 3877.47631836   413897.56250000 328270.43750000 
0.16300    14884344.00000000 9697092.00000000 24014484.00000000 3778.48339844   403793.56250000 320197.90625000 
0.16400    14629642.00000000 9532496.00000000 23605048.00000000 3681.65136719   393904.50000000 312300.18750000 
0.16500    14378609.00000000 9370059.00000000 23201528.00000000 3586.94140625   384231.96875000 304574.75000000 
0.16600    14131390.00000000 9209980.00000000 22803654.00000000 3494.37280273   374769.68750000 297019.12500000 
0.16700    13887734.00000000 9052253.00000000 22411526.00000000 3403.84375000   365508.65625000 289625.75000000 
0.16800    13647629.00000000 8896758.00000000 22025314.00000000 3315.32250977   356444.75000000 282394.62500000 
0.16900    13411450.00000000 8743626.00000000 21644970.00000000 3228.87524414   347582.53125000 275321.09375000 
0.17000    13178771.00000000 8592801.00000000 21270552.00000000 3144.38110352   338908.68750000 268403.03125000 
