# SAXS profile: number of points = 501, q_min = 0, q_max = 0.5, delta_q = 0.001
#    q    intensity 
0.00000    162236000.00000000 101201936.00000000 256271376.00000000 105040.40625000 8256338.00000000 6520818.00000000 
0.00100    162200288.00000000 101178016.00000000 256212656.00000000 105010.84375000 8254160.00000000 6519098.00000000 
0.00200    162089728.00000000 101109088.00000000 256033664.00000000 104922.33593750 8247725.50000000 6514100.00000000 
0.00300    161903136.00000000 100992960.00000000 255737968.00000000 104775.56250000 8237076.50000000 6505686.50000000 
0.00400    161638208.00000000 100830272.00000000 255324640.00000000 104569.55468750 8222147.50000000 6493989.50000000 
0.00500    161299664.00000000 100621336.00000000 254793680.00000000 104305.02343750 8202989.00000000 6478916.50000000 
0.00600    160886128.00000000 100365928.00000000 254143552.00000000 103983.28906250 8179680.50000000 6460609.50000000 
0.00700    160399920.00000000 100066952.00000000 253381488.00000000 103604.50781250 8152185.50000000 6439008.00000000 
0.00800    159837792.00000000 99722488.00000000 252505376.00000000 103169.39843750 8120607.50000000 6414202.50000000 
0.00900    159206176.00000000 99334824.00000000 251515984.00000000 102678.75781250 8084957.50000000 6386196.50000000 
0.01000    158505232.00000000 98903032.00000000 250413936.00000000 102133.19531250 8045381.00000000 6355078.50000000 
0.01100    157735568.00000000 98428864.00000000 249203840.00000000 101534.44531250 8001876.50000000 6320916.50000000 
0.01200    156897200.00000000 97911248.00000000 247885360.00000000 100882.37500000 7954507.50000000 6283692.50000000 
0.01300    155990352.00000000 97352280.00000000 246461744.00000000 100179.57812500 7903388.50000000 6243554.50000000 
0.01400    155015728.00000000 96752928.00000000 244935232.00000000 99426.16406250  7848594.00000000 6200469.50000000 
0.01500    153980448.00000000 96113096.00000000 243308112.00000000 98624.11718750  7790184.00000000 6154594.50000000 
0.01600    152880368.00000000 95436112.00000000 241580528.00000000 97774.92968750  7728313.50000000 6105962.00000000 
0.01700    151721312.00000000 94720928.00000000 239759168.00000000 96879.80468750  7663128.00000000 6054705.50000000 
0.01800    150501232.00000000 93969736.00000000 237843712.00000000 95940.17187500  7594632.00000000 6000856.50000000 
0.01900    149224224.00000000 93182520.00000000 235841424.00000000 94957.78125000  7522953.50000000 5944539.00000000 
0.02000    147892704.00000000 92361312.00000000 233748208.00000000 93934.80468750  7448235.00000000 5885786.00000000 
0.02100    146507152.00000000 91507488.00000000 231572736.00000000 92872.82031250  7370606.50000000 5824790.50000000 
0.02200    145070304.00000000 90621224.00000000 229317104.00000000 91773.69531250  7290201.50000000 5761565.50000000 
0.02300    143584528.00000000 89705984.00000000 226982944.00000000 90638.74218750  7207100.00000000 5696229.00000000 
0.02400    142052448.00000000 88760096.00000000 224576000.00000000 89470.28125000  7121474.00000000 5628914.00000000 
0.02500    140475152.00000000 87786624.00000000 222097392.00000000 88270.25781250  7033460.00000000 5559742.00000000 
0.02600    138855424.00000000 86788184.00000000 219554208.00000000 87041.32812500  6943206.50000000 5488758.50000000 
0.02700    137195440.00000000 85764352.00000000 216946592.00000000 85784.07812500  6850784.00000000 5416091.50000000 
0.02800    135498544.00000000 84716584.00000000 214280192.00000000 84501.75000000  6756418.50000000 5341843.00000000 
0.02900    133766720.00000000 83647680.00000000 211558512.00000000 83195.56250000  6660215.50000000 5266236.50000000 
0.03000    132001584.00000000 82557168.00000000 208784048.00000000 81868.19531250  6562300.00000000 5189206.50000000 
0.03100    130206264.00000000 81448912.00000000 205962000.00000000 80521.49218750  6462865.00000000 5110953.00000000 
0.03200    128382384.00000000 80322912.00000000 203096320.00000000 79157.64062500  6361980.00000000 5031626.50000000 
0.03300    126534336.00000000 79181280.00000000 200189936.00000000 77778.39843750  6259960.00000000 4951322.50000000 
0.03400    124661960.00000000 78024712.00000000 197247856.00000000 76386.21875000  6156696.50000000 4870119.00000000 
0.03500    122770152.00000000 76855464.00000000 194273104.00000000 74982.67187500  6052535.50000000 4788151.00000000 
0.03600    120859616.00000000 75675144.00000000 191269600.00000000 73570.50000000  5947527.00000000 4705528.50000000 
0.03700    118934192.00000000 74484848.00000000 188241936.00000000 72150.81250000  5841894.00000000 4622342.00000000 
0.03800    116995936.00000000 73286608.00000000 185192928.00000000 70726.39843750  5735632.00000000 4538772.00000000 
0.03900    115047008.00000000 72081608.00000000 182129072.00000000 69298.69531250  5629049.00000000 4454871.50000000 
0.04000    113089256.00000000 70870712.00000000 179048016.00000000 67869.74218750  5522161.50000000 4370718.00000000 
0.04100    111125328.00000000 69655632.00000000 175959056.00000000 66441.59375000  5415164.50000000 4286464.50000000 
0.04200    109158640.00000000 68438336.00000000 172864160.00000000 65015.63671875  5308228.00000000 4202182.00000000 
0.04300    107190296.00000000 67219536.00000000 169766960.00000000 63593.66015625  5201336.50000000 4118029.50000000 
0.04400    105223008.00000000 66001548.00000000 166670880.00000000 62177.80859375  5094738.00000000 4034059.50000000 
0.04500    103258944.00000000 64784756.00000000 163578720.00000000 60769.66015625  4988499.00000000 3950396.00000000 
0.04600    101299368.00000000 63571328.00000000 160493904.00000000 59370.29296875  4882801.50000000 3867084.50000000 
0.04700    99348144.00000000 62362036.00000000 157422272.00000000 57982.07031250  4777687.00000000 3784281.75000000 
0.04800    97405808.00000000 61158020.00000000 154363680.00000000 56605.83984375  4673302.50000000 3702000.75000000 
0.04900    95475008.00000000 59961184.00000000 151323296.00000000 55243.24218750  4569791.00000000 3620380.50000000 
0.05000    93557288.00000000 58771588.00000000 148302080.00000000 53895.67187500  4467150.50000000 3539493.50000000 
0.05100    91654384.00000000 57591772.00000000 145304832.00000000 52563.82031250  4365530.50000000 3459393.25000000 
0.05200    89768784.00000000 56421292.00000000 142334320.00000000 51249.71093750  4265088.50000000 3380152.00000000 
0.05300    87901696.00000000 55262384.00000000 139390800.00000000 49954.07812500  4165846.00000000 3301892.25000000 
0.05400    86054304.00000000 54115260.00000000 136479664.00000000 48678.00000000  4067865.75000000 3224610.50000000 
0.05500    84227952.00000000 52981224.00000000 133603136.00000000 47422.82031250  3971288.25000000 3148418.75000000 
0.05600    82425128.00000000 51861268.00000000 130761104.00000000 46188.56250000  3876129.00000000 3073342.25000000 
0.05700    80647600.00000000 50756104.00000000 127956976.00000000 44977.05078125  3782504.25000000 2999439.00000000 
0.05800    78894224.00000000 49666652.00000000 125192880.00000000 43787.98437500  3690437.25000000 2926774.25000000 
0.05900    77168856.00000000 48593344.00000000 122470408.00000000 42622.73828125  3600002.00000000 2855370.50000000 
0.06000    75470952.00000000 47536540.00000000 119791896.00000000 41481.98437500  3511252.00000000 2785317.25000000 
0.06100    73801616.00000000 46498248.00000000 117158056.00000000 40366.05468750  3424241.25000000 2716595.00000000 
0.06200    72162776.00000000 45478068.00000000 114572456.00000000 39275.64062500  3339010.50000000 2649259.25000000 
0.06300    70554472.00000000 44476940.00000000 112034136.00000000 38210.55468750  3255562.50000000 2583347.25000000 
0.06400    68978296.00000000 43494612.00000000 109545672.00000000 37171.59765625  3173981.00000000 2518859.00000000 
0.06500    67433704.00000000 42532460.00000000 107107560.00000000 36158.46875000  3094255.50000000 2455866.00000000 
0.06600    65922832.00000000 41589988.00000000 104720752.00000000 35171.79296875  3016414.00000000 2394344.25000000 
0.06700    64444384.00000000 40668752.00000000 102385904.00000000 34211.62109375  2940499.50000000 2334293.00000000 
0.06800    63000356.00000000 39767868.00000000 100104528.00000000 33278.10937500  2866490.75000000 2275778.50000000 
0.06900    61590608.00000000 38887740.00000000 97877032.00000000 32370.95312500  2794399.50000000 2218757.50000000 
0.07000    60215008.00000000 38029156.00000000 95704328.00000000 31490.16406250  2724251.50000000 2163269.75000000 
0.07100    58874104.00000000 37192064.00000000 93584296.00000000 30635.51171875  2656049.75000000 2109283.25000000 
0.07200    57568492.00000000 36376100.00000000 91520072.00000000 29807.21875000  2589746.75000000 2056797.50000000 
0.07300    56297548.00000000 35581772.00000000 89510048.00000000 29004.69531250  2525364.00000000 2005831.12500000 
0.07400    55061364.00000000 34809380.00000000 87555648.00000000 28227.50976562  2462882.75000000 1956370.87500000 
0.07500    53860040.00000000 34057944.00000000 85655344.00000000 27475.55468750  2402291.00000000 1908392.50000000 
0.07600    52693628.00000000 33328186.00000000 83810432.00000000 26748.37695312  2343572.50000000 1861861.50000000 
0.07700    51561636.00000000 32619458.00000000 82019168.00000000 26045.58203125  2286694.75000000 1816805.00000000 
0.07800    50463684.00000000 31932090.00000000 80281128.00000000 25366.53125000  2231629.00000000 1773171.50000000 
0.07900    49399608.00000000 31265954.00000000 78597176.00000000 24711.12500000  2178350.25000000 1730955.00000000 
0.08000    48368844.00000000 30620214.00000000 76965600.00000000 24078.25390625  2126829.25000000 1690104.37500000 
0.08100    47371356.00000000 29995302.00000000 75386120.00000000 23467.98828125  2077059.37500000 1650622.50000000 
0.08200    46406064.00000000 29390492.00000000 73857688.00000000 22879.35937500  2028947.87500000 1612466.37500000 
0.08300    45473248.00000000 28805494.00000000 72380104.00000000 22311.86718750  1982493.50000000 1575611.00000000 
0.08400    44571668.00000000 28240106.00000000 70951976.00000000 21764.75976562  1937628.12500000 1540025.37500000 
0.08500    43701072.00000000 27693856.00000000 69573232.00000000 21237.62109375  1894325.37500000 1505659.00000000 
0.08600    42860288.00000000 27166380.00000000 68240768.00000000 20729.53320312  1852561.25000000 1472510.25000000 
0.08700    42049440.00000000 26657438.00000000 66955852.00000000 20240.08398438  1812248.12500000 1440512.62500000 
0.08800    41267112.00000000 26166260.00000000 65716084.00000000 19768.44921875  1773387.62500000 1409643.12500000 
0.08900    40512752.00000000 25692718.00000000 64520356.00000000 19314.03320312  1735885.62500000 1379869.50000000 
0.09000    39785728.00000000 25236030.00000000 63367944.00000000 18875.92773438  1699717.87500000 1351150.62500000 
0.09100    39085056.00000000 24795942.00000000 62256548.00000000 18453.74609375  1664846.37500000 1323425.12500000 
0.09200    38409792.00000000 24371960.00000000 61186860.00000000 18046.62109375  1631189.12500000 1296692.12500000 
0.09300    37759220.00000000 23963390.00000000 60155696.00000000 17653.85937500  1598722.75000000 1270900.62500000 
0.09400    37132772.00000000 23569872.00000000 59162032.00000000 17274.92578125  1567388.37500000 1246005.00000000 
0.09500    36529160.00000000 23190650.00000000 58205296.00000000 16909.08203125  1537126.12500000 1221953.50000000 
0.09600    35947524.00000000 22825674.00000000 57283784.00000000 16555.73828125  1507916.50000000 1198731.12500000 
0.09700    35387340.00000000 22473964.00000000 56395888.00000000 16213.97949219  1479685.00000000 1176299.37500000 
0.09800    34847952.00000000 22135112.00000000 55540560.00000000 15883.64843750  1452397.37500000 1154600.25000000 
0.09900    34327772.00000000 21808440.00000000 54716460.00000000 15563.74707031  1426001.75000000 1133620.25000000 
0.10000    33826332.00000000 21493746.00000000 53921652.00000000 15253.74902344  1400433.12500000 1113292.37500000 
0.10100    33342596.00000000 21190172.00000000 53155232.00000000 14953.15332031  1375677.00000000 1093606.37500000 
0.10200    32875770.00000000 20897446.00000000 52415496.00000000 14661.34667969  1351672.37500000 1074521.87500000 
0.10300    32425216.00000000 20614838.00000000 51701684.00000000 14377.84472656  1328367.00000000 1056004.75000000 
0.10400    31989516.00000000 20341860.00000000 51012052.00000000 14102.20410156  1305734.75000000 1038012.81250000 
0.10500    31568656.00000000 20078112.00000000 50345096.00000000 13833.62988281  1283725.12500000 1020513.50000000 
0.10600    31161118.00000000 19822628.00000000 49700196.00000000 13571.89941406  1262302.50000000 1003479.25000000 
0.10700    30766406.00000000 19575630.00000000 49075388.00000000 13316.54394531  1241411.50000000 986890.50000000 
0.10800    30383446.00000000 19336218.00000000 48469764.00000000 13067.17871094  1221046.87500000 970698.75000000 
0.10900    30011930.00000000 19103908.00000000 47881892.00000000 12823.22949219  1201147.75000000 954890.37500000 
0.11000    29650778.00000000 18878352.00000000 47311132.00000000 12584.38867188  1181698.37500000 939428.68750000 
0.11100    29299544.00000000 18658874.00000000 46755664.00000000 12350.34570312  1162650.50000000 924294.12500000 
0.11200    28957160.00000000 18445470.00000000 46214764.00000000 12120.66992188  1143970.87500000 909459.00000000 
0.11300    28623334.00000000 18237266.00000000 45687488.00000000 11895.13964844  1125651.62500000 894903.37500000 
0.11400    28297318.00000000 18034082.00000000 45172344.00000000 11673.53222656  1107638.37500000 880607.87500000 
0.11500    27978322.00000000 17835530.00000000 44668908.00000000 11455.40429688  1089937.12500000 866545.37500000 
0.11600    27665586.00000000 17640974.00000000 44175540.00000000 11240.62207031  1072496.37500000 852697.12500000 
0.11700    27359260.00000000 17450512.00000000 43692184.00000000 11028.97460938  1055308.50000000 839046.00000000 
0.11800    27057958.00000000 17263262.00000000 43217228.00000000 10820.24023438  1038345.31250000 825583.18750000 
0.11900    26761616.00000000 17079254.00000000 42750000.00000000 10614.11914062  1021590.25000000 812280.68750000 
0.12000    26469888.00000000 16898082.00000000 42289700.00000000 10410.66503906  1005027.93750000 799143.18750000 
0.12100    26181954.00000000 16719709.00000000 41836396.00000000 10209.70117188  988641.06250000 786127.56250000 
0.12200    25897452.00000000 16543334.00000000 41388188.00000000 10010.94824219  972421.87500000 773253.81250000 
0.12300    25616138.00000000 16368963.00000000 40945256.00000000 9814.47851562   956347.93750000 760495.18750000 
0.12400    25337576.00000000 16196391.00000000 40506692.00000000 9620.08105469   940410.81250000 747849.75000000 
0.12500    25061306.00000000 16025396.00000000 40071668.00000000 9427.77929688   924604.25000000 735296.31250000 
0.12600    24787204.00000000 15855833.00000000 39640476.00000000 9237.46484375   908917.62500000 722847.37500000 
0.12700    24514896.00000000 15687230.00000000 39211564.00000000 9049.13671875   893335.06250000 710473.43750000 
0.12800    24243856.00000000 15519512.00000000 38785308.00000000 8862.62695312   877866.93750000 698195.50000000 
0.12900    23974232.00000000 15352767.00000000 38360900.00000000 8678.08496094   862493.37500000 685991.31250000 
0.13000    23705508.00000000 15186510.00000000 37937912.00000000 8495.44921875   847214.68750000 673867.68750000 
0.13100    23437682.00000000 15020744.00000000 37516664.00000000 8314.66992188   832034.75000000 661813.68750000 
0.13200    23170462.00000000 14855390.00000000 37096344.00000000 8135.82861328   816942.93750000 649825.18750000 
0.13300    22903906.00000000 14690421.00000000 36676396.00000000 7958.88037109   801952.50000000 637917.12500000 
0.13400    22637560.00000000 14525613.00000000 36257052.00000000 7783.92578125   787042.00000000 626079.37500000 
0.13500    22371616.00000000 14360813.00000000 35838384.00000000 7610.94140625   772227.25000000 614310.18750000 
0.13600    22105814.00000000 14196163.00000000 35419804.00000000 7439.93310547   757505.25000000 602610.25000000 
0.13700    21840002.00000000 14031496.00000000 35001228.00000000 7270.98242188   742879.56250000 590988.18750000 
0.13800    21574192.00000000 13866696.00000000 34582528.00000000 7104.12744141   728353.62500000 579436.56250000 
0.13900    21308490.00000000 13701874.00000000 34163720.00000000 6939.49072266   713922.56250000 567967.81250000 
0.14000    21042866.00000000 13537015.00000000 33745072.00000000 6776.91308594   699604.62500000 556577.12500000 
0.14100    20777286.00000000 13372009.00000000 33325986.00000000 6616.69482422   685391.56250000 545275.06250000 
0.14200    20511424.00000000 13206879.00000000 32906980.00000000 6458.67871094   671295.43750000 534056.75000000 
0.14300    20245734.00000000 13041641.00000000 32487858.00000000 6303.03320312   657315.12500000 522928.06250000 
0.14400    19980156.00000000 12876293.00000000 32068512.00000000 6149.73535156   643456.68750000 511896.81250000 
0.14500    19714498.00000000 12710943.00000000 31649202.00000000 5998.85839844   629721.93750000 500964.21875000 
0.14600    19449132.00000000 12545481.00000000 31230114.00000000 5850.47021484   616124.62500000 490133.90625000 
0.14700    19184010.00000000 12380103.00000000 30811156.00000000 5704.58935547   602663.81250000 479410.15625000 
0.14800    18919150.00000000 12214687.00000000 30392514.00000000 5561.22216797   589348.37500000 468797.28125000 
0.14900    18654748.00000000 12049454.00000000 29974290.00000000 5420.44824219   576180.68750000 458298.46875000 
0.15000    18390712.00000000 11884301.00000000 29556514.00000000 5282.31542969   563164.93750000 447922.28125000 
0.15100    18127428.00000000 11719370.00000000 29139408.00000000 5146.74853516   550305.06250000 437664.56250000 
0.15200    17864546.00000000 11554710.00000000 28723478.00000000 5013.90917969   537614.12500000 427538.75000000 
0.15300    17602552.00000000 11390482.00000000 28308338.00000000 4883.74072266   525087.75000000 417541.65625000 
0.15400    17341230.00000000 11226476.00000000 27894480.00000000 4756.26660156   512731.37500000 407678.12500000 
0.15500    17081244.00000000 11062990.00000000 27481728.00000000 4631.49365234   500554.71875000 397952.43750000 
0.15600    16822074.00000000 10899965.00000000 27070620.00000000 4509.43945312   488555.15625000 388369.40625000 
0.15700    16564137.00000000 10737594.00000000 26661248.00000000 4390.14013672   476741.59375000 378930.25000000 
0.15800    16307507.00000000 10575838.00000000 26253610.00000000 4273.48632812   465111.18750000 369636.15625000 
0.15900    16052305.00000000 10414798.00000000 25848066.00000000 4159.62255859   453675.87500000 360491.59375000 
0.16000    15798520.00000000 10254567.00000000 25444626.00000000 4048.43164062   442428.50000000 351499.53125000 
0.16100    15546470.00000000 10095280.00000000 25043716.00000000 3939.92871094   431382.15625000 342661.09375000 
0.16200    15296122.00000000 9936816.00000000 24645430.00000000 3834.08911133   420528.65625000 333979.62500000 
0.16300    15047590.00000000 9779427.00000000 24249708.00000000 3730.91430664   409878.62500000 325456.78125000 
0.16400    14801034.00000000 9623030.00000000 23856970.00000000 3630.36474609   399426.59375000 317089.03125000 
0.16500    14556302.00000000 9467868.00000000 23467188.00000000 3532.40747070   389178.93750000 308885.09375000 
0.16600    14313968.00000000 9313834.00000000 23080552.00000000 3437.03686523   379132.37500000 300838.43750000 
0.16700    14073696.00000000 9161027.00000000 22697440.00000000 3344.16601562   369284.28125000 292954.00000000 
0.16800    13835662.00000000 9009530.00000000 22317590.00000000 3253.75244141   359644.06250000 285229.53125000 
0.16900    13600103.00000000 8859441.00000000 21941556.00000000 3165.87915039   350206.78125000 277668.43750000 
0.17000    13366944.00000000 8710845.00000000 21569014.00000000 3080.37768555   340972.09375000 270268.40625000 
