# SAXS profile: number of points = 501, q_min = 0, q_max = 0.5, delta_q = 0.001
#    q    intensity 
0.00000    162236320.00000000 101201856.00000000 256271728.00000000 102925.53125000 8172803.50000000 6454854.00000000 
0.00100    162202544.00000000 101179688.00000000 256215904.00000000 102896.19531250 8170731.50000000 6453227.00000000 
0.00200    162099360.00000000 101114120.00000000 256049808.00000000 102808.85937500 8164517.00000000 6448338.00000000 
0.00300    161923600.00000000 101004608.00000000 255771424.00000000 102662.67968750 8154234.50000000 6440226.50000000 
0.00400    161675904.00000000 100851840.00000000 255382464.00000000 102458.85156250 8139860.50000000 6428918.50000000 
0.00500    161357920.00000000 100655536.00000000 254882960.00000000 102196.89062500 8121397.00000000 6414382.00000000 
0.00600    160970816.00000000 100415536.00000000 254273184.00000000 101878.11718750 8098881.00000000 6396697.00000000 
0.00700    160514624.00000000 100133696.00000000 253558272.00000000 101502.57812500 8072389.00000000 6375801.00000000 
0.00800    159988112.00000000 99809384.00000000 252733456.00000000 101071.07031250 8041951.00000000 6351833.00000000 
0.00900    159396128.00000000 99443960.00000000 251803088.00000000 100584.92968750 8007615.50000000 6324763.00000000 
0.01000    158738336.00000000 99037480.00000000 250768208.00000000 100044.57812500 7969438.00000000 6294750.50000000 
0.01100    158017632.00000000 98589872.00000000 249629680.00000000 99451.53125000  7927451.00000000 6261657.50000000 
0.01200    157230416.00000000 98102248.00000000 248391344.00000000 98806.15625000  7881789.50000000 6225729.50000000 
0.01300    156378864.00000000 97576136.00000000 247052848.00000000 98110.21093750  7832526.00000000 6186918.00000000 
0.01400    155466160.00000000 97011096.00000000 245617648.00000000 97364.35937500  7779699.50000000 6145350.50000000 
0.01500    154492256.00000000 96408544.00000000 244086688.00000000 96571.21093750  7723377.00000000 6100977.50000000 
0.01600    153460352.00000000 95769776.00000000 242462384.00000000 95731.51562500  7663751.50000000 6053984.00000000 
0.01700    152371664.00000000 95095384.00000000 240747440.00000000 94846.21093750  7600852.50000000 6004488.00000000 
0.01800    151225616.00000000 94386664.00000000 238944768.00000000 93918.34375000  7534801.00000000 5952469.50000000 
0.01900    150026016.00000000 93643448.00000000 237056528.00000000 92948.21093750  7465708.50000000 5898057.00000000 
0.02000    148774928.00000000 92868264.00000000 235086320.00000000 91938.29687500  7393674.50000000 5841346.00000000 
0.02100    147472304.00000000 92061848.00000000 233038528.00000000 90890.23437500  7318851.50000000 5782429.50000000 
0.02200    146120160.00000000 91225488.00000000 230910544.00000000 89805.69531250  7241304.00000000 5721294.00000000 
0.02300    144723200.00000000 90360192.00000000 228711376.00000000 88687.29687500  7161229.50000000 5658234.00000000 
0.02400    143281136.00000000 89466848.00000000 226440528.00000000 87535.94531250  7078672.00000000 5593227.00000000 
0.02500    141795488.00000000 88546792.00000000 224101840.00000000 86354.48437500  6993822.50000000 5526364.50000000 
0.02600    140269296.00000000 87602104.00000000 221700272.00000000 85144.61718750  6906818.50000000 5457805.50000000 
0.02700    138706208.00000000 86633528.00000000 219238368.00000000 83908.35156250  6817743.50000000 5387645.50000000 
0.02800    137105584.00000000 85641376.00000000 216719872.00000000 82647.57031250  6726761.00000000 5315982.00000000 
0.02900    135471264.00000000 84628744.00000000 214146528.00000000 81364.64843750  6634007.50000000 5242897.50000000 
0.03000    133804872.00000000 83595800.00000000 211523184.00000000 80061.36718750  6539600.50000000 5168543.00000000 
0.03100    132109576.00000000 82544832.00000000 208852656.00000000 78740.67187500  6443757.00000000 5092977.00000000 
0.03200    130386928.00000000 81476544.00000000 206139264.00000000 77403.29687500  6346501.50000000 5016383.50000000 
0.03300    128637832.00000000 80393112.00000000 203385696.00000000 76052.50781250  6248099.00000000 4938768.00000000 
0.03400    126866816.00000000 79295144.00000000 200597664.00000000 74689.53125000  6148587.00000000 4860350.50000000 
0.03500    125075848.00000000 78184272.00000000 197776528.00000000 73316.92187500  6048134.00000000 4781196.50000000 
0.03600    123265752.00000000 77061256.00000000 194924800.00000000 71936.10937500  5946886.50000000 4701390.50000000 
0.03700    121439848.00000000 75928824.00000000 192048896.00000000 70549.58593750  5844991.50000000 4621030.50000000 
0.03800    119600368.00000000 74787544.00000000 189151248.00000000 69159.85937500  5742561.00000000 4540310.00000000 
0.03900    117749536.00000000 73639712.00000000 186235776.00000000 67767.78125000  5639732.50000000 4459263.00000000 
0.04000    115888640.00000000 72485320.00000000 183303520.00000000 66375.85156250  5536629.50000000 4377991.00000000 
0.04100    114020744.00000000 71325552.00000000 180359600.00000000 64985.33593750  5433408.00000000 4296574.00000000 
0.04200    112147680.00000000 70163128.00000000 177408160.00000000 63598.82812500  5330172.50000000 4215181.50000000 
0.04300    110270520.00000000 68997832.00000000 174451632.00000000 62217.49609375  5227069.50000000 4133843.50000000 
0.04400    108393968.00000000 67832520.00000000 171493968.00000000 60842.78125000  5124138.00000000 4052710.25000000 
0.04500    106517912.00000000 66667536.00000000 168536432.00000000 59476.96093750  5021596.00000000 3971829.25000000 
0.04600    104644256.00000000 65503912.00000000 165584224.00000000 58121.12109375  4919505.00000000 3891310.00000000 
0.04700    102776912.00000000 64343340.00000000 162638896.00000000 56776.88281250  4817987.50000000 3811230.25000000 
0.04800    100915336.00000000 63186880.00000000 159704256.00000000 55445.41406250  4717126.50000000 3731655.00000000 
0.04900    99062344.00000000 62035532.00000000 156783680.00000000 54128.85937500  4617083.50000000 3652702.25000000 
0.05000    97219520.00000000 60890112.00000000 153877072.00000000 52827.63671875  4517881.00000000 3574447.00000000 
0.05100    95388968.00000000 59752436.00000000 150990880.00000000 51542.98046875  4419618.00000000 3496932.50000000 
0.05200    93572288.00000000 58622532.00000000 148124496.00000000 50276.46093750  4322447.00000000 3420211.00000000 
0.05300    91769896.00000000 57502000.00000000 145282944.00000000 49028.73046875  4226378.50000000 3344418.50000000 
0.05400    89985016.00000000 56391652.00000000 142466816.00000000 47800.92578125  4131509.00000000 3269562.50000000 
0.05500    88216864.00000000 55292176.00000000 139678784.00000000 46593.81250000  4037933.75000000 3195703.00000000 
0.05600    86468888.00000000 54204636.00000000 136920784.00000000 45408.76562500  3945701.25000000 3122903.50000000 
0.05700    84741816.00000000 53130028.00000000 134196480.00000000 44245.30468750  3854875.00000000 3051216.00000000 
0.05800    83035832.00000000 52068556.00000000 131505248.00000000 43105.26562500  3765535.75000000 2980684.50000000 
0.05900    81352760.00000000 51021148.00000000 128849976.00000000 41988.89843750  3677711.75000000 2911333.50000000 
0.06000    79694336.00000000 49988780.00000000 126233200.00000000 40896.08203125  3591439.00000000 2843250.75000000 
0.06100    78060096.00000000 48971748.00000000 123654328.00000000 39828.28125000  3506794.50000000 2776398.00000000 
0.06200    76452192.00000000 47970284.00000000 121116904.00000000 38784.69140625  3423778.75000000 2710852.75000000 
0.06300    74871232.00000000 46985836.00000000 118621280.00000000 37766.45312500  3342483.50000000 2646660.00000000 
0.06400    73317168.00000000 46017952.00000000 116168200.00000000 36773.40234375  3262870.75000000 2583778.25000000 
0.06500    71791096.00000000 45067412.00000000 113759352.00000000 35805.67187500  3185002.00000000 2522284.25000000 
0.06600    70294176.00000000 44134704.00000000 111396216.00000000 34863.33203125  3108893.75000000 2462189.75000000 
0.06700    68825712.00000000 43220328.00000000 109078824.00000000 33946.52734375  3034563.25000000 2403469.25000000 
0.06800    67387776.00000000 42324168.00000000 106807464.00000000 33055.05468750  2961998.75000000 2346138.50000000 
0.06900    65978856.00000000 41446752.00000000 104583824.00000000 32188.93750000  2891227.50000000 2290216.75000000 
0.07000    64600808.00000000 40587644.00000000 102408192.00000000 31347.70117188  2822247.00000000 2235738.75000000 
0.07100    63253112.00000000 39747740.00000000 100280416.00000000 30531.50195312  2755029.25000000 2182655.00000000 
0.07200    61936536.00000000 38926988.00000000 98200896.00000000 29739.95898438  2689618.25000000 2130956.25000000 
0.07300    60650404.00000000 38125612.00000000 96170048.00000000 28972.13281250  2625950.25000000 2080681.37500000 
0.07400    59395200.00000000 37342912.00000000 94188496.00000000 28228.39843750  2564067.75000000 2031776.12500000 
0.07500    58170712.00000000 36579736.00000000 92254936.00000000 27507.97460938  2503896.75000000 1984239.37500000 
0.07600    56977260.00000000 35835768.00000000 90369872.00000000 26810.62500000  2445465.75000000 1938066.12500000 
0.07700    55814372.00000000 35111040.00000000 88533672.00000000 26135.56835938  2388712.75000000 1893235.00000000 
0.07800    54681824.00000000 34404848.00000000 86745112.00000000 25482.61328125  2333637.75000000 1849722.37500000 
0.07900    53579528.00000000 33717992.00000000 85004808.00000000 24850.68945312  2280199.25000000 1807507.50000000 
0.08000    52507032.00000000 33049742.00000000 83311312.00000000 24239.84375000  2228369.75000000 1766570.37500000 
0.08100    51464608.00000000 32399746.00000000 81665232.00000000 23649.18164062  2178146.75000000 1726879.37500000 
0.08200    50450468.00000000 31768216.00000000 80065072.00000000 23077.98437500  2129449.50000000 1688405.50000000 
0.08300    49465844.00000000 31154774.00000000 78509840.00000000 22525.62890625  2082265.50000000 1651127.87500000 
0.08400    48509740.00000000 30558868.00000000 76999824.00000000 21991.56250000  2036525.50000000 1614997.37500000 
0.08500    47581072.00000000 29980424.00000000 75534056.00000000 21475.08984375  1992240.12500000 1580011.37500000 
0.08600    46679408.00000000 29419036.00000000 74110944.00000000 20975.52539062  1949337.25000000 1546112.75000000 
0.08700    45804608.00000000 28874416.00000000 72730808.00000000 20492.24023438  1907760.50000000 1513290.62500000 
0.08800    44956388.00000000 28346088.00000000 71391824.00000000 20024.43359375  1867498.75000000 1481490.50000000 
0.08900    44133108.00000000 27833958.00000000 70092768.00000000 19571.69531250  1828489.00000000 1450692.75000000 
0.09000    43335128.00000000 27337384.00000000 68834144.00000000 19133.13671875  1790688.75000000 1420845.87500000 
0.09100    42561068.00000000 26855878.00000000 67612744.00000000 18708.13085938  1754069.12500000 1391923.25000000 
0.09200    41810764.00000000 26389330.00000000 66429436.00000000 18296.09570312  1718551.75000000 1363898.75000000 
0.09300    41083248.00000000 25937158.00000000 65281588.00000000 17896.25000000  1684134.50000000 1336715.62500000 
0.09400    40377800.00000000 25498926.00000000 64169456.00000000 17508.09179688  1650740.00000000 1310355.87500000 
0.09500    39693724.00000000 25073956.00000000 63090972.00000000 17131.11328125  1618331.25000000 1284777.50000000 
0.09600    39030312.00000000 24662158.00000000 62045296.00000000 16764.35546875  1586863.62500000 1259947.25000000 
0.09700    38387048.00000000 24262972.00000000 61031920.00000000 16407.55859375  1556303.75000000 1235831.25000000 
0.09800    37762772.00000000 23875856.00000000 60049048.00000000 16060.28515625  1526614.12500000 1212388.12500000 
0.09900    37157172.00000000 23500476.00000000 59094988.00000000 15721.58593750  1497717.37500000 1189593.87500000 
0.10000    36569632.00000000 23136148.00000000 58169700.00000000 15391.23339844  1469595.00000000 1167411.00000000 
0.10100    35998464.00000000 22782830.00000000 57270880.00000000 15068.72558594  1442215.25000000 1145801.50000000 
0.10200    35444464.00000000 22439468.00000000 56398492.00000000 14753.44531250  1415539.50000000 1124757.50000000 
0.10300    34905588.00000000 22106044.00000000 55550648.00000000 14445.09960938  1389504.75000000 1104226.25000000 
0.10400    34381952.00000000 21782250.00000000 54726836.00000000 14143.03125000  1364079.50000000 1084175.62500000 
0.10500    33872184.00000000 21467132.00000000 53925472.00000000 13847.32421875  1339260.25000000 1064597.75000000 
0.10600    33376072.00000000 21160836.00000000 53145384.00000000 13557.17382812  1314987.75000000 1045443.87500000 
0.10700    32892768.00000000 20862336.00000000 52385744.00000000 13272.45312500  1291219.00000000 1026702.68750000 
0.10800    32421988.00000000 20571806.00000000 51645452.00000000 12992.79101562  1267951.62500000 1008343.62500000 
0.10900    31962910.00000000 20288510.00000000 50923792.00000000 12717.79687500  1245137.12500000 990336.62500000 
0.11000    31514446.00000000 20011938.00000000 50219448.00000000 12447.41601562  1222744.87500000 972676.56250000 
0.11100    31076494.00000000 19742126.00000000 49531656.00000000 12181.38085938  1200754.37500000 955324.12500000 
0.11200    30648154.00000000 19478126.00000000 48859212.00000000 11919.19628906  1179153.12500000 938278.12500000 
0.11300    30229294.00000000 19220224.00000000 48201436.00000000 11661.02734375  1157899.25000000 921503.50000000 
0.11400    29818990.00000000 18967778.00000000 47557552.00000000 11406.54003906  1136975.37500000 904986.62500000 
0.11500    29416886.00000000 18720308.00000000 46926208.00000000 11155.65429688  1116374.87500000 888711.75000000 
0.11600    29022634.00000000 18477522.00000000 46307528.00000000 10908.21582031  1096060.62500000 872676.25000000 
0.11700    28635312.00000000 18239260.00000000 45699856.00000000 10664.16699219  1076030.00000000 856850.75000000 
0.11800    28254684.00000000 18005082.00000000 45102572.00000000 10423.24609375  1056249.87500000 841220.06250000 
0.11900    27880814.00000000 17775038.00000000 44515164.00000000 10185.61718750  1036715.68750000 825783.37500000 
0.12000    27512260.00000000 17548440.00000000 43937584.00000000 9951.07910156   1017416.37500000 810520.43750000 
0.12100    27149548.00000000 17325394.00000000 43368164.00000000 9719.62890625   998354.68750000 795446.68750000 
0.12200    26791934.00000000 17105328.00000000 42806984.00000000 9491.41210938   979496.62500000 780526.62500000 
0.12300    26439122.00000000 16888192.00000000 42253172.00000000 9266.09960938   960838.93750000 765758.56250000 
0.12400    26090856.00000000 16673780.00000000 41706496.00000000 9043.99511719   942383.68750000 751144.87500000 
0.12500    25746760.00000000 16461852.00000000 41165820.00000000 8824.97558594   924115.37500000 736672.50000000 
0.12600    25406512.00000000 16252317.00000000 40632004.00000000 8609.13574219   906039.68750000 722343.00000000 
0.12700    25069864.00000000 16044868.00000000 40103100.00000000 8396.48730469   888137.25000000 708150.81250000 
0.12800    24736828.00000000 15839505.00000000 39579764.00000000 8187.03076172   870419.06250000 694091.81250000 
0.12900    24406920.00000000 15635897.00000000 39061292.00000000 7980.87060547   852881.06250000 680172.87500000 
0.13000    24080008.00000000 15434090.00000000 38547244.00000000 7778.08007812   835512.18750000 666379.37500000 
0.13100    23755840.00000000 15233851.00000000 38037572.00000000 7578.55126953   818311.43750000 652715.87500000 
0.13200    23434546.00000000 15035170.00000000 37531840.00000000 7382.51757812   801288.37500000 639181.75000000 
0.13300    23115678.00000000 14837953.00000000 37030292.00000000 7189.99072266   784443.93750000 625786.81250000 
0.13400    22799202.00000000 14641930.00000000 36531880.00000000 7000.96093750   767770.62500000 612520.12500000 
0.13500    22485150.00000000 14447246.00000000 36036976.00000000 6815.61474609   751283.25000000 599390.06250000 
0.13600    22173112.00000000 14253716.00000000 35545408.00000000 6633.96337891   734964.00000000 586394.93750000 
0.13700    21863404.00000000 14061351.00000000 35056832.00000000 6455.98095703   718834.87500000 573538.93750000 
0.13800    21555602.00000000 13870025.00000000 34571436.00000000 6281.78759766   702891.68750000 560821.00000000 
0.13900    21249890.00000000 13679757.00000000 34088752.00000000 6111.40820312   687139.43750000 548251.25000000 
0.14000    20946204.00000000 13490608.00000000 33609024.00000000 5944.96777344   671573.25000000 535825.50000000 
0.14100    20644592.00000000 13302475.00000000 33132598.00000000 5782.38623047   656212.12500000 523547.96875000 
0.14200    20344554.00000000 13115266.00000000 32658312.00000000 5623.74853516   641042.00000000 511426.21875000 
0.14300    20046720.00000000 12929053.00000000 32186992.00000000 5469.04248047   626085.56250000 499462.34375000 
0.14400    19750708.00000000 12743750.00000000 31718458.00000000 5318.34130859   611325.81250000 487654.28125000 
0.14500    19456590.00000000 12559599.00000000 31252894.00000000 5171.69238281   596783.37500000 476008.28125000 
0.14600    19164412.00000000 12376349.00000000 30789896.00000000 5028.93896484   582450.37500000 464531.25000000 
0.14700    18874436.00000000 12194162.00000000 30330038.00000000 4890.22363281   568339.93750000 453220.21875000 
0.14800    18586250.00000000 12012918.00000000 29872718.00000000 4755.43164062   554451.00000000 442079.25000000 
0.14900    18300120.00000000 11832878.00000000 29418534.00000000 4624.60742188   540781.31250000 431112.15625000 
0.15000    18016014.00000000 11653758.00000000 28967462.00000000 4497.74365234   527342.00000000 420321.96875000 
0.15100    17734062.00000000 11475910.00000000 28519456.00000000 4374.73486328   514129.78125000 409713.40625000 
0.15200    17454420.00000000 11299199.00000000 28074554.00000000 4255.59960938   501153.37500000 399283.62500000 
0.15300    17176840.00000000 11123671.00000000 27632996.00000000 4140.23046875   488409.96875000 389039.03125000 
0.15400    16901460.00000000 10949284.00000000 27194588.00000000 4028.58325195   475899.21875000 378973.43750000 
0.15500    16628447.00000000 10776180.00000000 26759690.00000000 3920.66357422   463627.93750000 369100.28125000 
0.15600    16357869.00000000 10604320.00000000 26328220.00000000 3816.26806641   451589.78125000 359409.25000000 
0.15700    16089639.00000000 10433953.00000000 25900562.00000000 3715.47802734   439793.84375000 349912.12500000 
0.15800    15823894.00000000 10264754.00000000 25476120.00000000 3618.05981445   428233.75000000 340596.21875000 
0.15900    15560591.00000000 10097109.00000000 25055952.00000000 3524.04980469   416916.68750000 331473.21875000 
0.16000    15299897.00000000 9930862.00000000 24639400.00000000 3433.25073242   405827.56250000 322537.68750000 
0.16100    15041863.00000000 9766197.00000000 24226926.00000000 3345.65478516   394986.56250000 313793.09375000 
0.16200    14786424.00000000 9602887.00000000 23818494.00000000 3261.12329102   384377.00000000 305235.78125000 
0.16300    14533700.00000000 9441312.00000000 23414120.00000000 3179.53564453   374002.34375000 296864.65625000 
0.16400    14283824.00000000 9281199.00000000 23014018.00000000 3100.81860352   363860.68750000 288681.78125000 
0.16500    14036636.00000000 9122850.00000000 22618262.00000000 3024.81835938   353951.34375000 280680.96875000 
0.16600    13792361.00000000 8966099.00000000 22226598.00000000 2951.47900391   344271.59375000 272869.50000000 
0.16700    13550806.00000000 8811035.00000000 21839600.00000000 2880.63891602   334811.34375000 265234.00000000 
0.16800    13312226.00000000 8657665.00000000 21457058.00000000 2812.21118164   325579.96875000 257777.70312500 
0.16900    13076702.00000000 8506119.00000000 21079234.00000000 2746.11865234   316568.71875000 250501.15625000 
0.17000    12844140.00000000 8356354.50000000 20705788.00000000 2682.20361328   307771.18750000 243401.67187500 
