# SAXS profile: number of points = 501, q_min = 0, q_max = 0.5, delta_q = 0.001
#    q    intensity 
0.00000    162231968.00000000 101201776.00000000 256270896.00000000 108538.78906250 8392652.00000000 6628514.50000000 
0.00100    162199376.00000000 101178832.00000000 256212608.00000000 108505.07812500 8390399.00000000 6626746.50000000 
0.00200    162094272.00000000 101110896.00000000 256039936.00000000 108404.07031250 8383519.00000000 6621330.50000000 
0.00300    161914416.00000000 100997568.00000000 255751712.00000000 108235.03125000 8372160.50000000 6612363.50000000 
0.00400    161656432.00000000 100839520.00000000 255347312.00000000 108000.05468750 8356163.50000000 6599849.00000000 
0.00500    161322304.00000000 100635928.00000000 254828704.00000000 107698.12500000 8335767.50000000 6583787.00000000 
0.00600    160918688.00000000 100387016.00000000 254195808.00000000 107330.73437500 8310857.00000000 6564252.00000000 
0.00700    160441392.00000000 100095192.00000000 253453520.00000000 106898.97656250 8281598.00000000 6541212.00000000 
0.00800    159893616.00000000 99760200.00000000 252598464.00000000 106402.73437500 8247974.00000000 6514785.00000000 
0.00900    159278272.00000000 99383328.00000000 251632800.00000000 105844.37500000 8209978.00000000 6485006.00000000 
0.01000    158597792.00000000 98963056.00000000 250559216.00000000 105224.60937500 8167902.50000000 6451866.50000000 
0.01100    157847920.00000000 98500136.00000000 249381376.00000000 104544.38281250 8121693.50000000 6415543.50000000 
0.01200    157029168.00000000 97997024.00000000 248099584.00000000 103805.26562500 8071453.50000000 6376000.00000000 
0.01300    156145136.00000000 97452320.00000000 246713984.00000000 103010.23437500 8017252.50000000 6333385.00000000 
0.01400    155198416.00000000 96870528.00000000 245229216.00000000 102159.58593750 7959216.50000000 6287824.00000000 
0.01500    154190320.00000000 96250152.00000000 243647232.00000000 101255.12500000 7897496.50000000 6239245.50000000 
0.01600    153123168.00000000 95592616.00000000 241970288.00000000 100300.19531250 7832171.00000000 6187929.50000000 
0.01700    151996176.00000000 94898728.00000000 240202272.00000000 99295.39062500  7763403.50000000 6133853.50000000 
0.01800    150813360.00000000 94169976.00000000 238343424.00000000 98243.67187500  7691300.00000000 6077154.00000000 
0.01900    149575104.00000000 93407720.00000000 236401072.00000000 97147.17187500  7615965.00000000 6017916.50000000 
0.02000    148283776.00000000 92612144.00000000 234375712.00000000 96007.58593750  7537612.50000000 5956271.50000000 
0.02100    146942080.00000000 91786704.00000000 232267760.00000000 94827.79687500  7456338.50000000 5892327.00000000 
0.02200    145552240.00000000 90929024.00000000 230085488.00000000 93610.03125000  7372282.00000000 5826209.50000000 
0.02300    144116544.00000000 90043944.00000000 227830320.00000000 92356.85937500  7285600.50000000 5758092.50000000 
0.02400    142636784.00000000 89131184.00000000 225505664.00000000 91070.82812500  7196531.50000000 5687958.00000000 
0.02500    141113424.00000000 88192000.00000000 223115456.00000000 89754.61718750  7105134.00000000 5616008.00000000 
0.02600    139554144.00000000 87228728.00000000 220662912.00000000 88410.22656250  7011585.50000000 5542370.00000000 
0.02700    137955056.00000000 86241448.00000000 218149696.00000000 87040.46093750  6916025.50000000 5467244.50000000 
0.02800    136319968.00000000 85233432.00000000 215583008.00000000 85648.20312500  6818691.50000000 5390596.00000000 
0.02900    134655136.00000000 84205192.00000000 212966144.00000000 84235.25781250  6719700.50000000 5312658.50000000 
0.03000    132960312.00000000 83157840.00000000 210300096.00000000 82805.34375000  6619225.00000000 5233557.00000000 
0.03100    131236912.00000000 82093032.00000000 207591600.00000000 81358.99218750  6517402.50000000 5153431.50000000 
0.03200    129488944.00000000 81012408.00000000 204843360.00000000 79901.27343750  6414422.00000000 5072329.00000000 
0.03300    127718024.00000000 79918888.00000000 202059616.00000000 78433.34375000  6310418.50000000 4990462.50000000 
0.03400    125927432.00000000 78811008.00000000 199241824.00000000 76957.46093750  6205579.00000000 4907907.50000000 
0.03500    124118808.00000000 77692616.00000000 196396096.00000000 75476.07812500  6100128.50000000 4824796.50000000 
0.03600    122294400.00000000 76563856.00000000 193527008.00000000 73991.55468750  5994066.00000000 4741261.50000000 
0.03700    120456528.00000000 75426408.00000000 190634080.00000000 72506.21093750  5887606.00000000 4657373.50000000 
0.03800    118608104.00000000 74281632.00000000 187725440.00000000 71022.70312500  5780946.50000000 4573324.00000000 
0.03900    116751768.00000000 73131280.00000000 184802512.00000000 69542.69531250  5674223.50000000 4489158.00000000 
0.04000    114888840.00000000 71976992.00000000 181869680.00000000 68067.49218750  5567445.50000000 4405028.00000000 
0.04100    113021632.00000000 70818856.00000000 178930208.00000000 66600.63281250  5460910.50000000 4321044.50000000 
0.04200    111153144.00000000 69660040.00000000 175986064.00000000 65142.27734375  5354665.50000000 4237293.50000000 
0.04300    109284448.00000000 68500896.00000000 173042240.00000000 63695.71093750  5248908.00000000 4153858.50000000 
0.04400    107417960.00000000 67341976.00000000 170100384.00000000 62261.95703125  5143651.50000000 4070862.75000000 
0.04500    105556176.00000000 66185484.00000000 167164208.00000000 60842.58984375  5039113.50000000 3988397.75000000 
0.04600    103699344.00000000 65032376.00000000 164237808.00000000 59439.00390625  4935320.50000000 3906525.00000000 
0.04700    101851192.00000000 63884056.00000000 161323840.00000000 58053.10937500  4832434.50000000 3825364.25000000 
0.04800    100011960.00000000 62740936.00000000 158424880.00000000 56685.51171875  4730593.50000000 3744961.75000000 
0.04900    98185328.00000000 61604716.00000000 155543584.00000000 55338.14062500  4629787.50000000 3665411.00000000 
0.05000    96370432.00000000 60475952.00000000 152681136.00000000 54011.65625000  4530198.50000000 3586770.00000000 
0.05100    94570928.00000000 59355948.00000000 149842256.00000000 52707.02734375  4431825.00000000 3509114.50000000 
0.05200    92787888.00000000 58245876.00000000 147027680.00000000 51424.91015625  4334807.50000000 3432515.50000000 
0.05300    91021176.00000000 57145740.00000000 144240960.00000000 50167.29687500  4239173.50000000 3357008.25000000 
0.05400    89274576.00000000 56056940.00000000 141483152.00000000 48933.46484375  4145021.50000000 3282640.75000000 
0.05500    87547216.00000000 54980720.00000000 138755872.00000000 47724.72265625  4052382.75000000 3209461.75000000 
0.05600    85841144.00000000 53917076.00000000 136062176.00000000 46541.25000000  3961333.75000000 3137528.00000000 
0.05700    84157624.00000000 52866996.00000000 133401784.00000000 45384.07031250  3871911.75000000 3066873.25000000 
0.05800    82498048.00000000 51831292.00000000 130779576.00000000 44252.85156250  3784144.50000000 2997514.50000000 
0.05900    80860848.00000000 50809976.00000000 128193880.00000000 43147.60156250  3698054.75000000 2929492.00000000 
0.06000    79250120.00000000 49804016.00000000 125648208.00000000 42069.58984375  3613721.75000000 2862819.75000000 
0.06100    77664688.00000000 48813796.00000000 123142184.00000000 41018.08593750  3531134.00000000 2797524.50000000 
0.06200    76106248.00000000 47839860.00000000 120678448.00000000 39993.19921875  3450280.75000000 2733616.50000000 
0.06300    74574368.00000000 46882964.00000000 118255968.00000000 38994.30468750  3371254.25000000 2671127.75000000 
0.06400    73069352.00000000 45942216.00000000 115877720.00000000 38022.26171875  3293981.75000000 2610040.75000000 
0.06500    71594208.00000000 45019392.00000000 113542736.00000000 37076.29296875  3218529.25000000 2550364.50000000 
0.06600    70146064.00000000 44113780.00000000 111253376.00000000 36156.20703125  3144842.00000000 2492083.50000000 
0.06700    68727104.00000000 43226036.00000000 109008736.00000000 35262.04687500  3072960.25000000 2435195.75000000 
0.06800    67337784.00000000 42356296.00000000 106809208.00000000 34392.33203125  3002843.50000000 2379747.75000000 
0.06900    65977116.00000000 41504660.00000000 104656744.00000000 33547.80859375  2934502.00000000 2325684.00000000 
0.07000    64645076.00000000 40670960.00000000 102549384.00000000 32727.49218750  2867894.00000000 2273002.25000000 
0.07100    63342832.00000000 39855816.00000000 100489040.00000000 31931.00976562  2803024.75000000 2221651.50000000 
0.07200    62070116.00000000 39058404.00000000 98474312.00000000 31157.79101562  2739877.25000000 2171704.25000000 
0.07300    60826196.00000000 38279840.00000000 96505656.00000000 30407.32812500  2678387.25000000 2123042.75000000 
0.07400    59611756.00000000 37518952.00000000 94582968.00000000 29678.43945312  2618555.00000000 2075703.87500000 
0.07500    58425912.00000000 36776304.00000000 92706096.00000000 28971.58203125  2560354.00000000 2029634.37500000 
0.07600    57268912.00000000 36051980.00000000 90874896.00000000 28285.19921875  2503715.25000000 1984837.25000000 
0.07700    56140700.00000000 35345092.00000000 89089248.00000000 27618.93750000  2448647.00000000 1941252.62500000 
0.07800    55040424.00000000 34655820.00000000 87347240.00000000 26972.17773438  2395083.00000000 1898872.87500000 
0.07900    53967656.00000000 33984160.00000000 85649416.00000000 26344.27148438  2343002.00000000 1857665.62500000 
0.08000    52922700.00000000 33330092.00000000 83995280.00000000 25734.56250000  2292363.25000000 1817597.75000000 
0.08100    51904716.00000000 32692782.00000000 82384976.00000000 25142.30664062  2243116.25000000 1778624.25000000 
0.08200    50913072.00000000 32072020.00000000 80815824.00000000 24566.89257812  2195251.00000000 1740741.25000000 
0.08300    49947884.00000000 31467728.00000000 79288096.00000000 24007.72460938  2148689.00000000 1703894.25000000 
0.08400    49008092.00000000 30880016.00000000 77801408.00000000 23463.88671875  2103390.75000000 1668073.00000000 
0.08500    48093248.00000000 30307574.00000000 76354464.00000000 22935.14257812  2059322.50000000 1633210.50000000 
0.08600    47202960.00000000 29750992.00000000 74945984.00000000 22420.92382812  2016465.37500000 1599297.12500000 
0.08700    46336480.00000000 29209702.00000000 73576976.00000000 21919.91210938  1974741.37500000 1566304.62500000 
0.08800    45493564.00000000 28683176.00000000 72243104.00000000 21432.32421875  1934131.75000000 1534194.00000000 
0.08900    44673412.00000000 28171078.00000000 70947976.00000000 20957.53515625  1894603.50000000 1502905.62500000 
0.09000    43875908.00000000 27672960.00000000 69686928.00000000 20494.44726562  1856093.37500000 1472441.25000000 
0.09100    43099600.00000000 27188716.00000000 68460680.00000000 20043.20507812  1818574.37500000 1442775.37500000 
0.09200    42344240.00000000 26717688.00000000 67267552.00000000 19602.63085938  1781989.37500000 1413855.50000000 
0.09300    41610116.00000000 26259656.00000000 66107196.00000000 19172.89843750  1746335.00000000 1385663.25000000 
0.09400    40894680.00000000 25814324.00000000 64978588.00000000 18753.25195312  1711558.00000000 1358162.62500000 
0.09500    40198892.00000000 25381138.00000000 63880080.00000000 18343.28320312  1677609.25000000 1331315.00000000 
0.09600    39521848.00000000 24959692.00000000 62811760.00000000 17942.71093750  1644485.87500000 1305114.00000000 
0.09700    38862156.00000000 24549942.00000000 61771792.00000000 17551.19140625  1612120.37500000 1279534.00000000 
0.09800    38220356.00000000 24151088.00000000 60759616.00000000 17168.00390625  1580504.37500000 1254527.75000000 
0.09900    37595164.00000000 23762734.00000000 59774284.00000000 16793.50781250  1549594.62500000 1230090.25000000 
0.10000    36986024.00000000 23384892.00000000 58814488.00000000 16426.78320312  1519365.75000000 1206187.50000000 
0.10100    36392588.00000000 23016890.00000000 57879336.00000000 16067.88281250  1489795.62500000 1182799.00000000 
0.10200    35814384.00000000 22658626.00000000 56968444.00000000 15716.35742188  1460847.75000000 1159905.87500000 
0.10300    35249992.00000000 22309254.00000000 56080520.00000000 15372.05468750  1432499.75000000 1137490.12500000 
0.10400    34699668.00000000 21969032.00000000 55214640.00000000 15034.90625000  1404738.75000000 1115526.62500000 
0.10500    34162932.00000000 21637114.00000000 54370012.00000000 14704.63476562  1377544.25000000 1094012.75000000 
0.10600    33638916.00000000 21313128.00000000 53545912.00000000 14380.84082031  1350855.87500000 1072908.12500000 
0.10700    33127022.00000000 20997106.00000000 52741356.00000000 14063.74023438  1324697.75000000 1052206.37500000 
0.10800    32626988.00000000 20688640.00000000 51955276.00000000 13752.83984375  1299043.62500000 1031902.12500000 
0.10900    32138480.00000000 20387248.00000000 51187768.00000000 13448.27343750  1273854.62500000 1011974.56250000 
0.11000    31660916.00000000 20092778.00000000 50436968.00000000 13149.74804688  1249135.50000000 992390.56250000 
0.11100    31193376.00000000 19804726.00000000 49702984.00000000 12857.21484375  1224875.62500000 973172.93750000 
0.11200    30736170.00000000 19523214.00000000 48984788.00000000 12570.64453125  1201024.50000000 954294.43750000 
0.11300    30288166.00000000 19247290.00000000 48281596.00000000 12289.77050781  1177608.50000000 935744.75000000 
0.11400    29849546.00000000 18977258.00000000 47593064.00000000 12014.73632812  1154616.75000000 917509.93750000 
0.11500    29419612.00000000 18712812.00000000 46918348.00000000 11745.17773438  1132006.75000000 899581.68750000 
0.11600    28998052.00000000 18453536.00000000 46256412.00000000 11481.35644531  1109773.87500000 881964.68750000 
0.11700    28584498.00000000 18199108.00000000 45607660.00000000 11222.91503906  1087930.00000000 864638.43750000 
0.11800    28178326.00000000 17949532.00000000 44970612.00000000 10969.91992188  1066442.50000000 847598.00000000 
0.11900    27779586.00000000 17704366.00000000 44345236.00000000 10722.26757812  1045320.43750000 830833.12500000 
0.12000    27387928.00000000 17463450.00000000 43730116.00000000 10479.75000000  1024552.18750000 814343.62500000 
0.12100    27002904.00000000 17226850.00000000 43125784.00000000 10242.63867188  1004135.18750000 798125.93750000 
0.12200    26624454.00000000 16993906.00000000 42531520.00000000 10010.63476562  984045.06250000 782170.12500000 
0.12300    26251696.00000000 16764776.00000000 41946932.00000000 9783.73339844   964287.75000000 766468.25000000 
0.12400    25885176.00000000 16539305.00000000 41371668.00000000 9561.76464844   944870.25000000 751027.43750000 
0.12500    25524034.00000000 16317042.00000000 40804552.00000000 9344.82226562   925755.68750000 735828.62500000 
0.12600    25168442.00000000 16098034.00000000 40245840.00000000 9132.78320312   906966.75000000 720879.06250000 
0.12700    24817798.00000000 15881931.00000000 39695208.00000000 8925.51757812   888486.93750000 706178.25000000 
0.12800    24472070.00000000 15668900.00000000 39152160.00000000 8722.86621094   870308.43750000 691708.50000000 
0.12900    24131142.00000000 15458658.00000000 38616240.00000000 8524.89746094   852436.50000000 677481.50000000 
0.13000    23794600.00000000 15250999.00000000 38087472.00000000 8331.52929688   834855.25000000 663479.62500000 
0.13100    23462522.00000000 15045830.00000000 37564840.00000000 8142.38427734   817573.87500000 649708.12500000 
0.13200    23134588.00000000 14843090.00000000 37049148.00000000 7957.77001953   800579.87500000 636166.37500000 
0.13300    22810764.00000000 14642814.00000000 36539352.00000000 7777.29443359   783864.56250000 622850.00000000 
0.13400    22490644.00000000 14444557.00000000 36035104.00000000 7601.09570312   767437.93750000 609745.43750000 
0.13500    22174186.00000000 14248492.00000000 35536912.00000000 7428.81982422   751283.62500000 596861.50000000 
0.13600    21861402.00000000 14054504.00000000 35044012.00000000 7260.56787109   735404.62500000 584195.12500000 
0.13700    21552030.00000000 13862469.00000000 34556244.00000000 7095.99902344   719786.12500000 571738.25000000 
0.13800    21246162.00000000 13672255.00000000 34073408.00000000 6935.22460938   704437.75000000 559488.00000000 
0.13900    20943244.00000000 13483903.00000000 33595576.00000000 6778.07373047   689348.25000000 547446.06250000 
0.14000    20643640.00000000 13297243.00000000 33122474.00000000 6624.37011719   674520.75000000 535611.93750000 
0.14100    20346862.00000000 13112391.00000000 32653944.00000000 6474.05273438   659937.87500000 523974.81250000 
0.14200    20053314.00000000 12929054.00000000 32189852.00000000 6326.99218750   645612.81250000 512532.62500000 
0.14300    19762518.00000000 12747345.00000000 31729906.00000000 6183.10009766   631518.31250000 501284.59375000 
0.14400    19474356.00000000 12567221.00000000 31274094.00000000 6042.18408203   617671.18750000 490229.09375000 
0.14500    19189236.00000000 12388569.00000000 30822748.00000000 5904.25878906   604063.25000000 479367.06250000 
0.14600    18906500.00000000 12211477.00000000 30375018.00000000 5769.13476562   590680.00000000 468682.81250000 
0.14700    18626720.00000000 12035844.00000000 29931438.00000000 5636.72949219   577538.50000000 458187.90625000 
0.14800    18349200.00000000 11861531.00000000 29491412.00000000 5506.97119141   564608.62500000 447869.68750000 
0.14900    18074390.00000000 11688677.00000000 29055260.00000000 5379.64843750   551902.87500000 437725.65625000 
0.15000    17801896.00000000 11517098.00000000 28623020.00000000 5254.80029297   539409.75000000 427761.15625000 
0.15100    17532002.00000000 11347037.00000000 28194482.00000000 5132.27734375   527138.50000000 417960.03125000 
0.15200    17264474.00000000 11178281.00000000 27769358.00000000 5012.02587891   515070.21875000 408336.34375000 
0.15300    16999218.00000000 11010865.00000000 27348018.00000000 4893.95068359   503209.68750000 398873.00000000 
0.15400    16736606.00000000 10844712.00000000 26930054.00000000 4777.92285156   491546.75000000 389570.09375000 
0.15500    16476360.00000000 10679966.00000000 26515748.00000000 4663.95410156   480084.53125000 380430.18750000 
0.15600    16218305.00000000 10516464.00000000 26104924.00000000 4551.94140625   468811.87500000 371444.25000000 
0.15700    15962535.00000000 10354480.00000000 25697858.00000000 4441.85742188   457735.87500000 362616.90625000 
0.15800    15709194.00000000 10193608.00000000 25294066.00000000 4333.60839844   446847.96875000 353937.75000000 
0.15900    15458111.00000000 10034159.00000000 24893972.00000000 4227.10839844   436143.18750000 345409.37500000 
0.16000    15209472.00000000 9876085.00000000 24497466.00000000 4122.40136719   425620.43750000 337024.90625000 
0.16100    14963102.00000000 9719287.00000000 24104496.00000000 4019.46923828   415283.43750000 328793.90625000 
0.16200    14719070.00000000 9563898.00000000 23714894.00000000 3918.17993164   405116.40625000 320697.28125000 
0.16300    14477362.00000000 9409928.00000000 23329136.00000000 3818.58203125   395125.62500000 312744.93750000 
0.16400    14238108.00000000 9257225.00000000 22946942.00000000 3720.62866211   385307.06250000 304928.15625000 
0.16500    14001136.00000000 9106032.00000000 22568398.00000000 3624.33935547   375655.18750000 297252.03125000 
0.16600    13766590.00000000 8956159.00000000 22193710.00000000 3529.67602539   366174.25000000 289711.31250000 
0.16700    13534553.00000000 8807784.00000000 21822600.00000000 3436.57446289   356857.18750000 282299.71875000 
0.16800    13304643.00000000 8660906.00000000 21455048.00000000 3345.12426758   347706.00000000 275020.75000000 
0.16900    13077405.00000000 8515347.00000000 21091514.00000000 3255.33007812   338714.53125000 267874.90625000 
0.17000    12852614.00000000 8371288.50000000 20731764.00000000 3167.16967773   329887.87500000 260856.65625000 
