# SAXS profile: number of points = 501, q_min = 0, q_max = 0.5, delta_q = 0.001
#    q    intensity 
0.00000    162236928.00000000 101201896.00000000 256270928.00000000 105588.10937500 8277838.50000000 6537789.00000000 
0.00100    162208208.00000000 101183424.00000000 256224784.00000000 105562.85156250 8276033.00000000 6536401.50000000 
0.00200    162121072.00000000 101128896.00000000 256085456.00000000 105485.32031250 8270695.00000000 6532223.00000000 
0.00300    161975776.00000000 101038248.00000000 255854496.00000000 105357.64843750 8261841.50000000 6525217.50000000 
0.00400    161770192.00000000 100910648.00000000 255529888.00000000 105178.92968750 8249435.00000000 6515438.50000000 
0.00500    161504480.00000000 100747440.00000000 255114640.00000000 104949.32812500 8233514.50000000 6502954.00000000 
0.00600    161180864.00000000 100547512.00000000 254606368.00000000 104669.82031250 8214114.50000000 6487684.50000000 
0.00700    160798448.00000000 100312384.00000000 254007504.00000000 104340.42968750 8191246.00000000 6469666.50000000 
0.00800    160360192.00000000 100042160.00000000 253318784.00000000 103961.58593750 8164926.50000000 6448954.00000000 
0.00900    159860928.00000000 99736712.00000000 252539424.00000000 103533.85156250 8135225.00000000 6425604.50000000 
0.01000    159309824.00000000 99396392.00000000 251673296.00000000 103057.98437500 8102134.00000000 6399589.00000000 
0.01100    158702256.00000000 99022192.00000000 250720192.00000000 102534.91406250 8065750.00000000 6370937.50000000 
0.01200    158041200.00000000 98614016.00000000 249680128.00000000 101965.49218750 8026136.00000000 6339775.50000000 
0.01300    157325392.00000000 98171704.00000000 248553744.00000000 101349.78125000 7983302.50000000 6306083.00000000 
0.01400    156556384.00000000 97697672.00000000 247344384.00000000 100689.64062500 7937303.50000000 6269905.00000000 
0.01500    155732624.00000000 97189968.00000000 246054352.00000000 99985.62500000  7888208.50000000 6231281.00000000 
0.01600    154859472.00000000 96651144.00000000 244681888.00000000 99239.00000000  7836126.00000000 6190307.00000000 
0.01700    153935376.00000000 96081640.00000000 243230720.00000000 98451.13281250  7781108.50000000 6146987.50000000 
0.01800    152963072.00000000 95481096.00000000 241701904.00000000 97622.31250000  7723161.00000000 6101406.00000000 
0.01900    151942064.00000000 94851336.00000000 240097936.00000000 96754.55468750  7662481.00000000 6053670.50000000 
0.02000    150871632.00000000 94191864.00000000 238419104.00000000 95848.56250000  7599043.00000000 6003728.50000000 
0.02100    149758416.00000000 93504736.00000000 236669760.00000000 94906.52343750  7533013.00000000 5951770.50000000 
0.02200    148601760.00000000 92789704.00000000 234848768.00000000 93928.85156250  7464432.50000000 5897777.00000000 
0.02300    147398480.00000000 92047728.00000000 232960576.00000000 92917.82031250  7393359.50000000 5841858.00000000 
0.02400    146155600.00000000 91280536.00000000 231008112.00000000 91874.22656250  7319952.00000000 5784107.50000000 
0.02500    144872176.00000000 90488432.00000000 228989952.00000000 90799.39843750  7244247.50000000 5724510.50000000 
0.02600    143549712.00000000 89671584.00000000 226911216.00000000 89695.60937500  7166407.00000000 5663239.00000000 
0.02700    142189984.00000000 88831392.00000000 224772560.00000000 88564.04687500  7086489.00000000 5600316.00000000 
0.02800    140793280.00000000 87968952.00000000 222579248.00000000 87405.71093750  7004602.50000000 5535858.50000000 
0.02900    139362144.00000000 87085560.00000000 220330112.00000000 86222.63281250  6920830.50000000 5469925.00000000 
0.03000    137899520.00000000 86181280.00000000 218030144.00000000 85017.15625000  6835304.00000000 5402614.00000000 
0.03100    136404752.00000000 85257896.00000000 215679504.00000000 83789.96875000  6748118.50000000 5333964.00000000 
0.03200    134880832.00000000 84315736.00000000 213282304.00000000 82542.50000000  6659363.00000000 5264074.00000000 
0.03300    133328024.00000000 83356088.00000000 210842304.00000000 81277.40625000  6569148.00000000 5193040.50000000 
0.03400    131749112.00000000 82380104.00000000 208359616.00000000 79995.14062500  6477633.00000000 5120943.50000000 
0.03500    130145336.00000000 81388864.00000000 205836720.00000000 78698.49218750  6384866.50000000 5047919.50000000 
0.03600    128518408.00000000 80382496.00000000 203277120.00000000 77388.43750000  6290922.00000000 4973952.00000000 
0.03700    126869864.00000000 79363016.00000000 200685120.00000000 76066.49218750  6196014.50000000 4899188.50000000 
0.03800    125201656.00000000 78329944.00000000 198059024.00000000 74734.58593750  6100184.50000000 4823736.50000000 
0.03900    123514608.00000000 77286472.00000000 195406608.00000000 73394.28125000  6003510.50000000 4747589.00000000 
0.04000    121812088.00000000 76232536.00000000 192726192.00000000 72047.21875000  5906175.00000000 4670904.50000000 
0.04100    120094264.00000000 75169256.00000000 190022912.00000000 70694.62500000  5808216.50000000 4593758.00000000 
0.04200    118362576.00000000 74097624.00000000 187299344.00000000 69338.54687500  5709782.50000000 4516215.50000000 
0.04300    116619656.00000000 73018936.00000000 184555904.00000000 67979.96875000  5610962.50000000 4438330.00000000 
0.04400    114866832.00000000 71933176.00000000 181796400.00000000 66620.51562500  5511817.50000000 4360260.00000000 
0.04500    113105392.00000000 70842008.00000000 179023680.00000000 65261.87109375  5412499.50000000 4282002.50000000 
0.04600    111337120.00000000 69745872.00000000 176240208.00000000 63905.01562500  5313105.50000000 4203640.00000000 
0.04700    109564208.00000000 68647032.00000000 173447760.00000000 62551.60546875  5213710.50000000 4125296.75000000 
0.04800    107786800.00000000 67544864.00000000 170649392.00000000 61203.53515625  5114380.50000000 4047015.25000000 
0.04900    106007760.00000000 66441844.00000000 167847440.00000000 59861.66796875  5015258.50000000 3968895.75000000 
0.05000    104227608.00000000 65337948.00000000 165042864.00000000 58526.59765625  4916432.50000000 3890972.75000000 
0.05100    102448368.00000000 64234232.00000000 162240528.00000000 57200.50000000  4817944.50000000 3813347.75000000 
0.05200    100671816.00000000 63131452.00000000 159441408.00000000 55884.05859375  4719922.00000000 3736043.00000000 
0.05300    98898384.00000000 62030808.00000000 156647744.00000000 54578.91796875  4622402.00000000 3659150.25000000 
0.05400    97130368.00000000 60933208.00000000 153860512.00000000 53285.53906250  4525503.00000000 3582757.50000000 
0.05500    95368584.00000000 59838960.00000000 151082960.00000000 52005.37500000  4429293.00000000 3506869.00000000 
0.05600    93614320.00000000 58749484.00000000 148317152.00000000 50738.74218750  4333841.00000000 3431566.25000000 
0.05700    91868760.00000000 57664952.00000000 145566352.00000000 49487.63281250  4239183.50000000 3356933.75000000 
0.05800    90134184.00000000 56586336.00000000 142829520.00000000 48251.98828125  4145472.25000000 3282984.25000000 
0.05900    88410088.00000000 55514732.00000000 140111360.00000000 47032.94531250  4052689.00000000 3209797.25000000 
0.06000    86698200.00000000 54450460.00000000 137413424.00000000 45831.35937500  3960935.50000000 3137389.00000000 
0.06100    85000408.00000000 53394532.00000000 134734336.00000000 44648.31640625  3870256.00000000 3065813.25000000 
0.06200    83316152.00000000 52347424.00000000 132079320.00000000 43483.59375000  3780692.75000000 2995143.00000000 
0.06300    81648608.00000000 51309776.00000000 129448528.00000000 42338.57421875  3692321.50000000 2925384.75000000 
0.06400    79997616.00000000 50281672.00000000 126842624.00000000 41213.31250000  3605158.25000000 2856560.50000000 
0.06500    78364008.00000000 49264484.00000000 124264040.00000000 40108.30468750  3519283.75000000 2788774.75000000 
0.06600    76748792.00000000 48258816.00000000 121714024.00000000 39024.61718750  3434723.50000000 2721984.25000000 
0.06700    75152264.00000000 47264064.00000000 119194504.00000000 37962.13281250  3351477.25000000 2656256.25000000 
0.06800    73576088.00000000 46282112.00000000 116706544.00000000 36921.20312500  3269643.75000000 2591632.50000000 
0.06900    72021120.00000000 45312692.00000000 114250272.00000000 35902.28125000  3189213.75000000 2528094.00000000 
0.07000    70486424.00000000 44356152.00000000 111827728.00000000 34905.48828125  3110222.50000000 2465692.50000000 
0.07100    68974584.00000000 43412992.00000000 109438952.00000000 33930.91406250  3032674.50000000 2404440.00000000 
0.07200    67485048.00000000 42483896.00000000 107086352.00000000 32978.95703125  2956655.75000000 2344349.25000000 
0.07300    66018432.00000000 41569128.00000000 104769656.00000000 32049.73046875  2882113.00000000 2285433.50000000 
0.07400    64576100.00000000 40668528.00000000 102489976.00000000 31142.93554688  2809093.00000000 2227717.25000000 
0.07500    63156912.00000000 39783040.00000000 100248312.00000000 30259.13281250  2737585.50000000 2171205.50000000 
0.07600    61763032.00000000 38912636.00000000 98044624.00000000 29397.88281250  2667632.50000000 2115888.50000000 
0.07700    60393876.00000000 38057520.00000000 95880560.00000000 28559.31445312  2599234.75000000 2061796.50000000 
0.07800    59049552.00000000 37217824.00000000 93755304.00000000 27743.13085938  2532371.50000000 2008926.37500000 
0.07900    57730668.00000000 36393852.00000000 91671008.00000000 26949.17382812  2467036.25000000 1957257.62500000 
0.08000    56437752.00000000 35585640.00000000 89626512.00000000 26177.40039062  2403291.75000000 1906813.62500000 
0.08100    55170564.00000000 34793516.00000000 87622160.00000000 25427.75000000  2341061.00000000 1857593.37500000 
0.08200    53929636.00000000 34017252.00000000 85659512.00000000 24699.53320312  2280359.75000000 1809560.50000000 
0.08300    52714564.00000000 33257300.00000000 83737544.00000000 23992.83007812  2221210.25000000 1762733.12500000 
0.08400    51525720.00000000 32513658.00000000 81856712.00000000 23307.17382812  2163542.25000000 1717111.00000000 
0.08500    50363140.00000000 31786194.00000000 80017760.00000000 22642.43164062  2107405.50000000 1672658.25000000 
0.08600    49226432.00000000 31075204.00000000 78219744.00000000 21998.14648438  2052741.87500000 1629379.87500000 
0.08700    48116568.00000000 30380240.00000000 76463016.00000000 21373.76171875  1999563.00000000 1587269.25000000 
0.08800    47032296.00000000 29701476.00000000 74746808.00000000 20769.14843750  1947829.87500000 1546295.12500000 
0.08900    45974052.00000000 29039166.00000000 73072368.00000000 20183.73828125  1897527.00000000 1506445.62500000 
0.09000    44941408.00000000 28392666.00000000 71439072.00000000 19617.28906250  1848629.12500000 1467708.62500000 
0.09100    43935044.00000000 27762096.00000000 69845296.00000000 19069.04882812  1801124.87500000 1430071.37500000 
0.09200    42953700.00000000 27147666.00000000 68291832.00000000 18538.75390625  1754979.87500000 1393496.12500000 
0.09300    41997892.00000000 26549038.00000000 66778332.00000000 18025.88867188  1710179.25000000 1357992.50000000 
0.09400    41066956.00000000 25965782.00000000 65304836.00000000 17530.04882812  1666677.62500000 1323490.50000000 
0.09500    40160804.00000000 25397888.00000000 63869896.00000000 17050.69531250  1624468.25000000 1290032.50000000 
0.09600    39278728.00000000 24845352.00000000 62473620.00000000 16587.31445312  1583497.12500000 1257545.62500000 
0.09700    38421036.00000000 24307980.00000000 61115840.00000000 16139.57910156  1543768.75000000 1226022.00000000 
0.09800    37587224.00000000 23785402.00000000 59795568.00000000 15706.62304688  1505221.25000000 1195454.00000000 
0.09900    36776636.00000000 23277448.00000000 58511448.00000000 15288.51269531  1467844.12500000 1165807.37500000 
0.10000    35988584.00000000 22784012.00000000 57265092.00000000 14884.33496094  1431613.75000000 1137052.50000000 
0.10100    35224000.00000000 22304682.00000000 56053432.00000000 14493.60546875  1396453.37500000 1109162.75000000 
0.10200    34480756.00000000 21839364.00000000 54877192.00000000 14116.14648438  1362396.37500000 1082118.12500000 
0.10300    33759604.00000000 21387442.00000000 53735500.00000000 13750.99511719  1329355.87500000 1055898.75000000 
0.10400    33059378.00000000 20949196.00000000 52627604.00000000 13398.15527344  1297338.12500000 1030475.81250000 
0.10500    32380706.00000000 20524104.00000000 51553272.00000000 13056.86132812  1266304.50000000 1005828.93750000 
0.10600    31722270.00000000 20111684.00000000 50510636.00000000 12726.81640625  1236197.75000000 981926.06250000 
0.10700    31083734.00000000 19711902.00000000 49499868.00000000 12407.45312500  1207020.50000000 958749.68750000 
0.10800    30464646.00000000 19324472.00000000 48520092.00000000 12098.42675781  1178710.87500000 936272.62500000 
0.10900    29864460.00000000 18948948.00000000 47570368.00000000 11799.29492188  1151260.62500000 914467.25000000 
0.11000    29282890.00000000 18584990.00000000 46649928.00000000 11509.58984375  1124642.87500000 893313.56250000 
0.11100    28719144.00000000 18232594.00000000 45758520.00000000 11228.85058594  1098810.75000000 872790.75000000 
0.11200    28173016.00000000 17890970.00000000 44894516.00000000 10956.79394531  1073742.25000000 852866.56250000 
0.11300    27643940.00000000 17560250.00000000 44057716.00000000 10693.04296875  1049410.62500000 833524.25000000 
0.11400    27131276.00000000 17240010.00000000 43247156.00000000 10437.22753906  1025793.37500000 814757.56250000 
0.11500    26634872.00000000 16929964.00000000 42462164.00000000 10188.92285156  1002850.18750000 796518.75000000 
0.11600    26153952.00000000 16629698.00000000 41702012.00000000 9947.87597656   980558.87500000 778791.12500000 
0.11700    25687918.00000000 16338938.00000000 40965652.00000000 9713.60742188   958906.68750000 761571.81250000 
0.11800    25236508.00000000 16057339.00000000 40252248.00000000 9485.99902344   937842.87500000 744827.37500000 
0.11900    24799168.00000000 15784788.00000000 39561512.00000000 9264.64160156   917358.06250000 728538.68750000 
0.12000    24375414.00000000 15520707.00000000 38892240.00000000 9049.29785156   897427.68750000 712687.81250000 
0.12100    23965114.00000000 15265045.00000000 38244072.00000000 8839.75585938   878038.37500000 697262.93750000 
0.12200    23566990.00000000 15017386.00000000 37615968.00000000 8635.65722656   859154.37500000 682245.62500000 
0.12300    23181232.00000000 14777435.00000000 37007392.00000000 8436.82714844   840757.87500000 667607.68750000 
0.12400    22807298.00000000 14544874.00000000 36417488.00000000 8243.03417969   822826.56250000 653347.37500000 
0.12500    22444546.00000000 14319464.00000000 35845108.00000000 8054.01708984   805342.50000000 639436.62500000 
0.12600    22092754.00000000 14100964.00000000 35290424.00000000 7869.68945312   788298.93750000 625880.18750000 
0.12700    21751366.00000000 13889125.00000000 34752324.00000000 7689.78710938   771666.43750000 612643.37500000 
0.12800    21419974.00000000 13683529.00000000 34230224.00000000 7514.14550781   755428.25000000 599719.50000000 
0.12900    21098168.00000000 13484053.00000000 33723436.00000000 7342.61474609   739566.87500000 587101.68750000 
0.13000    20785518.00000000 13290424.00000000 33231136.00000000 7175.07568359   724079.12500000 574771.18750000 
0.13100    20481814.00000000 13102276.00000000 32752668.00000000 7011.33789062   708930.75000000 562720.37500000 
0.13200    20186488.00000000 12919405.00000000 32287662.00000000 6851.35009766   694125.93750000 550934.93750000 
0.13300    19899198.00000000 12741725.00000000 31835532.00000000 6694.91113281   679646.56250000 539414.56250000 
0.13400    19619642.00000000 12568864.00000000 31395648.00000000 6541.96582031   665480.06250000 528137.12500000 
0.13500    19347260.00000000 12400578.00000000 30967240.00000000 6392.43554688   651616.56250000 517098.50000000 
0.13600    19082202.00000000 12236662.00000000 30550236.00000000 6246.19335938   638037.25000000 506290.71875000 
0.13700    18823494.00000000 12077062.00000000 30143628.00000000 6103.17919922   624747.68750000 495707.21875000 
0.13800    18571386.00000000 11921363.00000000 29747130.00000000 5963.28320312   611719.37500000 485337.15625000 
0.13900    18325206.00000000 11769397.00000000 29360016.00000000 5826.52929688   598964.18750000 475181.62500000 
0.14000    18084894.00000000 11621051.00000000 28982300.00000000 5692.73486328   586457.62500000 465224.37500000 
0.14100    17849976.00000000 11476287.00000000 28613200.00000000 5561.96630859   574204.87500000 455465.37500000 
0.14200    17620300.00000000 11334566.00000000 28252268.00000000 5434.05175781   562189.06250000 445896.03125000 
0.14300    17395504.00000000 11195959.00000000 27899080.00000000 5309.02148438   550407.12500000 436515.78125000 
0.14400    17175520.00000000 11060223.00000000 27553216.00000000 5186.80664062   538855.18750000 427312.62500000 
0.14500    16959996.00000000 10927254.00000000 27214434.00000000 5067.42089844   527525.06250000 418286.50000000 
0.14600    16748611.00000000 10796890.00000000 26882372.00000000 4950.81201172   516414.21875000 409436.34375000 
0.14700    16541369.00000000 10668919.00000000 26556370.00000000 4836.86230469   505518.06250000 400757.53125000 
0.14800    16337708.00000000 10543191.00000000 26236276.00000000 4725.58984375   494830.03125000 392239.03125000 
0.14900    16137681.00000000 10419780.00000000 25921780.00000000 4617.00878906   484346.75000000 383886.75000000 
0.15000    15941158.00000000 10298327.00000000 25612538.00000000 4511.03417969   474063.34375000 375695.84375000 
0.15100    15747790.00000000 10178760.00000000 25308314.00000000 4407.63378906   463977.21875000 367655.59375000 
0.15200    15557567.00000000 10061126.00000000 25008942.00000000 4306.86914062   454089.15625000 359772.12500000 
0.15300    15370034.00000000 9945065.00000000 24714002.00000000 4208.60253906   444390.00000000 352044.34375000 
0.15400    15185318.00000000 9830618.00000000 24422960.00000000 4112.83154297   434881.09375000 344463.12500000 
0.15500    15003114.00000000 9717680.00000000 24135962.00000000 4019.59277344   425554.15625000 337028.84375000 
0.15600    14823316.00000000 9606135.00000000 23852664.00000000 3928.73364258   416413.09375000 329735.87500000 
0.15700    14646018.00000000 9495959.00000000 23573032.00000000 3840.33422852   407453.50000000 322593.78125000 
0.15800    14470696.00000000 9387009.00000000 23296500.00000000 3754.28906250   398668.75000000 315586.09375000 
0.15900    14297462.00000000 9279178.00000000 23023094.00000000 3670.58447266   390062.65625000 308723.18750000 
0.16000    14126071.00000000 9172432.00000000 22752456.00000000 3589.21484375   381628.25000000 301994.96875000 
0.16100    13956754.00000000 9066732.00000000 22484736.00000000 3510.12500000   373365.40625000 295403.96875000 
0.16200    13788987.00000000 8961989.00000000 22219572.00000000 3433.28515625   365272.12500000 288948.59375000 
0.16300    13622939.00000000 8858187.00000000 21956940.00000000 3358.58740234   357343.25000000 282624.00000000 
0.16400    13458506.00000000 8755144.00000000 21696542.00000000 3286.07397461   349582.28125000 276429.37500000 
0.16500    13295406.00000000 8652890.00000000 21438228.00000000 3215.65820312   341984.18750000 270364.25000000 
0.16600    13133887.00000000 8551464.00000000 21182268.00000000 3147.29760742   334543.56250000 264427.03125000 
0.16700    12973568.00000000 8450675.00000000 20928034.00000000 3080.91967773   327259.46875000 258612.81250000 
0.16800    12814499.00000000 8350541.00000000 20675436.00000000 3016.52221680   320128.65625000 252921.25000000 
0.16900    12656772.00000000 8251045.50000000 20425034.00000000 2954.05371094   313153.81250000 247355.25000000 
0.17000    12500080.00000000 8152177.50000000 20176024.00000000 2893.42016602   306327.06250000 241904.32812500 
