# SAXS profile: number of points = 501, q_min = 0, q_max = 0.5, delta_q = 0.001
#    q    intensity 
0.00000    162235312.00000000 101202104.00000000 256270080.00000000 100936.93750000 8093449.50000000 6392195.50000000 
0.00100    162206848.00000000 101183248.00000000 256221984.00000000 100910.87500000 8091620.50000000 6390736.00000000 
0.00200    162118000.00000000 101127496.00000000 256079920.00000000 100831.46875000 8086170.00000000 6386447.00000000 
0.00300    161968384.00000000 101033768.00000000 255839520.00000000 100699.27343750 8077023.00000000 6379305.00000000 
0.00400    161755216.00000000 100902560.00000000 255505424.00000000 100515.60156250 8064270.00000000 6369286.00000000 
0.00500    161479696.00000000 100734728.00000000 255077936.00000000 100279.49218750 8047908.00000000 6356469.50000000 
0.00600    161144256.00000000 100528064.00000000 254552848.00000000 99991.32031250  8027974.00000000 6340829.50000000 
0.00700    160749616.00000000 100286776.00000000 253936656.00000000 99653.39062500  8004490.00000000 6322385.50000000 
0.00800    160292576.00000000 100009024.00000000 253227408.00000000 99263.78125000  7977457.50000000 6301260.00000000 
0.00900    159780272.00000000 99695720.00000000 252426224.00000000 98824.74218750  7946988.00000000 6277326.50000000 
0.01000    159211168.00000000 99347872.00000000 251533216.00000000 98336.85156250  7913129.50000000 6250752.00000000 
0.01100    158586240.00000000 98963232.00000000 250552608.00000000 97800.69531250  7875849.00000000 6221540.00000000 
0.01200    157904704.00000000 98544928.00000000 249483824.00000000 97217.52343750  7835323.00000000 6189712.50000000 
0.01300    157165552.00000000 98091992.00000000 248326656.00000000 96588.00000000  7791493.50000000 6155315.00000000 
0.01400    156371424.00000000 97605504.00000000 247085936.00000000 95914.21093750  7744475.00000000 6118478.50000000 
0.01500    155526480.00000000 97086536.00000000 245762416.00000000 95196.37500000  7694416.50000000 6079182.50000000 
0.01600    154629328.00000000 96536536.00000000 244356992.00000000 94435.71875000  7641307.50000000 6037499.00000000 
0.01700    153681312.00000000 95954848.00000000 242870640.00000000 93633.65625000  7585228.50000000 5993504.50000000 
0.01800    152683296.00000000 95342848.00000000 241306880.00000000 92792.17187500  7526296.50000000 5947284.50000000 
0.01900    151637136.00000000 94700968.00000000 239667424.00000000 91912.71875000  7464656.50000000 5898860.50000000 
0.02000    150544416.00000000 94029904.00000000 237955616.00000000 90995.62500000  7400244.00000000 5848354.00000000 
0.02100    149406864.00000000 93331360.00000000 236171136.00000000 90043.32031250  7333343.00000000 5795812.00000000 
0.02200    148223984.00000000 92606136.00000000 234318048.00000000 89057.69531250  7263914.50000000 5741297.00000000 
0.02300    146999600.00000000 91853832.00000000 232399552.00000000 88039.57031250  7192118.50000000 5684945.50000000 
0.02400    145733280.00000000 91075944.00000000 230415680.00000000 86991.24218750  7118083.50000000 5626799.00000000 
0.02500    144428688.00000000 90274816.00000000 228369888.00000000 85913.39843750  7041810.00000000 5566940.50000000 
0.02600    143085952.00000000 89449784.00000000 226264400.00000000 84809.03906250  6963509.00000000 5505455.00000000 
0.02700    141707872.00000000 88602456.00000000 224103984.00000000 83679.67187500  6883282.00000000 5442466.50000000 
0.02800    140295440.00000000 87734240.00000000 221887920.00000000 82526.77343750  6801199.50000000 5377984.00000000 
0.02900    138849472.00000000 86845512.00000000 219622208.00000000 81351.32812500  6717384.50000000 5312150.00000000 
0.03000    137374016.00000000 85937208.00000000 217306528.00000000 80156.90625000  6632012.50000000 5245054.00000000 
0.03100    135868656.00000000 85011560.00000000 214946528.00000000 78943.78125000  6545136.00000000 5176803.00000000 
0.03200    134336624.00000000 84068776.00000000 212542608.00000000 77714.35156250  6456875.50000000 5107430.00000000 
0.03300    132779440.00000000 83109800.00000000 210098064.00000000 76470.10156250  6367358.00000000 5037055.00000000 
0.03400    131199080.00000000 82136192.00000000 207616000.00000000 75213.16406250  6276687.00000000 4965791.00000000 
0.03500    129595520.00000000 81148760.00000000 205099856.00000000 73945.67968750  6184973.00000000 4893679.50000000 
0.03600    127972856.00000000 80149280.00000000 202551456.00000000 72668.24218750  6092370.50000000 4820868.00000000 
0.03700    126331760.00000000 79138168.00000000 199975952.00000000 71383.72656250  5998983.00000000 4747461.00000000 
0.03800    124673224.00000000 78116016.00000000 197371472.00000000 70092.60937500  5904908.50000000 4673427.50000000 
0.03900    123001320.00000000 77084976.00000000 194745872.00000000 68797.58593750  5810229.00000000 4598979.50000000 
0.04000    121315416.00000000 76045696.00000000 192097936.00000000 67500.27343750  5715069.00000000 4524158.50000000 
0.04100    119619120.00000000 74998440.00000000 189431440.00000000 66201.57031250  5619600.00000000 4448976.50000000 
0.04200    117913032.00000000 73945160.00000000 186750016.00000000 64903.21093750  5523842.00000000 4373622.00000000 
0.04300    116199136.00000000 72885880.00000000 184056656.00000000 63606.92578125  5427964.50000000 4298125.50000000 
0.04400    114478928.00000000 71823384.00000000 181351312.00000000 62314.15625000  5331998.50000000 4222612.50000000 
0.04500    112754544.00000000 70757792.00000000 178640528.00000000 61026.14062500  5236106.50000000 4147053.75000000 
0.04600    111026840.00000000 69689808.00000000 175923904.00000000 59744.25781250  5140354.00000000 4071666.25000000 
0.04700    109298224.00000000 68620488.00000000 173204240.00000000 58470.27734375  5044858.00000000 3996439.50000000 
0.04800    107569824.00000000 67550920.00000000 170484208.00000000 57204.83984375  4949691.50000000 3921435.00000000 
0.04900    105842952.00000000 66482040.00000000 167767392.00000000 55949.53515625  4854941.00000000 3846791.00000000 
0.05000    104120024.00000000 65415064.00000000 165054512.00000000 54704.80859375  4760688.50000000 3772500.50000000 
0.05100    102401440.00000000 64349828.00000000 162349056.00000000 53473.05468750  4667025.00000000 3698661.50000000 
0.05200    100687544.00000000 63288088.00000000 159651904.00000000 52254.00781250  4574003.50000000 3625308.50000000 
0.05300    98981768.00000000 62230884.00000000 156964800.00000000 51049.53515625  4481764.50000000 3552543.50000000 
0.05400    97284984.00000000 61178028.00000000 154292496.00000000 49859.68359375  4390282.50000000 3480393.25000000 
0.05500    95597176.00000000 60131136.00000000 151633632.00000000 48685.69531250  4299665.00000000 3408924.50000000 
0.05600    93921320.00000000 59090328.00000000 148992064.00000000 47528.61718750  4210013.50000000 3338164.25000000 
0.05700    92256816.00000000 58057076.00000000 146369280.00000000 46389.05859375  4121341.75000000 3268174.00000000 
0.05800    90605192.00000000 57030904.00000000 143765616.00000000 45266.92578125  4033718.75000000 3199010.25000000 
0.05900    88968352.00000000 56013452.00000000 141185504.00000000 44163.47656250  3947175.50000000 3130679.25000000 
0.06000    87346232.00000000 55004892.00000000 138626400.00000000 43079.55859375  3861808.75000000 3063261.75000000 
0.06100    85740440.00000000 54006068.00000000 136092944.00000000 42014.76562500  3777607.50000000 2996751.75000000 
0.06200    84152040.00000000 53017204.00000000 133586632.00000000 40969.85937500  3694658.25000000 2931221.75000000 
0.06300    82581096.00000000 52039128.00000000 131107624.00000000 39945.73437500  3612968.75000000 2866656.50000000 
0.06400    81028424.00000000 51071976.00000000 128655968.00000000 38941.61718750  3532543.00000000 2803103.75000000 
0.06500    79494744.00000000 50116704.00000000 126235824.00000000 37958.33984375  3453495.00000000 2740593.50000000 
0.06600    77981696.00000000 49173200.00000000 123845120.00000000 36996.32421875  3375787.50000000 2679142.75000000 
0.06700    76488616.00000000 48241980.00000000 121487368.00000000 36055.07031250  3299414.25000000 2618767.00000000 
0.06800    75016280.00000000 47323388.00000000 119161600.00000000 35134.74609375  3224465.75000000 2559484.00000000 
0.06900    73564960.00000000 46418108.00000000 116869128.00000000 34235.96093750  3150930.75000000 2501290.50000000 
0.07000    72136528.00000000 45525680.00000000 114610560.00000000 33358.82031250  3078832.50000000 2444223.75000000 
0.07100    70730624.00000000 44647044.00000000 112387552.00000000 32502.38867188  3008126.00000000 2388269.25000000 
0.07200    69346376.00000000 43782080.00000000 110199344.00000000 31666.72656250  2938878.00000000 2333440.25000000 
0.07300    67984928.00000000 42931580.00000000 108047408.00000000 30852.15625000  2871044.50000000 2279737.25000000 
0.07400    66647692.00000000 42094560.00000000 105931584.00000000 30057.83593750  2804675.25000000 2227189.75000000 
0.07500    65333392.00000000 41272196.00000000 103851992.00000000 29284.35742188  2739735.25000000 2175725.25000000 
0.07600    64042328.00000000 40463840.00000000 101808440.00000000 28530.74804688  2676217.25000000 2125409.00000000 
0.07700    62775092.00000000 39670732.00000000 99803144.00000000 27797.16015625  2614114.75000000 2076208.25000000 
0.07800    61531772.00000000 38891684.00000000 97834696.00000000 27083.20898438  2553443.50000000 2028110.37500000 
0.07900    60311908.00000000 38127136.00000000 95903488.00000000 26388.58984375  2494169.50000000 1981123.37500000 
0.08000    59115696.00000000 37377632.00000000 94009824.00000000 25713.01757812  2436244.25000000 1935224.62500000 
0.08100    57943428.00000000 36642608.00000000 92153352.00000000 25055.66601562  2379735.75000000 1890419.50000000 
0.08200    56794952.00000000 35921852.00000000 90333720.00000000 24416.73242188  2324555.00000000 1846660.37500000 
0.08300    55669364.00000000 35216080.00000000 88550272.00000000 23795.30859375  2270730.75000000 1803972.62500000 
0.08400    54567392.00000000 34524540.00000000 86804600.00000000 23191.21093750  2218195.75000000 1762312.00000000 
0.08500    53488792.00000000 33847352.00000000 85095352.00000000 22604.12695312  2166970.00000000 1721673.75000000 
0.08600    52432664.00000000 33184852.00000000 83422152.00000000 22033.46093750  2117007.75000000 1682031.87500000 
0.08700    51400084.00000000 32536248.00000000 81784776.00000000 21478.86132812  2068291.50000000 1643362.87500000 
0.08800    50389592.00000000 31901322.00000000 80182560.00000000 20939.58984375  2020779.12500000 1605668.75000000 
0.08900    49400912.00000000 31280542.00000000 78615888.00000000 20415.64648438  1974464.00000000 1568921.87500000 
0.09000    48434620.00000000 30673448.00000000 77083536.00000000 19906.17187500  1929322.00000000 1533086.00000000 
0.09100    47489928.00000000 30079562.00000000 75585920.00000000 19411.08398438  1885303.00000000 1498152.75000000 
0.09200    46566244.00000000 29499104.00000000 74121024.00000000 18929.49609375  1842395.50000000 1464098.87500000 
0.09300    45663656.00000000 28931924.00000000 72690168.00000000 18461.29296875  1800580.62500000 1430901.75000000 
0.09400    44781836.00000000 28377434.00000000 71291032.00000000 18005.86718750  1759808.87500000 1398536.50000000 
0.09500    43920060.00000000 27835598.00000000 69924624.00000000 17562.83789062  1720056.50000000 1366973.00000000 
0.09600    43077672.00000000 27306180.00000000 68588896.00000000 17131.62890625  1681293.87500000 1336203.75000000 
0.09700    42254876.00000000 26789056.00000000 67284216.00000000 16712.35742188  1643516.37500000 1306208.25000000 
0.09800    41451280.00000000 26283880.00000000 66010340.00000000 16303.92187500  1606669.12500000 1276956.75000000 
0.09900    40666308.00000000 25790464.00000000 64765384.00000000 15906.33886719  1570724.12500000 1248427.50000000 
0.10000    39899216.00000000 25308380.00000000 63549272.00000000 15518.87792969  1535664.25000000 1220586.37500000 
0.10100    39150276.00000000 24837248.00000000 62361320.00000000 15141.56933594  1501451.50000000 1193437.00000000 
0.10200    38418456.00000000 24377396.00000000 61200676.00000000 14773.78125000  1468075.87500000 1166934.12500000 
0.10300    37703468.00000000 23928196.00000000 60067224.00000000 14415.35449219  1435494.00000000 1141066.25000000 
0.10400    37004976.00000000 23489414.00000000 58959832.00000000 14065.66503906  1403684.37500000 1115810.25000000 
0.10500    36322788.00000000 23060698.00000000 57878048.00000000 13724.63085938  1372631.50000000 1091154.25000000 
0.10600    35655996.00000000 22641912.00000000 56821360.00000000 13391.82421875  1342286.50000000 1067079.37500000 
0.10700    35004524.00000000 22232686.00000000 55788292.00000000 13067.00585938  1312643.50000000 1043543.75000000 
0.10800    34367872.00000000 21832884.00000000 54779352.00000000 12749.82714844  1283678.75000000 1020549.68750000 
0.10900    33745128.00000000 21442146.00000000 53792936.00000000 12440.04882812  1255373.87500000 998072.75000000 
0.11000    33137110.00000000 21060410.00000000 52829020.00000000 12137.59277344  1227683.62500000 976097.37500000 
0.11100    32542506.00000000 20687228.00000000 51886296.00000000 11841.90527344  1200611.37500000 954605.43750000 
0.11200    31960870.00000000 20322330.00000000 50965456.00000000 11552.96191406  1174126.37500000 933583.68750000 
0.11300    31392148.00000000 19965580.00000000 50064348.00000000 11270.42285156  1148204.25000000 913011.50000000 
0.11400    30836002.00000000 19616844.00000000 49183156.00000000 10994.25585938  1122833.75000000 892874.56250000 
0.11500    30291784.00000000 19275702.00000000 48321348.00000000 10724.21972656  1098001.37500000 873158.56250000 
0.11600    29759024.00000000 18941900.00000000 47477760.00000000 10459.92773438  1073684.25000000 853851.37500000 
0.11700    29238016.00000000 18615306.00000000 46652600.00000000 10201.52050781  1049862.62500000 834949.06250000 
0.11800    28727508.00000000 18295514.00000000 45844820.00000000 9948.68554688   1026523.00000000 816417.68750000 
0.11900    28228032.00000000 17982770.00000000 45054128.00000000 9701.29589844   1003644.62500000 798261.12500000 
0.12000    27738760.00000000 17676440.00000000 44279488.00000000 9459.12695312   981226.68750000 780457.37500000 
0.12100    27259454.00000000 17376450.00000000 43520800.00000000 9222.33789062   959259.62500000 763014.68750000 
0.12200    26790012.00000000 17082606.00000000 42778148.00000000 8990.51757812   937708.81250000 745906.56250000 
0.12300    26330016.00000000 16794732.00000000 42049928.00000000 8763.60449219   916576.12500000 729132.00000000 
0.12400    25879030.00000000 16512591.00000000 41336552.00000000 8541.67089844   895851.50000000 712674.37500000 
0.12500    25436894.00000000 16235929.00000000 40637044.00000000 8324.48925781   875527.50000000 696527.81250000 
0.12600    25003390.00000000 15964923.00000000 39951272.00000000 8112.08593750   855584.43750000 680687.75000000 
0.12700    24578290.00000000 15698990.00000000 39278828.00000000 7904.20800781   836025.31250000 665149.81250000 
0.12800    24161224.00000000 15438263.00000000 38618952.00000000 7700.91113281   816828.31250000 649897.81250000 
0.12900    23752088.00000000 15182395.00000000 37972012.00000000 7502.10449219   797999.87500000 634932.62500000 
0.13000    23350502.00000000 14931310.00000000 37336500.00000000 7307.62646484   779518.18750000 620240.25000000 
0.13100    22956430.00000000 14684845.00000000 36713052.00000000 7117.60742188   761382.56250000 605828.00000000 
0.13200    22569512.00000000 14442956.00000000 36101212.00000000 6931.83496094   743591.87500000 591675.37500000 
0.13300    22189730.00000000 14205409.00000000 35500084.00000000 6750.31787109   726131.12500000 577794.81250000 
0.13400    21816622.00000000 13972088.00000000 34910016.00000000 6573.00439453   709003.06250000 564163.06250000 
0.13500    21450326.00000000 13742979.00000000 34330212.00000000 6399.82226562   692195.50000000 550793.37500000 
0.13600    21090272.00000000 13517741.00000000 33761060.00000000 6230.63134766   675708.25000000 537669.81250000 
0.13700    20736760.00000000 13296535.00000000 33201080.00000000 6065.57861328   659534.25000000 524794.75000000 
0.13800    20389200.00000000 13079006.00000000 32651258.00000000 5904.50244141   643669.62500000 512160.71875000 
0.13900    20047664.00000000 12865305.00000000 32110670.00000000 5747.35058594   628107.25000000 499767.37500000 
0.14000    19712070.00000000 12655066.00000000 31579314.00000000 5594.12792969   612851.81250000 487611.65625000 
0.14100    19382244.00000000 12448500.00000000 31057062.00000000 5444.73291016   597892.87500000 475687.06250000 
0.14200    19057974.00000000 12245295.00000000 30543420.00000000 5299.12744141   583228.18750000 463995.75000000 
0.14300    18738936.00000000 12045402.00000000 30038408.00000000 5157.30908203   568852.43750000 452534.53125000 
0.14400    18425498.00000000 11848682.00000000 29541450.00000000 5019.09912109   554764.18750000 441293.21875000 
0.14500    18117090.00000000 11655273.00000000 29052872.00000000 4884.55078125   540962.81250000 430279.28125000 
0.14600    17813996.00000000 11464940.00000000 28572384.00000000 4753.67773438   527442.37500000 419484.03125000 
0.14700    17515902.00000000 11277692.00000000 28099532.00000000 4626.30371094   514200.37500000 408912.50000000 
0.14800    17222598.00000000 11093409.00000000 27634486.00000000 4502.42724609   501232.81250000 398554.25000000 
0.14900    16934072.00000000 10911931.00000000 27176794.00000000 4382.00683594   488536.96875000 388409.56250000 
0.15000    16650381.00000000 10733335.00000000 26726550.00000000 4264.91015625   476112.31250000 378474.87500000 
0.15100    16371201.00000000 10557587.00000000 26283200.00000000 4151.19970703   463952.40625000 368751.56250000 
0.15200    16096768.00000000 10384637.00000000 25847370.00000000 4040.72216797   452058.37500000 359236.18750000 
0.15300    15826573.00000000 10214372.00000000 25418218.00000000 3933.44726562   440421.34375000 349925.62500000 
0.15400    15560811.00000000 10046594.00000000 24995744.00000000 3829.30541992   429040.12500000 340814.09375000 
0.15500    15299471.00000000 9881609.00000000 24580270.00000000 3728.26831055   417913.71875000 331907.71875000 
0.15600    15042159.00000000 9719003.00000000 24170998.00000000 3630.21923828   407037.96875000 323196.25000000 
0.15700    14789182.00000000 9558965.00000000 23768514.00000000 3535.16772461   396409.75000000 314681.68750000 
0.15800    14540101.00000000 9401323.00000000 23372066.00000000 3442.94921875   386025.06250000 306356.56250000 
0.15900    14295128.00000000 9246132.00000000 22981990.00000000 3353.61108398   375880.78125000 298225.75000000 
0.16000    14054020.00000000 9093327.00000000 22597982.00000000 3266.99145508   365972.59375000 290281.09375000 
0.16100    13816903.00000000 8942844.00000000 22220066.00000000 3183.09448242   356300.00000000 282522.00000000 
0.16200    13583666.00000000 8794633.00000000 21847966.00000000 3101.81909180   346856.81250000 274945.15625000 
0.16300    13353966.00000000 8648748.00000000 21481832.00000000 3023.11254883   337636.21875000 267545.25000000 
0.16400    13128077.00000000 8505063.00000000 21121322.00000000 2946.89428711   328642.71875000 260325.60937500 
0.16500    12905835.00000000 8363544.50000000 20766602.00000000 2873.11938477   319867.03125000 253278.00000000 
0.16600    12687123.00000000 8224191.00000000 20417256.00000000 2801.71972656   311305.84375000 246402.28125000 
0.16700    12471924.00000000 8086930.00000000 20073442.00000000 2732.59716797   302952.90625000 239694.45312500 
0.16800    12260108.00000000 7951749.50000000 19734894.00000000 2665.70483398   294807.59375000 233148.51562500 
0.16900    12051753.00000000 7818709.50000000 19401744.00000000 2601.04516602   286865.81250000 226769.25000000 
0.17000    11846749.00000000 7687589.50000000 19074062.00000000 2538.45410156   279126.21875000 220545.73437500 
