# SAXS profile: number of points = 501, q_min = 0, q_max = 0.5, delta_q = 0.001
#    q    intensity 
0.00000    162233040.00000000 101201864.00000000 256270656.00000000 103701.04687500 8203507.00000000 6479141.00000000 
0.00100    162198032.00000000 101178168.00000000 256211264.00000000 103669.42968750 8201267.50000000 6477412.00000000 
0.00200    162087248.00000000 101107600.00000000 256032480.00000000 103576.55468750 8194648.00000000 6472168.00000000 
0.00300    161900912.00000000 100990168.00000000 255732704.00000000 103421.50781250 8183612.00000000 6463464.50000000 
0.00400    161633680.00000000 100826152.00000000 255314144.00000000 103204.50000000 8168133.00000000 6451333.00000000 
0.00500    161290464.00000000 100615992.00000000 254777200.00000000 102926.53906250 8148334.00000000 6435710.50000000 
0.00600    160870944.00000000 100357552.00000000 254121344.00000000 102587.58593750 8124206.50000000 6416791.00000000 
0.00700    160378944.00000000 100055136.00000000 253352576.00000000 102188.83593750 8095810.50000000 6394427.00000000 
0.00800    159811888.00000000 99707432.00000000 252466192.00000000 101731.78906250 8063179.00000000 6368763.50000000 
0.00900    159175184.00000000 99316312.00000000 251465920.00000000 101214.85937500 8026367.50000000 6339856.50000000 
0.01000    158468528.00000000 98880792.00000000 250354672.00000000 100642.98437500 7985505.00000000 6307728.50000000 
0.01100    157692512.00000000 98400720.00000000 249135504.00000000 100013.34375000 7940620.00000000 6272428.00000000 
0.01200    156847696.00000000 97878840.00000000 247804384.00000000 99329.90625000  7891793.50000000 6234038.00000000 
0.01300    155929888.00000000 97315144.00000000 246369296.00000000 98593.82031250  7839167.00000000 6192666.00000000 
0.01400    154951520.00000000 96711456.00000000 244831392.00000000 97805.72656250  7782744.50000000 6148326.00000000 
0.01500    153907440.00000000 96068064.00000000 243192240.00000000 96967.48437500  7722732.00000000 6101095.50000000 
0.01600    152801856.00000000 95386432.00000000 241454656.00000000 96080.77343750  7659188.00000000 6051123.50000000 
0.01700    151633712.00000000 94666680.00000000 239621376.00000000 95148.00000000  7592209.00000000 5998477.00000000 
0.01800    150407712.00000000 93910696.00000000 237697072.00000000 94170.42968750  7522001.50000000 5943202.00000000 
0.01900    149126400.00000000 93119768.00000000 235682352.00000000 93150.07812500  7448584.00000000 5885517.00000000 
0.02000    147788096.00000000 92295104.00000000 233582864.00000000 92088.50781250  7372195.50000000 5825376.50000000 
0.02100    146400368.00000000 91437656.00000000 231399616.00000000 90988.21875000  7292911.00000000 5763030.00000000 
0.02200    144960336.00000000 90549496.00000000 229137792.00000000 89851.49218750  7210878.00000000 5698523.00000000 
0.02300    143471520.00000000 89631328.00000000 226799808.00000000 88680.64062500  7126242.00000000 5631918.50000000 
0.02400    141937376.00000000 88684280.00000000 224389392.00000000 87477.59375000  7039116.50000000 5563386.50000000 
0.02500    140360752.00000000 87710616.00000000 221910944.00000000 86244.00781250  6949705.00000000 5493059.00000000 
0.02600    138743456.00000000 86711608.00000000 219367952.00000000 84982.63281250  6858178.00000000 5420992.00000000 
0.02700    137087616.00000000 85687744.00000000 216764176.00000000 83696.03125000  6764600.50000000 5347352.50000000 
0.02800    135392944.00000000 84641672.00000000 214103792.00000000 82386.07031250  6669211.50000000 5272260.00000000 
0.02900    133668664.00000000 83575544.00000000 211388384.00000000 81055.69531250  6572089.50000000 5195846.00000000 
0.03000    131910648.00000000 82489904.00000000 208625872.00000000 79706.42968750  6473444.50000000 5118196.00000000 
0.03100    130124800.00000000 81385864.00000000 205816704.00000000 78340.48437500  6373413.00000000 5039444.00000000 
0.03200    128313864.00000000 80264608.00000000 202969088.00000000 76960.47656250  6272164.50000000 4959715.50000000 
0.03300    126478880.00000000 79129128.00000000 200081648.00000000 75568.67968750  6169856.00000000 4879153.50000000 
0.03400    124622512.00000000 77981472.00000000 197161296.00000000 74167.71093750  6066593.50000000 4797854.50000000 
0.03500    122748416.00000000 76821960.00000000 194213008.00000000 72758.57812500  5962608.00000000 4715964.00000000 
0.03600    120857984.00000000 75651840.00000000 191238624.00000000 71345.39843750  5858019.50000000 4633580.50000000 
0.03700    118954384.00000000 74473704.00000000 188242160.00000000 69928.27343750  5752944.00000000 4550808.50000000 
0.03800    117040328.00000000 73287472.00000000 185227472.00000000 68510.67968750  5647544.50000000 4467757.00000000 
0.03900    115116688.00000000 72095872.00000000 182200528.00000000 67092.75000000  5541924.00000000 4384564.00000000 
0.04000    113187272.00000000 70899448.00000000 179162368.00000000 65679.17187500  5436272.50000000 4301371.00000000 
0.04100    111254104.00000000 69700960.00000000 176118368.00000000 64269.04296875  5330711.00000000 4218150.50000000 
0.04200    109319080.00000000 68501528.00000000 173070048.00000000 62866.02734375  5225434.50000000 4135159.00000000 
0.04300    107384648.00000000 67301928.00000000 170024384.00000000 61470.91406250  5120471.50000000 4052408.25000000 
0.04400    105453464.00000000 66103276.00000000 166981488.00000000 60086.12500000  5015918.50000000 3970016.75000000 
0.04500    103527032.00000000 64907480.00000000 163946400.00000000 58713.24218750  4912059.00000000 3888099.25000000 
0.04600    101608672.00000000 63715228.00000000 160921024.00000000 57353.22656250  4808860.00000000 3806729.50000000 
0.04700    99698152.00000000 62529272.00000000 157909296.00000000 56007.37109375  4706482.00000000 3725974.25000000 
0.04800    97798216.00000000 61348788.00000000 154914368.00000000 54677.56250000  4605018.50000000 3645933.25000000 
0.04900    95911680.00000000 60176604.00000000 151940912.00000000 53364.94531250  4504581.50000000 3566705.25000000 
0.05000    94039456.00000000 59012504.00000000 148987664.00000000 52070.83593750  4405197.50000000 3488324.00000000 
0.05100    92182968.00000000 57858268.00000000 146059920.00000000 50795.92968750  4307018.50000000 3410868.50000000 
0.05200    90344376.00000000 56714648.00000000 143159904.00000000 49541.17187500  4210146.00000000 3334426.00000000 
0.05300    88525616.00000000 55582896.00000000 140289056.00000000 48308.01562500  4114634.50000000 3259033.00000000 
0.05400    86727008.00000000 54463352.00000000 137453104.00000000 47096.84765625  4020502.00000000 3184728.00000000 
0.05500    84950336.00000000 53357272.00000000 134648176.00000000 45908.36718750  3927872.75000000 3111624.50000000 
0.05600    83197312.00000000 52265220.00000000 131881928.00000000 44743.55078125  3836802.75000000 3039698.75000000 
0.05700    81469288.00000000 51188652.00000000 129153384.00000000 43602.78906250  3747301.75000000 2969032.25000000 
0.05800    79767248.00000000 50127300.00000000 126465208.00000000 42486.42968750  3659466.50000000 2899678.25000000 
0.05900    78089296.00000000 49082164.00000000 123818664.00000000 41395.08984375  3573303.00000000 2831606.00000000 
0.06000    76441600.00000000 48054584.00000000 121213576.00000000 40328.64843750  3488854.25000000 2764887.50000000 
0.06100    74820952.00000000 47044144.00000000 118655600.00000000 39287.62890625  3406163.75000000 2699559.75000000 
0.06200    73230224.00000000 46051372.00000000 116141440.00000000 38273.01953125  3325220.00000000 2635634.50000000 
0.06300    71668808.00000000 45077048.00000000 113675568.00000000 37283.24609375  3246119.50000000 2573109.25000000 
0.06400    70138232.00000000 44121600.00000000 111256432.00000000 36319.57421875  3168805.00000000 2512017.50000000 
0.06500    68637528.00000000 43184948.00000000 108885584.00000000 35381.83593750  3093313.25000000 2452339.50000000 
0.06600    67169128.00000000 42268164.00000000 106564368.00000000 34469.28125000  3019670.50000000 2394150.50000000 
0.06700    65732292.00000000 41370808.00000000 104293504.00000000 33581.82031250  2947830.25000000 2337364.50000000 
0.06800    64327124.00000000 40492832.00000000 102071848.00000000 32719.66796875  2877834.25000000 2282005.75000000 
0.06900    62954312.00000000 39635400.00000000 99902104.00000000 31882.49804688  2809650.25000000 2228110.50000000 
0.07000    61613340.00000000 38797444.00000000 97782248.00000000 31069.88281250  2743250.25000000 2175616.25000000 
0.07100    60305360.00000000 37979900.00000000 95714640.00000000 30281.05273438  2678676.00000000 2124525.25000000 
0.07200    59029344.00000000 37182476.00000000 93696376.00000000 29516.12304688  2615866.75000000 2074853.75000000 
0.07300    57785608.00000000 36404992.00000000 91730448.00000000 28774.44335938  2554794.00000000 2026558.75000000 
0.07400    56574280.00000000 35647728.00000000 89814600.00000000 28055.53710938  2495465.50000000 1979629.37500000 
0.07500    55394380.00000000 34910728.00000000 87948896.00000000 27358.72070312  2437820.75000000 1934055.25000000 
0.07600    54246572.00000000 34193092.00000000 86133864.00000000 26683.38671875  2381828.25000000 1889776.62500000 
0.07700    53129832.00000000 33495346.00000000 84368408.00000000 26029.20898438  2327530.50000000 1846797.87500000 
0.07800    52044300.00000000 32817134.00000000 82652240.00000000 25395.49804688  2274777.00000000 1805087.12500000 
0.07900    50989528.00000000 32157720.00000000 80984080.00000000 24781.57226562  2223614.00000000 1764620.00000000 
0.08000    49964660.00000000 31517538.00000000 79364352.00000000 24186.70703125  2173985.00000000 1725346.62500000 
0.08100    48969848.00000000 30896352.00000000 77791528.00000000 23610.54882812  2125854.75000000 1687265.50000000 
0.08200    48004088.00000000 30292954.00000000 76264720.00000000 23052.25781250  2079118.75000000 1650322.37500000 
0.08300    47067048.00000000 29707942.00000000 74783704.00000000 22511.21484375  2033833.50000000 1614479.12500000 
0.08400    46158072.00000000 29140574.00000000 73347176.00000000 21986.52734375  1989882.37500000 1579719.12500000 
0.08500    45276572.00000000 28590240.00000000 71954088.00000000 21477.96289062  1947266.00000000 1546012.62500000 
0.08600    44421580.00000000 28057260.00000000 70603768.00000000 20984.51562500  1905903.50000000 1513299.37500000 
0.08700    43593148.00000000 27540728.00000000 69295880.00000000 20505.89843750  1865784.12500000 1481561.87500000 
0.08800    42789788.00000000 27040404.00000000 68027608.00000000 20041.27539062  1826841.62500000 1450778.37500000 
0.08900    42011500.00000000 26555650.00000000 66798984.00000000 19590.14453125  1789056.37500000 1420890.87500000 
0.09000    41257092.00000000 26086132.00000000 65608532.00000000 19151.51953125  1752354.50000000 1391867.00000000 
0.09100    40526484.00000000 25631602.00000000 64455572.00000000 18725.57812500  1716711.50000000 1363683.00000000 
0.09200    39818668.00000000 25191274.00000000 63338864.00000000 18310.86914062  1682075.12500000 1336296.87500000 
0.09300    39132512.00000000 24765066.00000000 62257080.00000000 17907.61132812  1648411.50000000 1309687.87500000 
0.09400    38467376.00000000 24352258.00000000 61208352.00000000 17514.68554688  1615681.12500000 1283816.25000000 
0.09500    37822544.00000000 23952284.00000000 60193168.00000000 17131.94921875  1583815.50000000 1258630.62500000 
0.09600    37198260.00000000 23565132.00000000 59209560.00000000 16758.83789062  1552813.50000000 1234119.62500000 
0.09700    36592516.00000000 23189888.00000000 58255676.00000000 16394.95117188  1522623.62500000 1210260.75000000 
0.09800    36005192.00000000 22826392.00000000 57331424.00000000 16039.67675781  1493201.50000000 1187005.62500000 
0.09900    35435436.00000000 22474066.00000000 56435176.00000000 15692.78417969  1464516.12500000 1164336.12500000 
0.10000    34882672.00000000 22132496.00000000 55565796.00000000 15353.59960938  1436513.12500000 1142216.00000000 
0.10100    34345844.00000000 21801208.00000000 54722316.00000000 15022.10058594  1409201.12500000 1120628.62500000 
0.10200    33824964.00000000 21479758.00000000 53903548.00000000 14697.83398438  1382522.00000000 1099549.25000000 
0.10300    33318744.00000000 21167704.00000000 53108208.00000000 14380.47070312  1356453.00000000 1078948.75000000 
0.10400    32826582.00000000 20864668.00000000 52335720.00000000 14069.53906250  1330950.37500000 1058799.37500000 
0.10500    32347994.00000000 20570448.00000000 51584460.00000000 13765.24218750  1306018.50000000 1039086.06250000 
0.10600    31882112.00000000 20283976.00000000 50854012.00000000 13466.84375000  1281584.37500000 1019780.00000000 
0.10700    31428812.00000000 20005500.00000000 50142940.00000000 13174.37402344  1257661.37500000 1000875.18750000 
0.10800    30987104.00000000 19734570.00000000 49450824.00000000 12887.45019531  1234208.37500000 982341.75000000 
0.10900    30556540.00000000 19470336.00000000 48775816.00000000 12606.07031250  1211208.50000000 964163.12500000 
0.11000    30136848.00000000 19213016.00000000 48118224.00000000 12330.05078125  1188649.87500000 946327.12500000 
0.11100    29726704.00000000 18961886.00000000 47476060.00000000 12059.13281250  1166508.00000000 928821.37500000 
0.11200    29326476.00000000 18716898.00000000 46848948.00000000 11793.24121094  1144766.87500000 911626.75000000 
0.11300    28935140.00000000 18477220.00000000 46236296.00000000 11532.10253906  1123396.25000000 894727.43750000 
0.11400    28552256.00000000 18242950.00000000 45637684.00000000 11275.96679688  1102408.00000000 878116.18750000 
0.11500    28177604.00000000 18013960.00000000 45051240.00000000 11024.48242188  1081765.25000000 861784.37500000 
0.11600    27810560.00000000 17789426.00000000 44476504.00000000 10777.71093750  1061469.00000000 845716.56250000 
0.11700    27450784.00000000 17569498.00000000 43913828.00000000 10535.45019531  1041495.25000000 829901.93750000 
0.11800    27097788.00000000 17353920.00000000 43361652.00000000 10297.69824219  1021840.31250000 814339.62500000 
0.11900    26751312.00000000 17141894.00000000 42819136.00000000 10064.40722656  1002500.43750000 799015.37500000 
0.12000    26410696.00000000 16933686.00000000 42286592.00000000 9835.54687500   983460.81250000 783921.81250000 
0.12100    26076140.00000000 16729083.00000000 41762520.00000000 9611.08007812   964714.00000000 769063.43750000 
0.12200    25746966.00000000 16527721.00000000 41247256.00000000 9391.04492188   946257.75000000 754424.00000000 
0.12300    25422890.00000000 16329413.00000000 40739892.00000000 9175.29589844   928079.43750000 740001.75000000 
0.12400    25103782.00000000 16133861.00000000 40239992.00000000 8963.84667969   910175.56250000 725783.31250000 
0.12500    24789084.00000000 15940929.00000000 39746852.00000000 8756.74707031   892543.18750000 711782.75000000 
0.12600    24478896.00000000 15750670.00000000 39260748.00000000 8553.90234375   875186.50000000 697986.00000000 
0.12700    24172734.00000000 15562616.00000000 38780696.00000000 8355.32324219   858079.06250000 684399.18750000 
0.12800    23870380.00000000 15376837.00000000 38306324.00000000 8160.98095703   841241.37500000 671003.31250000 
0.12900    23571754.00000000 15193079.00000000 37837064.00000000 7970.89453125   824655.25000000 657810.87500000 
0.13000    23276414.00000000 15011226.00000000 37373812.00000000 7784.98583984   808326.56250000 644813.00000000 
0.13100    22984502.00000000 14831113.00000000 36915112.00000000 7603.21240234   792244.56250000 632001.68750000 
0.13200    22695814.00000000 14652763.00000000 36460828.00000000 7425.58544922   776413.81250000 619388.81250000 
0.13300    22409980.00000000 14476077.00000000 36011112.00000000 7252.12841797   760829.06250000 606964.68750000 
0.13400    22126998.00000000 14300811.00000000 35565400.00000000 7082.72216797   745491.25000000 594733.18750000 
0.13500    21846784.00000000 14126944.00000000 35124012.00000000 6917.35302734   730401.18750000 582688.12500000 
0.13600    21569292.00000000 13954427.00000000 34685808.00000000 6756.00048828   715548.25000000 570823.62500000 
0.13700    21294012.00000000 13783195.00000000 34251588.00000000 6598.56054688   700937.06250000 559156.06250000 
0.13800    21021016.00000000 13613105.00000000 33820620.00000000 6445.04492188   686563.31250000 547666.68750000 
0.13900    20750554.00000000 13444127.00000000 33392732.00000000 6295.33349609   672416.93750000 536364.31250000 
0.14000    20482276.00000000 13276304.00000000 32968222.00000000 6149.48730469   658519.00000000 525241.81250000 
0.14100    20216064.00000000 13109534.00000000 32546530.00000000 6007.25146484   644852.75000000 514298.40625000 
0.14200    19951810.00000000 12943703.00000000 32127702.00000000 5868.64746094   631407.81250000 503536.50000000 
0.14300    19689644.00000000 12778877.00000000 31711974.00000000 5733.68261719   618196.68750000 492954.87500000 
0.14400    19429342.00000000 12614976.00000000 31298528.00000000 5602.08837891   605213.81250000 482545.87500000 
0.14500    19171054.00000000 12452081.00000000 30888258.00000000 5473.95947266   592455.75000000 472314.03125000 
0.14600    18914626.00000000 12289865.00000000 30480240.00000000 5349.17041016   579914.00000000 462257.75000000 
0.14700    18659978.00000000 12128624.00000000 30074976.00000000 5227.61572266   567595.50000000 452373.75000000 
0.14800    18406986.00000000 11968246.00000000 29671992.00000000 5109.18310547   555482.06250000 442651.75000000 
0.14900    18155854.00000000 11808772.00000000 29271444.00000000 4993.72167969   543593.87500000 433106.18750000 
0.15000    17906404.00000000 11650085.00000000 28873592.00000000 4881.29443359   531913.62500000 423721.46875000 
0.15100    17658632.00000000 11492223.00000000 28478088.00000000 4771.67822266   520437.68750000 414501.78125000 
0.15200    17412670.00000000 11335292.00000000 28084992.00000000 4664.82568359   509167.12500000 405449.09375000 
0.15300    17168304.00000000 11179167.00000000 27694386.00000000 4560.61914062   498098.03125000 396546.71875000 
0.15400    16925600.00000000 11023727.00000000 27305924.00000000 4459.00097656   487219.03125000 387805.09375000 
0.15500    16684829.00000000 10869263.00000000 26920012.00000000 4359.81787109   476542.28125000 379214.15625000 
0.15600    16445365.00000000 10715643.00000000 26536374.00000000 4262.97900391   466048.96875000 370773.25000000 
0.15700    16207841.00000000 10562978.00000000 26155420.00000000 4168.47656250   455742.15625000 362487.15625000 
0.15800    15971760.00000000 10411109.00000000 25776598.00000000 4076.06909180   445618.09375000 354342.37500000 
0.15900    15737537.00000000 10260100.00000000 25400538.00000000 3985.78662109   435675.90625000 346340.81250000 
0.16000    15504839.00000000 10110039.00000000 25026786.00000000 3897.46166992   425902.65625000 338480.18750000 
0.16100    15273965.00000000 9960864.00000000 24655730.00000000 3811.13745117   416306.09375000 330756.90625000 
0.16200    15044755.00000000 9812673.00000000 24287072.00000000 3726.57641602   406873.18750000 323170.65625000 
0.16300    14817097.00000000 9665413.00000000 23921010.00000000 3643.78442383   397605.43750000 315714.06250000 
0.16400    14591321.00000000 9519179.00000000 23557608.00000000 3562.68554688   388501.12500000 308388.65625000 
0.16500    14367306.00000000 9373972.00000000 23196826.00000000 3483.16967773   379551.00000000 301191.21875000 
0.16600    14145027.00000000 9229709.00000000 22838674.00000000 3405.20996094   370752.93750000 294117.84375000 
0.16700    13924502.00000000 9086471.00000000 22483380.00000000 3328.71606445   362107.53125000 287160.40625000 
0.16800    13705652.00000000 8944306.00000000 22130494.00000000 3253.60693359   353607.40625000 280326.09375000 
0.16900    13488845.00000000 8803241.00000000 21780888.00000000 3179.91723633   345253.68750000 273610.09375000 
0.17000    13273738.00000000 8663405.00000000 21433934.00000000 3107.53076172   337037.03125000 267009.21875000 
