# SAXS profile: number of points = 501, q_min = 0, q_max = 0.5, delta_q = 0.001
#    q    intensity 
0.00000    162238528.00000000 101201984.00000000 256271728.00000000 107857.57031250 8366297.50000000 6607664.00000000 
0.00100    162211328.00000000 101185008.00000000 256227776.00000000 107831.96875000 8364574.00000000 6606319.00000000 
0.00200    162128560.00000000 101133848.00000000 256097072.00000000 107754.63281250 8359385.00000000 6602254.00000000 
0.00300    161990336.00000000 101047920.00000000 255878272.00000000 107627.01562500 8350744.50000000 6595517.00000000 
0.00400    161795184.00000000 100928752.00000000 255574304.00000000 107448.19531250 8338686.00000000 6586034.50000000 
0.00500    161544544.00000000 100776256.00000000 255183200.00000000 107218.26562500 8323200.00000000 6573899.50000000 
0.00600    161238832.00000000 100589232.00000000 254704768.00000000 106938.71093750 8304276.00000000 6559138.50000000 
0.00700    160877248.00000000 100368136.00000000 254140304.00000000 106608.82031250 8282017.50000000 6541682.50000000 
0.00800    160461920.00000000 100114960.00000000 253491616.00000000 106229.19531250 8256372.50000000 6521612.00000000 
0.00900    159989888.00000000 99828432.00000000 252759600.00000000 105801.17968750 8227449.00000000 6498910.00000000 
0.01000    159466592.00000000 99509104.00000000 251942640.00000000 105324.32812500 8195215.50000000 6473669.00000000 
0.01100    158891920.00000000 99158104.00000000 251043072.00000000 104800.39062500 8159752.00000000 6445889.50000000 
0.01200    158265216.00000000 98774864.00000000 250061760.00000000 104228.42968750 8121032.50000000 6415589.50000000 
0.01300    157587600.00000000 98360072.00000000 249000160.00000000 103611.06250000 8079219.50000000 6382847.00000000 
0.01400    156858352.00000000 97914392.00000000 247858480.00000000 102948.25000000 8034289.00000000 6347658.50000000 
0.01500    156076992.00000000 97437936.00000000 246638960.00000000 102240.90625000 7986325.50000000 6310051.50000000 
0.01600    155247328.00000000 96930800.00000000 245342672.00000000 101490.53906250 7935378.00000000 6270146.50000000 
0.01700    154369568.00000000 96393704.00000000 243970592.00000000 100697.56250000 7881529.00000000 6227938.00000000 
0.01800    153446176.00000000 95828784.00000000 242523520.00000000 99864.01562500  7824761.00000000 6183482.00000000 
0.01900    152474688.00000000 95234464.00000000 241004560.00000000 98989.48437500  7765236.50000000 6136842.00000000 
0.02000    151457408.00000000 94613168.00000000 239414944.00000000 98076.39843750  7702999.00000000 6088072.00000000 
0.02100    150396992.00000000 93964280.00000000 237755312.00000000 97124.92968750  7638119.00000000 6037214.50000000 
0.02200    149292256.00000000 93289352.00000000 236028160.00000000 96137.72656250  7570691.50000000 5984356.50000000 
0.02300    148146624.00000000 92588088.00000000 234235520.00000000 95115.42187500  7500746.00000000 5929556.00000000 
0.02400    146958160.00000000 91861896.00000000 232378256.00000000 94059.38281250  7428465.00000000 5872843.00000000 
0.02500    145732048.00000000 91111264.00000000 230459056.00000000 92970.83593750  7353788.50000000 5814351.50000000 
0.02600    144467760.00000000 90338008.00000000 228480384.00000000 91851.43750000  7276917.00000000 5754082.00000000 
0.02700    143165520.00000000 89540504.00000000 226442976.00000000 90702.71093750  7197934.50000000 5692115.00000000 
0.02800    141827552.00000000 88721376.00000000 224348560.00000000 89525.04687500  7116848.00000000 5628574.00000000 
0.02900    140455904.00000000 87881136.00000000 222201760.00000000 88322.75781250  7033861.00000000 5563465.00000000 
0.03000    139050912.00000000 87021104.00000000 220002016.00000000 87093.56250000  6948968.50000000 5496940.00000000 
0.03100    137613680.00000000 86141136.00000000 217754192.00000000 85842.41406250  6862351.50000000 5428966.00000000 
0.03200    136146448.00000000 85241896.00000000 215456704.00000000 84569.01562500  6774079.50000000 5359677.50000000 
0.03300    134652336.00000000 84325960.00000000 213115776.00000000 83275.26562500  6684189.00000000 5289222.50000000 
0.03400    133129136.00000000 83392544.00000000 210731360.00000000 81963.05468750  6592860.00000000 5217515.50000000 
0.03500    131580328.00000000 82442520.00000000 208305392.00000000 80633.74218750  6500162.50000000 5144789.00000000 
0.03600    130007504.00000000 81478416.00000000 205842048.00000000 79288.74218750  6406199.00000000 5071059.00000000 
0.03700    128412232.00000000 80499520.00000000 203342048.00000000 77930.19531250  6311061.50000000 4996385.00000000 
0.03800    126794528.00000000 79507912.00000000 200809168.00000000 76559.15625000  6214842.00000000 4920851.00000000 
0.03900    125158152.00000000 78503632.00000000 198245568.00000000 75177.83593750  6117706.00000000 4844577.50000000 
0.04000    123503288.00000000 77487024.00000000 195651616.00000000 73786.69531250  6019666.00000000 4767592.00000000 
0.04100    121831824.00000000 76460512.00000000 193030656.00000000 72388.42187500  5920846.00000000 4689957.50000000 
0.04200    120144848.00000000 75424656.00000000 190386912.00000000 70984.18750000  5821398.00000000 4611820.00000000 
0.04300    118443624.00000000 74379536.00000000 187720608.00000000 69575.53906250  5721387.50000000 4533251.50000000 
0.04400    116731064.00000000 73326936.00000000 185034896.00000000 68163.96875000  5620877.50000000 4454322.00000000 
0.04500    115007320.00000000 72268304.00000000 182332160.00000000 66751.18750000  5520034.50000000 4375070.00000000 
0.04600    113274216.00000000 71202808.00000000 179614432.00000000 65337.82421875  5418897.50000000 4295579.50000000 
0.04700    111533448.00000000 70131672.00000000 176883088.00000000 63926.57421875  5317568.00000000 4215918.50000000 
0.04800    109786512.00000000 69056984.00000000 174142656.00000000 62517.87109375  5216163.00000000 4136171.50000000 
0.04900    108034840.00000000 67977992.00000000 171394032.00000000 61113.38671875  5114773.50000000 4056459.00000000 
0.05000    106279568.00000000 66897496.00000000 168638208.00000000 59714.75390625  5013480.50000000 3976776.50000000 
0.05100    104522296.00000000 65815044.00000000 165879520.00000000 58323.17187500  4912386.50000000 3897247.00000000 
0.05200    102764632.00000000 64731628.00000000 163120160.00000000 56939.44140625  4811566.00000000 3817906.00000000 
0.05300    101007760.00000000 63648588.00000000 160361424.00000000 55565.16796875  4711091.50000000 3738845.25000000 
0.05400    99251976.00000000 62566260.00000000 157604368.00000000 54201.65234375  4611103.50000000 3660115.50000000 
0.05500    97500888.00000000 61485836.00000000 154851840.00000000 52850.12109375  4511608.50000000 3581767.00000000 
0.05600    95753912.00000000 60407456.00000000 152107520.00000000 51511.10546875  4412675.00000000 3503882.25000000 
0.05700    94012872.00000000 59332512.00000000 149370656.00000000 50186.27734375  4314489.00000000 3426526.75000000 
0.05800    92279304.00000000 58261632.00000000 146644976.00000000 48876.61328125  4217002.50000000 3349717.50000000 
0.05900    90553464.00000000 57195432.00000000 143931552.00000000 47582.13281250  4120374.25000000 3273580.50000000 
0.06000    88837320.00000000 56134304.00000000 141232192.00000000 46305.26171875  4024603.50000000 3198085.50000000 
0.06100    87132216.00000000 55079484.00000000 138549744.00000000 45045.92578125  3929824.50000000 3123349.50000000 
0.06200    85438360.00000000 54031668.00000000 135884640.00000000 43805.15625000  3836047.25000000 3049383.50000000 
0.06300    83757608.00000000 52991268.00000000 133240304.00000000 42583.71484375  3743358.00000000 2976270.50000000 
0.06400    82090336.00000000 51958460.00000000 130616104.00000000 41382.29296875  3651766.25000000 2904014.00000000 
0.06500    80437760.00000000 50934612.00000000 128014088.00000000 40201.39843750  3561382.50000000 2832683.00000000 
0.06600    78801008.00000000 49919736.00000000 125436224.00000000 39042.13281250  3472250.50000000 2762312.00000000 
0.06700    77181032.00000000 48914904.00000000 122884552.00000000 37904.62109375  3384388.00000000 2692932.00000000 
0.06800    75578048.00000000 47920160.00000000 120358928.00000000 36789.67578125  3297851.75000000 2624578.75000000 
0.06900    73994008.00000000 46936484.00000000 117862016.00000000 35697.54687500  3212712.75000000 2557302.00000000 
0.07000    72428600.00000000 45963968.00000000 115393664.00000000 34628.86328125  3128974.00000000 2491131.50000000 
0.07100    70883264.00000000 45003296.00000000 112956904.00000000 33583.53906250  3046686.50000000 2426066.75000000 
0.07200    69357984.00000000 44054620.00000000 110550888.00000000 32562.43554688  2965884.25000000 2362151.50000000 
0.07300    67854672.00000000 43118908.00000000 108178376.00000000 31565.53320312  2886603.50000000 2299417.00000000 
0.07400    66372532.00000000 42196072.00000000 105839304.00000000 30592.74804688  2808840.00000000 2237890.50000000 
0.07500    64912584.00000000 41286560.00000000 103534104.00000000 29645.00390625  2732642.25000000 2177574.25000000 
0.07600    63475548.00000000 40390444.00000000 101264568.00000000 28721.84765625  2658030.50000000 2118487.75000000 
0.07700    62062200.00000000 39508752.00000000 99032064.00000000 27823.44726562  2585027.25000000 2060664.75000000 
0.07800    60672276.00000000 38641492.00000000 96835488.00000000 26950.04687500  2513637.00000000 2004076.25000000 
0.07900    59306460.00000000 37788392.00000000 94676456.00000000 26101.45507812  2443865.00000000 1948771.62500000 
0.08000    57965380.00000000 36950172.00000000 92555416.00000000 25277.48242188  2375731.50000000 1894745.37500000 
0.08100    56649240.00000000 36126704.00000000 90473568.00000000 24478.60546875  2309240.00000000 1841995.37500000 
0.08200    55358156.00000000 35318932.00000000 88430296.00000000 23703.94531250  2244414.50000000 1790541.12500000 
0.08300    54092180.00000000 34525792.00000000 86427000.00000000 22953.82226562  2181217.75000000 1740377.50000000 
0.08400    52852172.00000000 33748724.00000000 84462712.00000000 22227.68359375  2119670.25000000 1691507.62500000 
0.08500    51637444.00000000 32986698.00000000 82539120.00000000 21525.89257812  2059775.50000000 1643913.62500000 
0.08600    50448884.00000000 32240756.00000000 80655032.00000000 20847.48437500  2001515.37500000 1597614.00000000 
0.08700    49285872.00000000 31510524.00000000 78811264.00000000 20192.51367188  1944905.50000000 1552592.50000000 
0.08800    48148996.00000000 30795730.00000000 77008784.00000000 19560.48828125  1889907.00000000 1508838.37500000 
0.08900    47038368.00000000 30097056.00000000 75246640.00000000 18951.25195312  1836515.75000000 1466343.87500000 
0.09000    45953520.00000000 29413988.00000000 73525008.00000000 18364.15820312  1784717.12500000 1425104.25000000 
0.09100    44894632.00000000 28747060.00000000 71843536.00000000 17799.12500000  1734487.25000000 1385106.50000000 
0.09200    43861264.00000000 28095526.00000000 70202496.00000000 17255.39453125  1685820.37500000 1346321.25000000 
0.09300    42853932.00000000 27459842.00000000 68602128.00000000 16732.63867188  1638707.62500000 1308764.37500000 
0.09400    41872076.00000000 26839814.00000000 67040952.00000000 16230.24316406  1593098.75000000 1272384.25000000 
0.09500    40915344.00000000 26235380.00000000 65520024.00000000 15747.83398438  1548975.37500000 1237183.00000000 
0.09600    39983964.00000000 25646164.00000000 64038180.00000000 15285.02148438  1506327.00000000 1203144.50000000 
0.09700    39077264.00000000 25072416.00000000 62596040.00000000 14841.04882812  1465130.37500000 1170235.62500000 
0.09800    38196076.00000000 24513800.00000000 61191664.00000000 14415.50781250  1425348.50000000 1138448.50000000 
0.09900    37338708.00000000 23970124.00000000 59826308.00000000 14007.84667969  1386953.37500000 1107749.87500000 
0.10000    36505572.00000000 23441246.00000000 58498516.00000000 13617.45312500  1349906.50000000 1078128.87500000 
0.10100    35695996.00000000 22927108.00000000 57208176.00000000 13243.74707031  1314186.50000000 1049538.00000000 
0.10200    34909908.00000000 22427266.00000000 55954456.00000000 12886.21386719  1279751.12500000 1021983.06250000 
0.10300    34146540.00000000 21942016.00000000 54736984.00000000 12544.26562500  1246583.12500000 995419.37500000 
0.10400    33406438.00000000 21470322.00000000 53554960.00000000 12217.39746094  1214646.50000000 969829.87500000 
0.10500    32688270.00000000 21012792.00000000 52408404.00000000 11904.92968750  1183907.87500000 945191.68750000 
0.10600    31991950.00000000 20568518.00000000 51295976.00000000 11606.23339844  1154308.87500000 921456.75000000 
0.10700    31317076.00000000 20137662.00000000 50217196.00000000 11320.88867188  1125854.25000000 898620.00000000 
0.10800    30663290.00000000 19719738.00000000 49171728.00000000 11048.04101562  1098487.12500000 876653.81250000 
0.10900    30029776.00000000 19314666.00000000 48158440.00000000 10787.51464844  1072162.87500000 855513.62500000 
0.11000    29416226.00000000 18922124.00000000 47176552.00000000 10538.43164062  1046858.18750000 835186.06250000 
0.11100    28822548.00000000 18541604.00000000 46225808.00000000 10300.35253906  1022537.56250000 815643.12500000 
0.11200    28247660.00000000 18172952.00000000 45305256.00000000 10072.72363281  999160.06250000 796847.06250000 
0.11300    27691348.00000000 17816102.00000000 44413740.00000000 9855.02929688   976692.12500000 778779.56250000 
0.11400    27153146.00000000 17470498.00000000 43551060.00000000 9646.66992188   955098.50000000 761407.31250000 
0.11500    26632646.00000000 17135900.00000000 42716284.00000000 9447.22558594   934349.06250000 744703.43750000 
0.11600    26129052.00000000 16812038.00000000 41908408.00000000 9256.11425781   914396.12500000 728647.18750000 
0.11700    25642076.00000000 16498560.00000000 41126876.00000000 9072.87500000   895217.12500000 713201.56250000 
0.11800    25171062.00000000 16195086.00000000 40370212.00000000 8897.00195312   876768.00000000 698338.06250000 
0.11900    24715456.00000000 15901440.00000000 39638980.00000000 8728.00683594   859023.18750000 684043.37500000 
0.12000    24274718.00000000 15617229.00000000 38930600.00000000 8565.44042969   841939.50000000 670282.25000000 
0.12100    23848606.00000000 15342292.00000000 38246064.00000000 8408.99414062   825494.93750000 657033.25000000 
0.12200    23436424.00000000 15076148.00000000 37583828.00000000 8258.08007812   809651.18750000 644266.43750000 
0.12300    23037580.00000000 14818552.00000000 36942636.00000000 8112.42382812   794375.75000000 631956.56250000 
0.12400    22651652.00000000 14569256.00000000 36322100.00000000 7971.50488281   779645.00000000 620082.62500000 
0.12500    22278312.00000000 14327777.00000000 35721352.00000000 7835.03466797   765415.62500000 608621.56250000 
0.12600    21916790.00000000 14093971.00000000 35139968.00000000 7702.69677734   751672.87500000 597545.93750000 
0.12700    21566828.00000000 13867559.00000000 34576916.00000000 7574.04394531   738379.18750000 586843.37500000 
0.12800    21227694.00000000 13648068.00000000 34031292.00000000 7448.83105469   725516.62500000 576481.62500000 
0.12900    20899244.00000000 13435389.00000000 33502710.00000000 7326.75683594   713047.00000000 566441.62500000 
0.13000    20580634.00000000 13229178.00000000 32990112.00000000 7207.48583984   700948.31250000 556701.93750000 
0.13100    20271496.00000000 13029193.00000000 32492630.00000000 7090.86328125   689194.25000000 547249.87500000 
0.13200    19971660.00000000 12835134.00000000 32009986.00000000 6976.41894531   677768.62500000 538058.56250000 
0.13300    19680448.00000000 12646666.00000000 31541534.00000000 6864.16845703   666642.18750000 529116.68750000 
0.13400    19397348.00000000 12463498.00000000 31086164.00000000 6753.70800781   655793.37500000 520403.21875000 
0.13500    19122382.00000000 12285574.00000000 30643548.00000000 6644.95166016   645205.37500000 511900.00000000 
0.13600    18854590.00000000 12112455.00000000 30213072.00000000 6537.64599609   634848.75000000 503590.18750000 
0.13700    18593890.00000000 11943877.00000000 29793748.00000000 6431.66992188   624711.00000000 495465.81250000 
0.13800    18339882.00000000 11779685.00000000 29385446.00000000 6326.82275391   614779.87500000 487502.78125000 
0.13900    18092046.00000000 11619747.00000000 28987074.00000000 6222.99365234   605026.75000000 479693.78125000 
0.14000    17850072.00000000 11463622.00000000 28598604.00000000 6120.07763672   595446.06250000 472025.53125000 
0.14100    17613788.00000000 11311328.00000000 28219064.00000000 6017.94628906   586013.81250000 464483.81250000 
0.14200    17382694.00000000 11162377.00000000 27848050.00000000 5916.48242188   576720.75000000 457059.75000000 
0.14300    17156590.00000000 11016863.00000000 27485306.00000000 5815.65234375   567556.56250000 449739.84375000 
0.14400    16934852.00000000 10874326.00000000 27129678.00000000 5715.26806641   558501.56250000 442513.53125000 
0.14500    16717632.00000000 10734720.00000000 26781512.00000000 5615.43359375   549550.37500000 435376.96875000 
0.14600    16504437.00000000 10597816.00000000 26439982.00000000 5516.00878906   540688.93750000 428317.81250000 
0.14700    16294952.00000000 10463572.00000000 26104428.00000000 5416.98388672   531910.31250000 421330.46875000 
0.14800    16088911.00000000 10331601.00000000 25774854.00000000 5318.30810547   523205.40625000 414402.50000000 
0.14900    15886222.00000000 10201948.00000000 25450530.00000000 5219.98388672   514567.78125000 407529.65625000 
0.15000    15686485.00000000 10074236.00000000 25131278.00000000 5121.97167969   505985.06250000 400710.81250000 
0.15100    15489600.00000000 9948653.00000000 24816676.00000000 5024.35595703   497456.71875000 393938.43750000 
0.15200    15295331.00000000 9824804.00000000 24506604.00000000 4927.10595703   488976.84375000 387206.06250000 
0.15300    15103456.00000000 9702571.00000000 24200418.00000000 4830.20166016   480537.68750000 380509.00000000 
0.15400    14913746.00000000 9581944.00000000 23897926.00000000 4733.65673828   472135.06250000 373846.62500000 
0.15500    14726115.00000000 9462787.00000000 23598964.00000000 4637.55810547   463769.03125000 367209.71875000 
0.15600    14540367.00000000 9344942.00000000 23303100.00000000 4541.91210938   455431.43750000 360606.78125000 
0.15700    14356480.00000000 9228430.00000000 23010378.00000000 4446.79931641   447130.28125000 354026.53125000 
0.15800    14174046.00000000 9112928.00000000 22720124.00000000 4352.18310547   438850.25000000 347470.25000000 
0.15900    13993280.00000000 8998558.00000000 22432538.00000000 4258.19580078   430602.53125000 340939.84375000 
0.16000    13813756.00000000 8885107.00000000 22147218.00000000 4164.79101562   422377.96875000 334428.34375000 
0.16100    13635672.00000000 8772716.00000000 21864350.00000000 4072.16259766   414185.37500000 327940.75000000 
0.16200    13458702.00000000 8661114.00000000 21583340.00000000 3980.26928711   406018.12500000 321478.56250000 
0.16300    13282760.00000000 8550301.00000000 21304092.00000000 3889.16308594   397874.40625000 315033.78125000 
0.16400    13107972.00000000 8440281.00000000 21026776.00000000 3798.93920898   389765.43750000 308617.28125000 
0.16500    12934127.00000000 8330900.50000000 20751086.00000000 3709.63623047   381685.62500000 302224.56250000 
0.16600    12761222.00000000 8222171.00000000 20476790.00000000 3621.34716797   373643.59375000 295856.40625000 
0.16700    12589056.00000000 8114039.50000000 20204002.00000000 3534.06982422   365628.46875000 289518.06250000 
0.16800    12417809.00000000 8006483.00000000 19932594.00000000 3447.90795898   357657.46875000 283205.65625000 
0.16900    12247451.00000000 7899542.00000000 19662548.00000000 3362.95385742   349726.00000000 276927.68750000 
0.17000    12077676.00000000 7793104.50000000 19393852.00000000 3279.18164062   341837.90625000 270682.68750000 
