# SAXS profile: number of points = 501, q_min = 0, q_max = 0.5, delta_q = 0.001
#    q    intensity 
0.00000    162232720.00000000 101201704.00000000 256270144.00000000 107612.04687500 8356748.00000000 6600157.50000000 
0.00100    162184896.00000000 101169264.00000000 256188320.00000000 107569.84375000 8353807.00000000 6597778.50000000 
0.00200    162034256.00000000 101072152.00000000 255943008.00000000 107444.94531250 8344880.00000000 6590792.50000000 
0.00300    161776432.00000000 100911440.00000000 255533136.00000000 107237.39843750 8330049.00000000 6579106.50000000 
0.00400    161410864.00000000 100685824.00000000 254962240.00000000 106947.57031250 8309285.50000000 6562756.00000000 
0.00500    160941680.00000000 100395736.00000000 254223424.00000000 106575.92968750 8282698.50000000 6541826.50000000 
0.00600    160374720.00000000 100044240.00000000 253331520.00000000 106124.37500000 8250392.00000000 6516366.50000000 
0.00700    159699616.00000000 99630712.00000000 252282624.00000000 105593.87500000 8212399.00000000 6486433.00000000 
0.00800    158932576.00000000 99156408.00000000 251073728.00000000 104985.82812500 8168785.50000000 6452097.50000000 
0.00900    158071888.00000000 98623888.00000000 249715664.00000000 104301.85156250 8119816.50000000 6413490.00000000 
0.01000    157116816.00000000 98029464.00000000 248208960.00000000 103544.24218750 8065448.50000000 6370734.50000000 
0.01100    156064976.00000000 97379280.00000000 246553712.00000000 102714.67968750 8005933.50000000 6323810.50000000 
0.01200    154924272.00000000 96672512.00000000 244761680.00000000 101815.75000000 7941357.00000000 6272914.50000000 
0.01300    153696832.00000000 95912552.00000000 242830448.00000000 100850.07812500 7871941.00000000 6218231.00000000 
0.01400    152387680.00000000 95100360.00000000 240766160.00000000 99820.14062500  7797833.00000000 6159847.00000000 
0.01500    150994720.00000000 94237944.00000000 238573968.00000000 98728.11718750  7719145.50000000 6097873.50000000 
0.01600    149523920.00000000 93327224.00000000 236257920.00000000 97578.31250000  7636197.50000000 6032594.50000000 
0.01700    147978384.00000000 92369136.00000000 233825952.00000000 96373.76562500  7549142.50000000 5963960.50000000 
0.01800    146362784.00000000 91367528.00000000 231282048.00000000 95116.30468750  7458263.50000000 5892352.00000000 
0.01900    144678592.00000000 90324568.00000000 228630288.00000000 93810.50000000  7363718.00000000 5817838.50000000 
0.02000    142930896.00000000 89241496.00000000 225877616.00000000 92459.22656250  7265744.00000000 5740648.00000000 
0.02100    141123280.00000000 88120624.00000000 223030976.00000000 91066.65625000  7164538.00000000 5660909.50000000 
0.02200    139260640.00000000 86965080.00000000 220096864.00000000 89634.16406250  7060407.50000000 5578821.00000000 
0.02300    137344736.00000000 85777408.00000000 217080624.00000000 88168.00000000  6953578.00000000 5494609.50000000 
0.02400    135381600.00000000 84559032.00000000 213987200.00000000 86670.06250000  6844301.00000000 5408466.50000000 
0.02500    133374552.00000000 83313568.00000000 210826352.00000000 85144.96875000  6732788.50000000 5320574.50000000 
0.02600    131328352.00000000 82044328.00000000 207601936.00000000 83595.57812500  6619307.50000000 5231141.50000000 
0.02700    129246752.00000000 80752472.00000000 204323376.00000000 82025.96093750  6504126.50000000 5140323.50000000 
0.02800    127134032.00000000 79440608.00000000 200993328.00000000 80439.42187500  6387463.00000000 5048337.50000000 
0.02900    124994080.00000000 78111640.00000000 197620768.00000000 78839.21875000  6269591.50000000 4955412.00000000 
0.03000    122831632.00000000 76769040.00000000 194212256.00000000 77229.92968750  6150746.50000000 4861660.00000000 
0.03100    120651360.00000000 75415080.00000000 190775600.00000000 75613.72656250  6031188.00000000 4767326.00000000 
0.03200    118456056.00000000 74051248.00000000 187314832.00000000 73994.32812500  5911129.00000000 4672710.50000000 
0.03300    116249944.00000000 72681104.00000000 183837440.00000000 72375.70312500  5790820.50000000 4577803.00000000 
0.03400    114037552.00000000 71306416.00000000 180348592.00000000 70759.92968750  5670453.00000000 4482837.00000000 
0.03500    111823344.00000000 69928864.00000000 176855312.00000000 69150.44531250  5550251.00000000 4388003.50000000 
0.03600    109609456.00000000 68552112.00000000 173364512.00000000 67549.67968750  5430448.00000000 4293468.50000000 
0.03700    107401488.00000000 67178760.00000000 169882288.00000000 65960.67968750  5311257.50000000 4199415.50000000 
0.03800    105201136.00000000 65809844.00000000 166409664.00000000 64386.33593750  5192846.00000000 4105989.75000000 
0.03900    103013480.00000000 64448256.00000000 162958368.00000000 62829.58203125  5075459.00000000 4013343.25000000 
0.04000    100841512.00000000 63096112.00000000 159531984.00000000 61291.93750000  4959186.50000000 3921551.75000000 
0.04100    98687648.00000000 61755272.00000000 156132624.00000000 59775.84375000  4844237.50000000 3830870.25000000 
0.04200    96556304.00000000 60427496.00000000 152766384.00000000 58283.03906250  4730798.50000000 3741308.75000000 
0.04300    94448824.00000000 59114520.00000000 149439024.00000000 56815.74609375  4619048.50000000 3653033.00000000 
0.04400    92368128.00000000 57818592.00000000 146155504.00000000 55375.19140625  4508999.00000000 3566158.25000000 
0.04500    90317184.00000000 56540700.00000000 142917536.00000000 53963.79296875  4400873.50000000 3480811.50000000 
0.04600    88299056.00000000 55282876.00000000 139731024.00000000 52582.00390625  4294781.50000000 3397034.75000000 
0.04700    86315520.00000000 54045816.00000000 136598320.00000000 51231.06250000  4190871.50000000 3314934.50000000 
0.04800    84367912.00000000 52831964.00000000 133524368.00000000 49912.57812500  4089104.50000000 3234565.50000000 
0.04900    82460232.00000000 51641584.00000000 130510144.00000000 48627.50781250  3989655.50000000 3156046.75000000 
0.05000    80590760.00000000 50475948.00000000 127557904.00000000 47375.69531250  3892594.75000000 3079342.75000000 
0.05100    78764608.00000000 49336076.00000000 124673096.00000000 46158.30859375  3797953.50000000 3004604.75000000 
0.05200    76981312.00000000 48223520.00000000 121855280.00000000 44975.37500000  3705829.00000000 2931813.00000000 
0.05300    75241872.00000000 47138104.00000000 119106960.00000000 43827.17578125  3616235.50000000 2861023.50000000 
0.05400    73547648.00000000 46080784.00000000 116431512.00000000 42714.40234375  3529157.00000000 2792236.50000000 
0.05500    71900576.00000000 45052672.00000000 113827720.00000000 41636.51953125  3444670.75000000 2725513.75000000 
0.05600    70300280.00000000 44053104.00000000 111297440.00000000 40593.47656250  3362792.50000000 2660811.00000000 
0.05700    68746824.00000000 43083728.00000000 108843680.00000000 39585.10937500  3283482.50000000 2598126.50000000 
0.05800    67241128.00000000 42143692.00000000 106464912.00000000 38610.55859375  3206747.25000000 2537527.00000000 
0.05900    65783452.00000000 41233496.00000000 104160640.00000000 37669.68750000  3132618.25000000 2478924.00000000 
0.06000    64373948.00000000 40353340.00000000 101933632.00000000 36761.81250000  3060970.00000000 2422340.75000000 
0.06100    63012588.00000000 39503452.00000000 99781096.00000000 35886.42968750  2991858.75000000 2367745.75000000 
0.06200    61698020.00000000 38682808.00000000 97704440.00000000 35042.50781250  2925219.75000000 2315079.25000000 
0.06300    60430852.00000000 37891964.00000000 95702280.00000000 34229.28515625  2860967.25000000 2264363.50000000 
0.06400    59210968.00000000 37130312.00000000 93774536.00000000 33445.36718750  2799122.50000000 2215495.50000000 
0.06500    58036600.00000000 36397748.00000000 91919016.00000000 32690.67187500  2739545.00000000 2168466.50000000 
0.06600    56907644.00000000 35693456.00000000 90136704.00000000 31963.84375000  2682230.75000000 2123200.75000000 
0.06700    55823040.00000000 35017624.00000000 88423696.00000000 31263.47851562  2627105.75000000 2079673.87500000 
0.06800    54781776.00000000 34369188.00000000 86779944.00000000 30588.52539062  2574100.00000000 2037837.37500000 
0.06900    53783588.00000000 33747460.00000000 85204872.00000000 29938.24023438  2523117.75000000 1997586.50000000 
0.07000    52826736.00000000 33151842.00000000 83694480.00000000 29311.14453125  2474051.50000000 1958895.87500000 
0.07100    51909504.00000000 32581522.00000000 82248064.00000000 28706.32421875  2426918.25000000 1921681.00000000 
0.07200    51031300.00000000 32035714.00000000 80863536.00000000 28122.36523438  2381542.50000000 1885898.12500000 
0.07300    50191064.00000000 31513784.00000000 79538344.00000000 27558.36914062  2337860.75000000 1851482.50000000 
0.07400    49386824.00000000 31014738.00000000 78271488.00000000 27013.16015625  2295842.75000000 1818344.87500000 
0.07500    48617512.00000000 30537960.00000000 77059408.00000000 26485.52539062  2255356.25000000 1786413.12500000 
0.07600    47881104.00000000 30081982.00000000 75901728.00000000 25974.21484375  2216310.25000000 1755657.62500000 
0.07700    47176352.00000000 29646564.00000000 74793592.00000000 25478.25195312  2178619.25000000 1725997.50000000 
0.07800    46502144.00000000 29230628.00000000 73733392.00000000 24996.84960938  2142239.75000000 1697342.12500000 
0.07900    45856936.00000000 28832808.00000000 72720032.00000000 24528.62695312  2107037.75000000 1669654.37500000 
0.08000    45238280.00000000 28452136.00000000 71750176.00000000 24073.08789062  2072987.25000000 1642844.50000000 
0.08100    44645880.00000000 28088222.00000000 70820880.00000000 23628.51562500  2039957.62500000 1616876.87500000 
0.08200    44077980.00000000 27739696.00000000 69931416.00000000 23195.00976562  2007901.50000000 1591673.00000000 
0.08300    43532120.00000000 27405506.00000000 69077072.00000000 22771.10742188  1976742.12500000 1567175.50000000 
0.08400    43007804.00000000 27085442.00000000 68257040.00000000 22356.41406250  1946402.00000000 1543319.37500000 
0.08500    42503092.00000000 26777538.00000000 67468576.00000000 21949.89453125  1916791.00000000 1520075.37500000 
0.08600    42017040.00000000 26481626.00000000 66710224.00000000 21550.89062500  1887891.12500000 1497377.75000000 
0.08700    41547848.00000000 26196448.00000000 65978300.00000000 21158.91796875  1859605.62500000 1475168.87500000 
0.08800    41094092.00000000 25921528.00000000 65271428.00000000 20773.49218750  1831889.37500000 1453399.25000000 
0.08900    40653860.00000000 25655368.00000000 64587044.00000000 20393.83203125  1804676.87500000 1432032.00000000 
0.09000    40227568.00000000 25397756.00000000 63923636.00000000 20019.69726562  1777910.50000000 1411032.12500000 
0.09100    39812400.00000000 25147654.00000000 63278328.00000000 19650.65039062  1751571.50000000 1390337.25000000 
0.09200    39408008.00000000 24904114.00000000 62650156.00000000 19286.21093750  1725591.00000000 1369946.75000000 
0.09300    39012616.00000000 24666850.00000000 62038064.00000000 18926.31640625  1699932.37500000 1349806.37500000 
0.09400    38625472.00000000 24434554.00000000 61437928.00000000 18570.42968750  1674555.87500000 1329887.00000000 
0.09500    38246152.00000000 24207088.00000000 60849824.00000000 18218.57031250  1649430.87500000 1310160.87500000 
0.09600    37872652.00000000 23983666.00000000 60271076.00000000 17870.44531250  1624541.87500000 1290608.50000000 
0.09700    37504424.00000000 23763610.00000000 59701788.00000000 17525.66210938  1599843.00000000 1271218.12500000 
0.09800    37140844.00000000 23546334.00000000 59139320.00000000 17184.54296875  1575317.75000000 1251943.00000000 
0.09900    36781100.00000000 23331448.00000000 58582808.00000000 16846.99414062  1550938.62500000 1232790.00000000 
0.10000    36424268.00000000 23118358.00000000 58030616.00000000 16512.64062500  1526710.12500000 1213736.12500000 
0.10100    36069648.00000000 22906638.00000000 57482308.00000000 16181.73632812  1502586.62500000 1194770.12500000 
0.10200    35716888.00000000 22695900.00000000 56936504.00000000 15854.32128906  1478594.12500000 1175888.50000000 
0.10300    35364896.00000000 22485800.00000000 56392412.00000000 15530.16113281  1454697.62500000 1157079.25000000 
0.10400    35013644.00000000 22275966.00000000 55849296.00000000 15209.52832031  1430911.62500000 1138339.50000000 
0.10500    34663080.00000000 22066128.00000000 55306268.00000000 14892.63281250  1407210.00000000 1119669.37500000 
0.10600    34312248.00000000 21856050.00000000 54762568.00000000 14579.20117188  1383600.25000000 1101057.00000000 
0.10700    33960540.00000000 21645212.00000000 54217992.00000000 14269.62109375  1360099.12500000 1082518.00000000 
0.10800    33608392.00000000 21433604.00000000 53671500.00000000 13963.76757812  1336693.12500000 1064038.37500000 
0.10900    33254968.00000000 21221024.00000000 53122996.00000000 13661.99414062  1313389.75000000 1045639.56250000 
0.11000    32900188.00000000 21007892.00000000 52572232.00000000 13364.24707031  1290194.25000000 1027318.50000000 
0.11100    32544482.00000000 20792966.00000000 52018944.00000000 13070.74414062  1267115.50000000 1009084.93750000 
0.11200    32187034.00000000 20577166.00000000 51463108.00000000 12781.42187500  1244174.50000000 990926.43750000 
0.11300    31827832.00000000 20359980.00000000 50904416.00000000 12496.56640625  1221358.00000000 972863.56250000 
0.11400    31467268.00000000 20141372.00000000 50341956.00000000 12216.19238281  1198678.00000000 954917.81250000 
0.11500    31105012.00000000 19921220.00000000 49776752.00000000 11940.54785156  1176167.12500000 937083.12500000 
0.11600    30741232.00000000 19699878.00000000 49209024.00000000 11669.47656250  1153826.75000000 919364.25000000 
0.11700    30376228.00000000 19477166.00000000 48638604.00000000 11403.28417969  1131647.75000000 901772.81250000 
0.11800    30009364.00000000 19253088.00000000 48064672.00000000 11141.88281250  1109653.62500000 884329.62500000 
0.11900    29641294.00000000 19027830.00000000 47488376.00000000 10885.31738281  1087867.00000000 867031.37500000 
0.12000    29272180.00000000 18801236.00000000 46909912.00000000 10633.67578125  1066291.62500000 849893.81250000 
0.12100    28902236.00000000 18573810.00000000 46328936.00000000 10387.18554688  1044943.50000000 832918.00000000 
0.12200    28531098.00000000 18345238.00000000 45746572.00000000 10145.60546875  1023820.18750000 816128.31250000 
0.12300    28159504.00000000 18115870.00000000 45162208.00000000 9909.04003906   1002948.62500000 799519.56250000 
0.12400    27787468.00000000 17885818.00000000 44577228.00000000 9677.43652344   982319.62500000 783103.81250000 
0.12500    27415104.00000000 17655112.00000000 43991000.00000000 9450.93750000   961955.31250000 766882.31250000 
0.12600    27042784.00000000 17423884.00000000 43403740.00000000 9229.36132812   941873.18750000 750884.81250000 
0.12700    26670782.00000000 17192496.00000000 42816832.00000000 9012.74414062   922059.93750000 735095.06250000 
0.12800    26298842.00000000 16960964.00000000 42230000.00000000 8801.04785156   902535.00000000 719524.75000000 
0.12900    25927748.00000000 16729297.00000000 41643168.00000000 8594.13085938   883310.12500000 704188.18750000 
0.13000    25557626.00000000 16497787.00000000 41057604.00000000 8392.02246094   864374.06250000 689080.50000000 
0.13100    25188334.00000000 16266566.00000000 40472856.00000000 8194.56152344   845745.68750000 674212.00000000 
0.13200    24820502.00000000 16035774.00000000 39890216.00000000 8001.72949219   827416.06250000 659587.37500000 
0.13300    24454278.00000000 15805611.00000000 39309268.00000000 7813.45996094   809414.68750000 645200.81250000 
0.13400    24089844.00000000 15576163.00000000 38730812.00000000 7629.55517578   791713.81250000 631068.12500000 
0.13500    23727214.00000000 15347570.00000000 38155184.00000000 7450.09228516   774333.56250000 617180.87500000 
0.13600    23366948.00000000 15120083.00000000 37582256.00000000 7274.72509766   757277.43750000 603543.68750000 
0.13700    23008978.00000000 14893625.00000000 37012604.00000000 7103.53662109   740529.81250000 590160.06250000 
0.13800    22653422.00000000 14668546.00000000 36447104.00000000 6936.31250000   724096.06250000 577022.87500000 
0.13900    22300762.00000000 14444779.00000000 35884748.00000000 6772.93212891   707993.93750000 564141.62500000 
0.14000    21951074.00000000 14222690.00000000 35328020.00000000 6613.51708984   692192.37500000 551502.75000000 
0.14100    21604594.00000000 14002284.00000000 34774484.00000000 6457.64550781   676708.56250000 539123.93750000 
0.14200    21260902.00000000 13783536.00000000 34226620.00000000 6305.40039062   661538.68750000 526986.81250000 
0.14300    20921010.00000000 13566822.00000000 33683420.00000000 6156.56054688   646676.00000000 515098.90625000 
0.14400    20584314.00000000 13351915.00000000 33145604.00000000 6011.14501953   632107.62500000 503446.71875000 
0.14500    20251530.00000000 13139214.00000000 32613400.00000000 5868.94531250   617847.50000000 492040.31250000 
0.14600    19922134.00000000 12928622.00000000 32086882.00000000 5729.98828125   603882.00000000 480865.84375000 
0.14700    19596930.00000000 12720237.00000000 31566120.00000000 5594.01904297   590208.62500000 469930.46875000 
0.14800    19275322.00000000 12514148.00000000 31051340.00000000 5461.09130859   576817.93750000 459219.71875000 
0.14900    18957798.00000000 12310496.00000000 30542866.00000000 5331.02099609   563713.00000000 448736.56250000 
0.15000    18644564.00000000 12109247.00000000 30040538.00000000 5203.81152344   550878.25000000 438478.03125000 
0.15100    18335260.00000000 11910492.00000000 29544610.00000000 5079.36621094   538321.93750000 428432.68750000 
0.15200    18030410.00000000 11714349.00000000 29055614.00000000 4957.62744141   526033.25000000 418604.15625000 
0.15300    17729316.00000000 11520629.00000000 28573082.00000000 4838.48437500   513996.53125000 408981.34375000 
0.15400    17432784.00000000 11329537.00000000 28096786.00000000 4721.93359375   502216.78125000 399565.15625000 
0.15500    17140528.00000000 11141135.00000000 27627286.00000000 4607.90283203   490692.40625000 390348.96875000 
0.15600    16852322.00000000 10955350.00000000 27164740.00000000 4496.37890625   479405.46875000 381331.81250000 
0.15700    16568712.00000000 10772209.00000000 26709026.00000000 4387.31835938   468360.93750000 372506.09375000 
0.15800    16289291.00000000 10591804.00000000 26259998.00000000 4280.60302734   457547.40625000 363860.90625000 
0.15900    16014180.00000000 10414116.00000000 25817830.00000000 4176.28906250   446966.53125000 355403.81250000 
0.16000    15743098.00000000 10238925.00000000 25382306.00000000 4074.34521484   436606.43750000 347126.75000000 
0.16100    15476698.00000000 10066603.00000000 24953560.00000000 3974.68530273   426467.81250000 339024.53125000 
0.16200    15214308.00000000 9896883.00000000 24531660.00000000 3877.36865234   416541.18750000 331090.09375000 
0.16300    14956102.00000000 9729887.00000000 24116424.00000000 3782.30957031   406821.28125000 323324.12500000 
0.16400    14702235.00000000 9565351.00000000 23707950.00000000 3689.53369141   397310.62500000 315730.28125000 
0.16500    14452410.00000000 9403594.00000000 23305914.00000000 3598.98242188   387997.78125000 308287.00000000 
0.16600    14206784.00000000 9244558.00000000 22910434.00000000 3510.66699219   378884.37500000 301001.62500000 
0.16700    13965192.00000000 9087919.00000000 22521544.00000000 3424.58935547   369960.28125000 293873.06250000 
0.16800    13727536.00000000 8933893.00000000 22138954.00000000 3340.67749023   361223.21875000 286888.62500000 
0.16900    13493963.00000000 8782482.00000000 21762946.00000000 3259.00708008   352675.06250000 280058.68750000 
0.17000    13264196.00000000 8633455.00000000 21393006.00000000 3179.48217773   344306.78125000 273368.62500000 
