# SAXS profile: number of points = 501, q_min = 0, q_max = 0.5, delta_q = 0.001
#    q    intensity 
0.00000    162235760.00000000 101201920.00000000 256270480.00000000 110158.25781250 8455077.00000000 6677779.00000000 
0.00100    162202352.00000000 101180696.00000000 256215296.00000000 110128.48437500 8453011.00000000 6676159.00000000 
0.00200    162101568.00000000 101117200.00000000 256053248.00000000 110038.91406250 8446802.00000000 6671335.00000000 
0.00300    161930112.00000000 101010440.00000000 255781264.00000000 109890.10937500 8436536.00000000 6663242.00000000 
0.00400    161688368.00000000 100862072.00000000 255402128.00000000 109682.66406250 8422126.00000000 6651977.50000000 
0.00500    161376336.00000000 100670512.00000000 254915216.00000000 109415.93750000 8403681.00000000 6637447.50000000 
0.00600    160994976.00000000 100436504.00000000 254319984.00000000 109091.60937500 8381163.50000000 6619828.00000000 
0.00700    160548112.00000000 100162032.00000000 253618272.00000000 108709.12500000 8354643.50000000 6599045.00000000 
0.00800    160028656.00000000 99846824.00000000 252813104.00000000 108269.17968750 8324191.50000000 6575148.50000000 
0.00900    159446288.00000000 99491200.00000000 251902976.00000000 107773.88281250 8289793.50000000 6548138.00000000 
0.01000    158800496.00000000 99094744.00000000 250889856.00000000 107222.62500000 8251552.00000000 6518151.50000000 
0.01100    158089952.00000000 98659376.00000000 249776224.00000000 106616.97656250 8209488.50000000 6485152.00000000 
0.01200    157316944.00000000 98184176.00000000 248563856.00000000 105957.58593750 8163744.50000000 6449275.50000000 
0.01300    156480064.00000000 97670400.00000000 247249360.00000000 105247.14062500 8114291.00000000 6410511.50000000 
0.01400    155579408.00000000 97119056.00000000 245843056.00000000 104484.82812500 8061304.50000000 6368921.00000000 
0.01500    154620752.00000000 96530136.00000000 244340688.00000000 103672.71093750 8004802.50000000 6324591.50000000 
0.01600    153602976.00000000 95906360.00000000 242747792.00000000 102812.33593750 7944880.50000000 6277559.50000000 
0.01700    152527760.00000000 95246936.00000000 241063184.00000000 101905.37500000 7881661.00000000 6227964.50000000 
0.01800    151397744.00000000 94553368.00000000 239292336.00000000 100953.77343750 7815190.00000000 6175797.50000000 
0.01900    150214208.00000000 93826488.00000000 237436432.00000000 99957.70312500  7745653.50000000 6121247.00000000 
0.02000    148975408.00000000 93066480.00000000 235497104.00000000 98919.80468750  7673056.50000000 6064270.00000000 
0.02100    147687776.00000000 92276248.00000000 233477584.00000000 97841.46093750  7597630.50000000 6005058.50000000 
0.02200    146349744.00000000 91455160.00000000 231381840.00000000 96724.72656250  7519350.00000000 5943642.50000000 
0.02300    144965312.00000000 90604488.00000000 229211664.00000000 95571.25000000  7438471.50000000 5880080.00000000 
0.02400    143534720.00000000 89726296.00000000 226969984.00000000 94382.55468750  7355012.50000000 5814589.00000000 
0.02500    142060608.00000000 88821344.00000000 224658416.00000000 93161.10937500  7269138.00000000 5747176.50000000 
0.02600    140545840.00000000 87890128.00000000 222283360.00000000 91908.65625000  7180952.00000000 5677933.00000000 
0.02700    138990944.00000000 86933992.00000000 219844240.00000000 90627.64843750  7090619.50000000 5607006.00000000 
0.02800    137398368.00000000 85954840.00000000 217347392.00000000 89318.72656250  6998235.50000000 5534427.00000000 
0.02900    135770800.00000000 84953552.00000000 214792832.00000000 87984.94531250  6903964.00000000 5460376.00000000 
0.03000    134108312.00000000 83931328.00000000 212187232.00000000 86628.38281250  6807911.50000000 5384906.00000000 
0.03100    132415472.00000000 82890400.00000000 209531760.00000000 85250.71093750  6710197.50000000 5308121.50000000 
0.03200    130692856.00000000 81830288.00000000 206830144.00000000 83853.46875000  6610948.50000000 5230188.50000000 
0.03300    128943648.00000000 80753472.00000000 204084000.00000000 82439.87500000  6510373.00000000 5151127.00000000 
0.03400    127169600.00000000 79661640.00000000 201299504.00000000 81011.18750000  6408549.50000000 5071083.00000000 
0.03500    125372552.00000000 78554344.00000000 198478704.00000000 79569.68750000  6305604.50000000 4990173.00000000 
0.03600    123555072.00000000 77434136.00000000 195625536.00000000 78117.43750000  6201687.00000000 4908507.00000000 
0.03700    121718312.00000000 76303440.00000000 192741488.00000000 76655.64843750  6096937.50000000 4826172.50000000 
0.03800    119865688.00000000 75162160.00000000 189833712.00000000 75187.23437500  5991507.50000000 4743223.00000000 
0.03900    117999408.00000000 74011184.00000000 186902416.00000000 73712.95312500  5885473.00000000 4659880.50000000 
0.04000    116120416.00000000 72852528.00000000 183950608.00000000 72236.17187500  5778977.50000000 4576124.50000000 
0.04100    114231296.00000000 71687608.00000000 180982384.00000000 70757.86718750  5672216.50000000 4492105.00000000 
0.04200    112333968.00000000 70516160.00000000 178001840.00000000 69280.43750000  5565212.50000000 4407919.50000000 
0.04300    110431480.00000000 69341304.00000000 175011232.00000000 67804.11718750  5458136.50000000 4323656.50000000 
0.04400    108524240.00000000 68163264.00000000 172013712.00000000 66332.28906250  5351097.00000000 4239439.50000000 
0.04500    106615552.00000000 66983944.00000000 169014192.00000000 64866.26562500  5244223.00000000 4155279.75000000 
0.04600    104707264.00000000 65804028.00000000 166011248.00000000 63407.47265625  5137639.50000000 4071374.25000000 
0.04700    102800664.00000000 64624904.00000000 163012736.00000000 61957.16015625  5031429.50000000 3987730.75000000 
0.04800    100896864.00000000 63448136.00000000 160019040.00000000 60517.14453125  4925710.00000000 3904460.75000000 
0.04900    99000088.00000000 62273920.00000000 157034512.00000000 59088.99218750  4820627.00000000 3821664.00000000 
0.05000    97110672.00000000 61103704.00000000 154059280.00000000 57673.83203125  4716198.00000000 3739410.50000000 
0.05100    95229840.00000000 59939248.00000000 151098848.00000000 56273.17187500  4612560.50000000 3657745.50000000 
0.05200    93359320.00000000 58780408.00000000 148153552.00000000 54888.04296875  4509865.00000000 3576761.75000000 
0.05300    91501040.00000000 57628756.00000000 145228576.00000000 53519.89453125  4408083.00000000 3496548.75000000 
0.05400    89657392.00000000 56485644.00000000 142324432.00000000 52169.47656250  4307385.00000000 3417133.00000000 
0.05500    87829184.00000000 55351212.00000000 139443376.00000000 50838.10546875  4207830.00000000 3338631.25000000 
0.05600    86017128.00000000 54226600.00000000 136587984.00000000 49526.36328125  4109467.75000000 3261037.75000000 
0.05700    84223232.00000000 53112904.00000000 133762920.00000000 48235.87500000  4012399.50000000 3184457.25000000 
0.05800    82449272.00000000 52010648.00000000 130966416.00000000 46966.86328125  3916682.25000000 3108901.25000000 
0.05900    80695904.00000000 50920664.00000000 128200968.00000000 45720.39453125  3822381.75000000 3034473.75000000 
0.06000    78963960.00000000 49844268.00000000 125470224.00000000 44496.78515625  3729568.00000000 2961160.25000000 
0.06100    77256184.00000000 48781336.00000000 122774856.00000000 43296.87109375  3638251.00000000 2889067.75000000 
0.06200    75571536.00000000 47732936.00000000 120116360.00000000 42121.18359375  3548514.50000000 2818204.25000000 
0.06300    73911592.00000000 46699564.00000000 117497912.00000000 40970.71875000  3460392.50000000 2748569.25000000 
0.06400    72277976.00000000 45681580.00000000 114918504.00000000 39844.53515625  3373921.75000000 2680229.25000000 
0.06500    70671656.00000000 44679904.00000000 112380952.00000000 38744.22265625  3289145.25000000 2613235.25000000 
0.06600    69091816.00000000 43695000.00000000 109886504.00000000 37669.53515625  3206108.25000000 2547549.75000000 
0.06700    67540536.00000000 42727328.00000000 107435472.00000000 36620.89843750  3124782.75000000 2483245.25000000 
0.06800    66018528.00000000 41776812.00000000 105029664.00000000 35598.16796875  3045247.00000000 2420350.50000000 
0.06900    64525312.00000000 40844168.00000000 102670104.00000000 34601.89843750  2967507.75000000 2358822.50000000 
0.07000    63062196.00000000 39929684.00000000 100355792.00000000 33631.53125000  2891559.00000000 2298705.25000000 
0.07100    61629368.00000000 39033660.00000000 98089328.00000000 32687.00976562  2817416.50000000 2240025.50000000 
0.07200    60227028.00000000 38156384.00000000 95871552.00000000 31769.05273438  2745082.25000000 2182740.75000000 
0.07300    58856132.00000000 37298104.00000000 93701952.00000000 30876.89453125  2674587.75000000 2126883.50000000 
0.07400    57516168.00000000 36458692.00000000 91580256.00000000 30010.47070312  2605909.75000000 2072489.50000000 
0.07500    56207272.00000000 35638796.00000000 89508368.00000000 29169.41796875  2539033.50000000 2019475.87500000 
0.07600    54930168.00000000 34837808.00000000 87485864.00000000 28353.84375000  2473961.00000000 1967914.37500000 
0.07700    53684656.00000000 34056488.00000000 85513048.00000000 27563.19140625  2410708.75000000 1917736.75000000 
0.07800    52470844.00000000 33294618.00000000 83589744.00000000 26797.00390625  2349213.50000000 1868972.75000000 
0.07900    51288416.00000000 32551932.00000000 81714800.00000000 26055.20898438  2289485.75000000 1821579.87500000 
0.08000    50137256.00000000 31828844.00000000 79890424.00000000 25336.99609375  2231494.75000000 1775568.50000000 
0.08100    49017580.00000000 31124960.00000000 78114704.00000000 24642.14843750  2175213.25000000 1730914.12500000 
0.08200    47929048.00000000 30440332.00000000 76387784.00000000 23970.03710938  2120639.25000000 1687578.50000000 
0.08300    46871004.00000000 29774540.00000000 74709328.00000000 23320.26171875  2067742.00000000 1645564.37500000 
0.08400    45843700.00000000 29127604.00000000 73079120.00000000 22692.40820312  2016478.75000000 1604846.37500000 
0.08500    44847044.00000000 28499666.00000000 71495888.00000000 22085.75195312  1966817.37500000 1565388.25000000 
0.08600    43879576.00000000 27890254.00000000 69960880.00000000 21499.77148438  1918722.25000000 1527169.50000000 
0.08700    42942036.00000000 27298876.00000000 68470984.00000000 20933.91210938  1872172.62500000 1490166.62500000 
0.08800    42032920.00000000 26725592.00000000 67027264.00000000 20387.46875000  1827119.87500000 1454346.75000000 
0.08900    41152884.00000000 26169970.00000000 65628824.00000000 19859.94140625  1783537.50000000 1419683.62500000 
0.09000    40300624.00000000 25631954.00000000 64274588.00000000 19350.80468750  1741396.87500000 1386146.87500000 
0.09100    39475888.00000000 25111032.00000000 62963208.00000000 18859.28125000  1700623.62500000 1353723.25000000 
0.09200    38677588.00000000 24606878.00000000 61694460.00000000 18384.84570312  1661194.37500000 1322340.25000000 
0.09300    37906208.00000000 24119090.00000000 60467652.00000000 17926.82812500  1623076.87500000 1292005.37500000 
0.09400    37160408.00000000 23647394.00000000 59281352.00000000 17484.54296875  1586226.75000000 1262657.12500000 
0.09500    36439208.00000000 23191692.00000000 58134860.00000000 17057.53320312  1550597.75000000 1234296.00000000 
0.09600    35742708.00000000 22751150.00000000 57026696.00000000 16645.21679688  1516143.00000000 1206872.00000000 
0.09700    35070064.00000000 22325482.00000000 55956088.00000000 16246.77929688  1482832.37500000 1180326.12500000 
0.09800    34420540.00000000 21914318.00000000 54922928.00000000 15861.81640625  1450615.62500000 1154664.87500000 
0.09900    33793388.00000000 21517376.00000000 53925040.00000000 15489.67187500  1419468.25000000 1129840.87500000 
0.10000    33187514.00000000 21133962.00000000 52961472.00000000 15129.71777344  1389316.00000000 1105822.00000000 
0.10100    32603370.00000000 20763924.00000000 52031260.00000000 14781.47460938  1360136.00000000 1082578.50000000 
0.10200    32039252.00000000 20406818.00000000 51133360.00000000 14444.39941406  1331898.87500000 1060066.00000000 
0.10300    31494504.00000000 20062012.00000000 50266584.00000000 14117.90625000  1304538.37500000 1038260.31250000 
0.10400    30969154.00000000 19729230.00000000 49430156.00000000 13801.59375000  1278038.75000000 1017146.00000000 
0.10500    30461834.00000000 19408012.00000000 48622700.00000000 13494.85742188  1252348.00000000 996664.81250000 
0.10600    29971630.00000000 19097884.00000000 47842928.00000000 13197.19921875  1227426.50000000 976805.68750000 
0.10700    29498724.00000000 18798438.00000000 47090260.00000000 12908.31542969  1203244.75000000 957536.87500000 
0.10800    29041412.00000000 18509064.00000000 46362780.00000000 12627.50878906  1179771.50000000 938817.87500000 
0.10900    28599850.00000000 18229792.00000000 45660152.00000000 12354.54199219  1156950.00000000 920632.50000000 
0.11000    28172812.00000000 17959930.00000000 44981152.00000000 12089.06250000  1134773.75000000 902959.43750000 
0.11100    27759890.00000000 17698940.00000000 44324484.00000000 11830.58789062  1113183.25000000 885749.93750000 
0.11200    27360400.00000000 17446430.00000000 43689744.00000000 11578.70214844  1092156.00000000 868996.75000000 
0.11300    26973630.00000000 17202344.00000000 43074608.00000000 11333.12109375  1071679.00000000 852676.81250000 
0.11400    26598874.00000000 16965812.00000000 42479012.00000000 11093.48535156  1051706.12500000 836767.18750000 
0.11500    26235768.00000000 16736875.00000000 41902560.00000000 10859.56445312  1032212.18750000 821228.75000000 
0.11600    25883388.00000000 16514722.00000000 41343112.00000000 10631.06640625  1013173.00000000 806064.12500000 
0.11700    25541248.00000000 16299395.00000000 40800012.00000000 10407.69335938  994560.62500000 791233.31250000 
0.11800    25208938.00000000 16090220.00000000 40272768.00000000 10189.12792969  976343.68750000 776731.18750000 
0.11900    24885690.00000000 15886953.00000000 39760116.00000000 9975.12988281   958515.93750000 762527.18750000 
0.12000    24570906.00000000 15689338.00000000 39260972.00000000 9765.54199219   941037.93750000 748611.25000000 
0.12100    24264460.00000000 15496969.00000000 38775292.00000000 9560.22851562   923909.00000000 734972.56250000 
0.12200    23965604.00000000 15309581.00000000 38301748.00000000 9359.01660156   907094.93750000 721586.25000000 
0.12300    23673694.00000000 15126656.00000000 37839680.00000000 9161.63183594   890583.12500000 708440.18750000 
0.12400    23388476.00000000 14948032.00000000 37388292.00000000 8967.86328125   874357.12500000 695523.37500000 
0.12500    23109506.00000000 14773448.00000000 36946840.00000000 8777.75683594   858394.62500000 682811.06250000 
0.12600    22836274.00000000 14602735.00000000 36514704.00000000 8591.09179688   842694.68750000 670318.37500000 
0.12700    22568364.00000000 14435572.00000000 36091436.00000000 8407.83593750   827236.00000000 658010.87500000 
0.12800    22305600.00000000 14271474.00000000 35676048.00000000 8227.67773438   812009.25000000 645897.18750000 
0.12900    22047240.00000000 14110438.00000000 35268068.00000000 8050.80517578   797006.25000000 633952.68750000 
0.13000    21793150.00000000 13952133.00000000 34866904.00000000 7876.96386719   782212.06250000 622175.93750000 
0.13100    21542918.00000000 13796468.00000000 34472216.00000000 7706.15039062   767615.06250000 610557.00000000 
0.13200    21296678.00000000 13643065.00000000 34083124.00000000 7538.24707031   753210.18750000 599095.93750000 
0.13300    21053340.00000000 13491977.00000000 33699776.00000000 7373.33789062   739005.93750000 587780.43750000 
0.13400    20813298.00000000 13342680.00000000 33321100.00000000 7211.21533203   724966.25000000 576608.87500000 
0.13500    20576054.00000000 13195394.00000000 32946928.00000000 7052.00537109   711106.62500000 565576.87500000 
0.13600    20341384.00000000 13049639.00000000 32576868.00000000 6895.54443359   697417.75000000 554673.75000000 
0.13700    20108958.00000000 12905434.00000000 32210564.00000000 6741.82519531   683895.75000000 543909.00000000 
0.13800    19878748.00000000 12762574.00000000 31847858.00000000 6590.95214844   670539.93750000 533272.12500000 
0.13900    19650556.00000000 12621026.00000000 31488200.00000000 6442.72363281   657340.62500000 522761.71875000 
0.14000    19424204.00000000 12480578.00000000 31131460.00000000 6297.28564453   644303.37500000 512377.90625000 
0.14100    19199368.00000000 12341144.00000000 30777444.00000000 6154.53808594   631420.93750000 502115.90625000 
0.14200    18976210.00000000 12202634.00000000 30425546.00000000 6014.50146484   618699.43750000 491973.59375000 
0.14300    18754320.00000000 12065027.00000000 30075970.00000000 5877.15380859   606131.25000000 481960.53125000 
0.14400    18533720.00000000 11928148.00000000 29728216.00000000 5742.50488281   593715.18750000 472060.84375000 
0.14500    18314404.00000000 11791973.00000000 29382518.00000000 5610.54931641   581460.81250000 462289.56250000 
0.14600    18096052.00000000 11656446.00000000 29038384.00000000 5481.31542969   569364.31250000 452638.65625000 
0.14700    17878796.00000000 11521511.00000000 28695708.00000000 5354.72753906   557420.50000000 443113.15625000 
0.14800    17662598.00000000 11387161.00000000 28354700.00000000 5230.84423828   545636.18750000 433709.31250000 
0.14900    17447216.00000000 11253261.00000000 28014900.00000000 5109.50244141   534006.68750000 424427.93750000 
0.15000    17232674.00000000 11119826.00000000 27676438.00000000 4990.93750000   522538.53125000 415273.15625000 
0.15100    17019192.00000000 10986788.00000000 27339274.00000000 4874.92626953   511234.81250000 406245.75000000 
0.15200    16806298.00000000 10854283.00000000 27003278.00000000 4761.60791016   500094.96875000 397347.93750000 
0.15300    16594507.00000000 10722114.00000000 26668688.00000000 4650.93310547   489114.40625000 388572.62500000 
0.15400    16383275.00000000 10590442.00000000 26334640.00000000 4542.81982422   478300.28125000 379932.53125000 
0.15500    16173049.00000000 10459082.00000000 26002238.00000000 4437.27636719   467656.59375000 371420.43750000 
0.15600    15963418.00000000 10328114.00000000 25670720.00000000 4334.31689453   457179.71875000 363037.62500000 
0.15700    15754807.00000000 10197561.00000000 25340650.00000000 4233.90087891   446872.96875000 354796.06250000 
0.15800    15547054.00000000 10067515.00000000 25011454.00000000 4135.93261719   436732.93750000 346680.68750000 
0.15900    15340025.00000000 9937775.00000000 24683546.00000000 4040.52294922   426766.93750000 338703.50000000 
0.16000    15134034.00000000 9808452.00000000 24357132.00000000 3947.52685547   416972.43750000 330860.50000000 
0.16100    14928932.00000000 9679668.00000000 24032100.00000000 3856.98266602   407355.84375000 323158.18750000 
0.16200    14724851.00000000 9551337.00000000 23708292.00000000 3768.81396484   397913.09375000 315590.31250000 
0.16300    14521751.00000000 9423556.00000000 23385860.00000000 3682.97607422   388642.68750000 308162.81250000 
0.16400    14319723.00000000 9296188.00000000 23064988.00000000 3599.44335938   379549.75000000 300871.90625000 
0.16500    14118818.00000000 9169424.00000000 22745778.00000000 3518.20190430   370632.37500000 293721.15625000 
0.16600    13919132.00000000 9043290.00000000 22428070.00000000 3439.14453125   361889.65625000 286709.37500000 
0.16700    13720474.00000000 8917713.00000000 22112074.00000000 3362.26562500   353322.46875000 279831.43750000 
0.16800    13523033.00000000 8792833.00000000 21798024.00000000 3287.52905273   344927.12500000 273095.93750000 
0.16900    13327022.00000000 8668522.00000000 21485676.00000000 3214.87524414   336713.21875000 266499.65625000 
0.17000    13132216.00000000 8545036.00000000 21175318.00000000 3144.24511719   328667.90625000 260039.71875000 
