# SAXS profile: number of points = 501, q_min = 0, q_max = 0.5, delta_q = 0.001
#    q    intensity 
0.00000    162233952.00000000 101201928.00000000 256271136.00000000 104078.58593750 8218413.50000000 6490895.00000000 
0.00100    162201344.00000000 101179592.00000000 256216784.00000000 104049.82812500 8216347.00000000 6489250.50000000 
0.00200    162100032.00000000 101114560.00000000 256050992.00000000 103963.13281250 8210210.00000000 6484408.50000000 
0.00300    161928464.00000000 101005752.00000000 255775216.00000000 103819.04687500 8199957.50000000 6476351.00000000 
0.00400    161682240.00000000 100855120.00000000 255388928.00000000 103617.28125000 8185630.00000000 6465077.50000000 
0.00500    161365872.00000000 100660352.00000000 254894512.00000000 103359.35937500 8167240.00000000 6450621.00000000 
0.00600    160980288.00000000 100421408.00000000 254288208.00000000 103045.05468750 8144833.00000000 6432986.00000000 
0.00700    160527248.00000000 100142344.00000000 253576752.00000000 102674.50000000 8118462.00000000 6412167.50000000 
0.00800    160001600.00000000 99820288.00000000 252759216.00000000 102248.64062500 8088161.50000000 6388332.50000000 
0.00900    159413296.00000000 99458552.00000000 251835824.00000000 101769.72656250 8053949.50000000 6361428.00000000 
0.01000    158762064.00000000 99055592.00000000 250808736.00000000 101236.64843750 8015953.50000000 6331482.00000000 
0.01100    158044720.00000000 98612056.00000000 249678544.00000000 100651.57812500 7974136.00000000 6298619.00000000 
0.01200    157262688.00000000 98128120.00000000 248448496.00000000 100015.16406250 7928689.00000000 6262814.00000000 
0.01300    156415792.00000000 97605840.00000000 247119488.00000000 99328.73437500  7879633.50000000 6224175.50000000 
0.01400    155508816.00000000 97044080.00000000 245693872.00000000 98593.57812500  7827081.00000000 6182753.00000000 
0.01500    154541296.00000000 96446584.00000000 244172416.00000000 97812.15625000  7771056.50000000 6138680.50000000 
0.01600    153514720.00000000 95813216.00000000 242559616.00000000 96982.93750000  7711713.50000000 6091934.00000000 
0.01700    152431840.00000000 95144136.00000000 240856976.00000000 96110.51562500  7649095.00000000 6042673.50000000 
0.01800    151293760.00000000 94440120.00000000 239065376.00000000 95195.43750000  7583350.50000000 5990930.00000000 
0.01900    150101312.00000000 93702504.00000000 237191376.00000000 94238.81250000  7514647.50000000 5936798.00000000 
0.02000    148855040.00000000 92932696.00000000 235232016.00000000 93242.82812500  7442943.00000000 5880382.50000000 
0.02100    147559840.00000000 92131608.00000000 233195488.00000000 92210.02343750  7368517.00000000 5821688.00000000 
0.02200    146216528.00000000 91301184.00000000 231081600.00000000 91140.24218750  7291353.00000000 5760962.50000000 
0.02300    144825600.00000000 90441792.00000000 228892928.00000000 90037.30468750  7211704.00000000 5698191.50000000 
0.02400    143388944.00000000 89553176.00000000 226634992.00000000 88902.43750000  7129556.00000000 5633549.00000000 
0.02500    141911888.00000000 88638968.00000000 224309808.00000000 87736.91406250  7045204.00000000 5567040.00000000 
0.02600    140392608.00000000 87699264.00000000 221921392.00000000 86544.16406250  6958639.00000000 5498922.50000000 
0.02700    138834928.00000000 86735712.00000000 219470704.00000000 85324.53125000  6870037.00000000 5429139.50000000 
0.02800    137241968.00000000 85748776.00000000 216962624.00000000 84081.61718750  6779587.50000000 5357827.00000000 
0.02900    135612720.00000000 84741000.00000000 214401568.00000000 82816.46093750  6687363.00000000 5285166.00000000 
0.03000    133953240.00000000 83713824.00000000 211789664.00000000 81530.84375000  6593468.00000000 5211182.50000000 
0.03100    132263792.00000000 82667504.00000000 209130208.00000000 80227.21093750  6498108.50000000 5136070.00000000 
0.03200    130546048.00000000 81603840.00000000 206426800.00000000 78908.14062500  6401425.50000000 5059886.50000000 
0.03300    128803608.00000000 80523784.00000000 203682496.00000000 77574.46093750  6303518.00000000 4982748.50000000 
0.03400    127036928.00000000 79428992.00000000 200900416.00000000 76229.13281250  6204551.50000000 4904719.00000000 
0.03500    125249448.00000000 78322376.00000000 198087088.00000000 74874.05468750  6104673.00000000 4825980.50000000 
0.03600    123442928.00000000 77202824.00000000 195244960.00000000 73510.40625000  6003956.50000000 4746637.00000000 
0.03700    121619976.00000000 76073176.00000000 192373904.00000000 72140.65625000  5902591.00000000 4666724.00000000 
0.03800    119783528.00000000 74934760.00000000 189479920.00000000 70767.07812500  5800672.50000000 4586448.50000000 
0.03900    117934056.00000000 73788760.00000000 186568208.00000000 69391.09375000  5698351.50000000 4505841.50000000 
0.04000    116074312.00000000 72634648.00000000 183638864.00000000 68014.29687500  5595813.00000000 4424918.00000000 
0.04100    114206384.00000000 71475952.00000000 180696464.00000000 66638.59375000  5493049.50000000 4343899.50000000 
0.04200    112333976.00000000 70312904.00000000 177745648.00000000 65265.48046875  5390283.00000000 4262866.50000000 
0.04300    110456120.00000000 69147336.00000000 174786848.00000000 63897.51953125  5287617.00000000 4181880.00000000 
0.04400    108576976.00000000 67981216.00000000 171825216.00000000 62534.90625000  5185136.50000000 4101068.00000000 
0.04500    106698024.00000000 66814420.00000000 168864352.00000000 61179.93750000  5082988.00000000 4020500.50000000 
0.04600    104820984.00000000 65648672.00000000 165906592.00000000 59834.31250000  4981256.00000000 3940267.25000000 
0.04700    102947968.00000000 64485340.00000000 162953072.00000000 58499.20312500  4880066.00000000 3860450.50000000 
0.04800    101081056.00000000 63325404.00000000 160008720.00000000 57175.84375000  4779503.50000000 3781131.00000000 
0.04900    99221144.00000000 62169508.00000000 157077024.00000000 55865.06640625  4679693.00000000 3702351.75000000 
0.05000    97370936.00000000 61019084.00000000 154159200.00000000 54569.11718750  4580700.00000000 3624259.75000000 
0.05100    95531184.00000000 59875480.00000000 151258448.00000000 53288.26953125  4482575.50000000 3546851.00000000 
0.05200    93704488.00000000 58739084.00000000 148376032.00000000 52023.86328125  4385484.00000000 3470224.50000000 
0.05300    91891688.00000000 57611480.00000000 145515792.00000000 50776.78906250  4289472.00000000 3394453.00000000 
0.05400    90094120.00000000 56493116.00000000 142681680.00000000 49548.02343750  4194599.50000000 3319562.75000000 
0.05500    88313728.00000000 55385380.00000000 139872096.00000000 48338.65234375  4100967.75000000 3245644.75000000 
0.05600    86551296.00000000 54288000.00000000 137091952.00000000 47148.98046875  4008585.00000000 3172715.75000000 
0.05700    84808912.00000000 53203076.00000000 134341552.00000000 45979.81250000  3917560.75000000 3100862.25000000 
0.05800    83086208.00000000 52130796.00000000 131623472.00000000 44831.97265625  3827904.75000000 3030103.50000000 
0.05900    81386200.00000000 51071756.00000000 128939672.00000000 43705.74218750  3739726.50000000 2960479.00000000 
0.06000    79709120.00000000 50026716.00000000 126292040.00000000 42601.23828125  3653053.00000000 2892045.50000000 
0.06100    78055392.00000000 48996644.00000000 123681424.00000000 41520.03906250  3567887.00000000 2824790.00000000 
0.06200    76427216.00000000 47981684.00000000 121110512.00000000 40461.40234375  3484310.00000000 2758775.75000000 
0.06300    74824768.00000000 46982844.00000000 118579824.00000000 39426.07031250  3402346.25000000 2694042.50000000 
0.06400    73247328.00000000 45999824.00000000 116090184.00000000 38414.02734375  3322009.75000000 2630589.50000000 
0.06500    71698256.00000000 45033596.00000000 113643112.00000000 37425.29687500  3243317.75000000 2568442.25000000 
0.06600    70176368.00000000 44084576.00000000 111239888.00000000 36460.44140625  3166299.50000000 2507619.00000000 
0.06700    68683280.00000000 43153104.00000000 108880064.00000000 35519.07812500  3090971.00000000 2448109.00000000 
0.06800    67218136.00000000 42239524.00000000 106566800.00000000 34600.96875000  3017345.25000000 2389940.50000000 
0.06900    65783724.00000000 41343760.00000000 104299312.00000000 33706.96875000  2945414.25000000 2333141.75000000 
0.07000    64377640.00000000 40466692.00000000 102078392.00000000 32836.08203125  2875208.50000000 2277658.75000000 
0.07100    63001280.00000000 39607992.00000000 99904432.00000000 31988.13867188  2806701.50000000 2223533.75000000 
0.07200    61655564.00000000 38767760.00000000 97777288.00000000 31163.23437500  2739898.00000000 2170737.50000000 
0.07300    60340196.00000000 37946688.00000000 95698384.00000000 30360.97070312  2674791.75000000 2119301.75000000 
0.07400    59055216.00000000 37144220.00000000 93667456.00000000 29581.13281250  2611342.25000000 2069182.75000000 
0.07500    57800072.00000000 36360908.00000000 91684696.00000000 28823.38476562  2549582.75000000 2020389.62500000 
0.07600    56575872.00000000 35596364.00000000 89749560.00000000 28087.17578125  2489487.00000000 1972882.75000000 
0.07700    55381740.00000000 34850484.00000000 87863008.00000000 27372.23046875  2431006.50000000 1926688.87500000 
0.07800    54217912.00000000 34123708.00000000 86024160.00000000 26677.96679688  2374155.50000000 1881740.25000000 
0.07900    53084004.00000000 33416194.00000000 84231456.00000000 26004.27148438  2318869.75000000 1838060.37500000 
0.08000    51980024.00000000 32727008.00000000 82487032.00000000 25350.43750000  2265131.75000000 1795604.25000000 
0.08100    50906028.00000000 32056312.00000000 80789712.00000000 24715.79296875  2212940.50000000 1754359.75000000 
0.08200    49860760.00000000 31403992.00000000 79137888.00000000 24100.16406250  2162247.50000000 1714314.87500000 
0.08300    48845088.00000000 30769802.00000000 77532032.00000000 23502.93945312  2112995.50000000 1675410.75000000 
0.08400    47857760.00000000 30153476.00000000 75972312.00000000 22923.43945312  2065210.50000000 1637635.75000000 
0.08500    46898484.00000000 29554966.00000000 74456192.00000000 22361.20703125  2018830.25000000 1600986.87500000 
0.08600    45966740.00000000 28973592.00000000 72984504.00000000 21816.01562500  1973789.62500000 1565408.75000000 
0.08700    45062308.00000000 28409392.00000000 71555792.00000000 21286.66992188  1930077.37500000 1530867.62500000 
0.08800    44185048.00000000 27862184.00000000 70170128.00000000 20773.24414062  1887647.37500000 1497355.12500000 
0.08900    43333608.00000000 27331412.00000000 68825144.00000000 20274.84179688  1846495.62500000 1464835.75000000 
0.09000    42507888.00000000 26816576.00000000 67521016.00000000 19791.07617188  1806541.37500000 1433256.37500000 
0.09100    41707152.00000000 26317576.00000000 66257176.00000000 19321.32226562  1767765.37500000 1402631.50000000 
0.09200    40930712.00000000 25834132.00000000 65031440.00000000 18864.98242188  1730115.25000000 1372885.87500000 
0.09300    40178308.00000000 25365600.00000000 63843632.00000000 18421.71875000  1693560.12500000 1344020.12500000 
0.09400    39449340.00000000 24911508.00000000 62693104.00000000 17991.00000000  1658059.87500000 1315975.25000000 
0.09500    38742540.00000000 24471864.00000000 61577992.00000000 17572.26953125  1623572.75000000 1288736.00000000 
0.09600    38057608.00000000 24045944.00000000 60497860.00000000 17165.15820312  1590081.62500000 1262277.37500000 
0.09700    37394116.00000000 23633532.00000000 59451632.00000000 16768.99609375  1557523.75000000 1236559.00000000 
0.09800    36751868.00000000 23233996.00000000 58437816.00000000 16383.57226562  1525872.37500000 1211558.37500000 
0.09900    36128688.00000000 22847366.00000000 57456020.00000000 16008.20507812  1495082.25000000 1187249.75000000 
0.10000    35524800.00000000 22472516.00000000 56504684.00000000 15642.64746094  1465115.87500000 1163584.25000000 
0.10100    34939568.00000000 22109300.00000000 55582800.00000000 15286.22949219  1435958.75000000 1140557.50000000 
0.10200    34372772.00000000 21757804.00000000 54689520.00000000 14938.98242188  1407557.50000000 1118118.00000000 
0.10300    33822452.00000000 21417040.00000000 53823592.00000000 14600.29589844  1379876.87500000 1096256.87500000 
0.10400    33289396.00000000 21086658.00000000 52983916.00000000 14269.68847656  1352897.62500000 1074951.00000000 
0.10500    32771954.00000000 20766376.00000000 52169360.00000000 13947.23437500  1326590.25000000 1054171.50000000 
0.10600    32269764.00000000 20455742.00000000 51378780.00000000 13632.08300781  1300904.50000000 1033878.00000000 
0.10700    31781988.00000000 20154222.00000000 50612124.00000000 13324.43945312  1275831.00000000 1014073.56250000 
0.10800    31308194.00000000 19861580.00000000 49867212.00000000 13023.61132812  1251333.12500000 994708.81250000 
0.10900    30847896.00000000 19577340.00000000 49143644.00000000 12729.71191406  1227381.50000000 975787.75000000 
0.11000    30400258.00000000 19301146.00000000 48440000.00000000 12442.21191406  1203949.00000000 957267.81250000 
0.11100    29964650.00000000 19032504.00000000 47755708.00000000 12161.02539062  1181019.87500000 939150.62500000 
0.11200    29540622.00000000 18771266.00000000 47089872.00000000 11885.76757812  1158577.25000000 921397.75000000 
0.11300    29127630.00000000 18516920.00000000 46441456.00000000 11616.40332031  1136574.12500000 904004.31250000 
0.11400    28725216.00000000 18268868.00000000 45809332.00000000 11352.80859375  1115004.25000000 886950.06250000 
0.11500    28332394.00000000 18027158.00000000 45192656.00000000 11094.53808594  1093846.00000000 870214.25000000 
0.11600    27949110.00000000 17791266.00000000 44591176.00000000 10841.68066406  1073094.37500000 853796.81250000 
0.11700    27574548.00000000 17561082.00000000 44003892.00000000 10594.04785156  1052706.37500000 837668.37500000 
0.11800    27208236.00000000 17335832.00000000 43429320.00000000 10351.37792969  1032689.81250000 821817.00000000 
0.11900    26849936.00000000 17115716.00000000 42867080.00000000 10113.67382812  1013009.43750000 806231.18750000 
0.12000    26498810.00000000 16899964.00000000 42316500.00000000 9880.83007812   993658.75000000 790905.06250000 
0.12100    26154898.00000000 16688755.00000000 41777188.00000000 9652.65722656   974635.68750000 775829.31250000 
0.12200    25817644.00000000 16481489.00000000 41248072.00000000 9429.03222656   955904.00000000 760994.25000000 
0.12300    25486254.00000000 16277929.00000000 40728536.00000000 9210.03808594   937478.06250000 746380.81250000 
0.12400    25160722.00000000 16077981.00000000 40217776.00000000 8995.46777344   919326.43750000 731991.56250000 
0.12500    24840694.00000000 15881358.00000000 39715652.00000000 8785.31933594   901452.12500000 717806.50000000 
0.12600    24525730.00000000 15687742.00000000 39221696.00000000 8579.39550781   883853.06250000 703834.00000000 
0.12700    24215366.00000000 15497013.00000000 38734800.00000000 8377.72851562   866504.43750000 690060.68750000 
0.12800    23909400.00000000 15308905.00000000 38254808.00000000 8180.27001953   849405.06250000 676473.87500000 
0.12900    23607692.00000000 15123306.00000000 37781296.00000000 7986.97753906   832551.31250000 663082.00000000 
0.13000    23309728.00000000 14940030.00000000 37313740.00000000 7797.77880859   815936.00000000 649872.43750000 
0.13100    23015268.00000000 14758665.00000000 36851512.00000000 7612.56347656   799545.18750000 636847.12500000 
0.13200    22724132.00000000 14579422.00000000 36394064.00000000 7431.26953125   783396.93750000 623995.56250000 
0.13300    22436260.00000000 14401934.00000000 35942128.00000000 7254.01660156   767469.43750000 611314.12500000 
0.13400    22151314.00000000 14226182.00000000 35494040.00000000 7080.66015625   751764.06250000 598809.81250000 
0.13500    21869070.00000000 14051908.00000000 35050172.00000000 6911.11230469   736266.87500000 586468.12500000 
0.13600    21589354.00000000 13878987.00000000 34610088.00000000 6745.37744141   720993.43750000 574294.81250000 
0.13700    21311776.00000000 13707465.00000000 34173472.00000000 6583.30029297   705928.62500000 562279.62500000 
0.13800    21036622.00000000 13537234.00000000 33740400.00000000 6424.98925781   691075.56250000 550436.25000000 
0.13900    20763612.00000000 13367932.00000000 33310128.00000000 6270.34960938   676429.43750000 538752.50000000 
0.14000    20492330.00000000 13199733.00000000 32882908.00000000 6119.32226562   661995.25000000 527228.75000000 
0.14100    20223102.00000000 13032611.00000000 32458308.00000000 5971.87255859   647766.00000000 515866.71875000 
0.14200    19955434.00000000 12866362.00000000 32036560.00000000 5827.88476562   633739.18750000 504665.53125000 
0.14300    19689720.00000000 12700959.00000000 31616682.00000000 5687.40283203   619915.68750000 493620.18750000 
0.14400    19425346.00000000 12536325.00000000 31199394.00000000 5550.28515625   606295.81250000 482729.46875000 
0.14500    19162418.00000000 12372516.00000000 30784346.00000000 5416.50000000   592878.37500000 472002.62500000 
0.14600    18901088.00000000 12209318.00000000 30371018.00000000 5286.04052734   579665.12500000 461429.31250000 
0.14700    18641276.00000000 12046970.00000000 29960042.00000000 5158.79931641   566651.31250000 451020.81250000 
0.14800    18382778.00000000 11885212.00000000 29550926.00000000 5034.71972656   553836.06250000 440765.96875000 
0.14900    18125388.00000000 11724168.00000000 29143782.00000000 4913.72021484   541220.31250000 430664.15625000 
0.15000    17869702.00000000 11563735.00000000 28738314.00000000 4795.76708984   528804.75000000 420722.34375000 
0.15100    17615014.00000000 11403859.00000000 28334962.00000000 4680.83496094   516585.56250000 410937.43750000 
0.15200    17361952.00000000 11244820.00000000 27933486.00000000 4568.77783203   504569.87500000 401311.78125000 
0.15300    17110102.00000000 11086434.00000000 27533714.00000000 4459.59179688   492753.78125000 391836.96875000 
0.15400    16859496.00000000 10928593.00000000 27135818.00000000 4353.11474609   481129.00000000 382523.65625000 
0.15500    16610350.00000000 10771422.00000000 26739964.00000000 4249.42089844   469699.90625000 373363.62500000 
0.15600    16362591.00000000 10614962.00000000 26345960.00000000 4148.32763672   458469.50000000 364357.90625000 
0.15700    16116141.00000000 10459266.00000000 25954368.00000000 4049.82983398   447433.71875000 355509.18750000 
0.15800    15871024.00000000 10304273.00000000 25564278.00000000 3953.77270508   436587.68750000 346813.40625000 
0.15900    15627532.00000000 10149956.00000000 25176612.00000000 3860.23193359   425944.25000000 338275.15625000 
0.16000    15385397.00000000 9996473.00000000 24790954.00000000 3769.00512695   415486.84375000 329884.75000000 
0.16100    15144864.00000000 9843862.00000000 24407654.00000000 3680.14282227   405223.43750000 321653.56250000 
0.16200    14905843.00000000 9691993.00000000 24026650.00000000 3593.49267578   395150.53125000 313570.46875000 
0.16300    14668594.00000000 9541075.00000000 23648074.00000000 3509.00122070   385265.09375000 305640.12500000 
0.16400    14432821.00000000 9391021.00000000 23271800.00000000 3426.63647461   375567.90625000 297860.65625000 
0.16500    14198823.00000000 9242003.00000000 22898190.00000000 3346.32836914   366055.18750000 290229.93750000 
0.16600    13966691.00000000 9093936.00000000 22527358.00000000 3267.99902344   356728.37500000 282748.50000000 
0.16700    13736174.00000000 8946824.00000000 22159018.00000000 3191.59960938   347587.62500000 275415.68750000 
0.16800    13507538.00000000 8800786.00000000 21793478.00000000 3117.05346680   338624.59375000 268223.90625000 
0.16900    13281016.00000000 8655814.00000000 21431216.00000000 3044.38671875   329846.78125000 261184.59375000 
0.17000    13056380.00000000 8512005.00000000 21071692.00000000 2973.45263672   321246.90625000 254286.92187500 
