# SAXS profile: number of points = 501, q_min = 0, q_max = 0.5, delta_q = 0.001
#    q    intensity 
0.00000    162233152.00000000 101202152.00000000 256269760.00000000 118251.38281250 8760114.00000000 6918743.50000000 
0.00100    162189808.00000000 101172928.00000000 256196400.00000000 118207.52343750 8757196.00000000 6916444.00000000 
0.00200    162052800.00000000 101085328.00000000 255975344.00000000 118076.61718750 8748470.00000000 6909572.00000000 
0.00300    161819872.00000000 100941000.00000000 255605856.00000000 117860.05468750 8733974.00000000 6898183.50000000 
0.00400    161491504.00000000 100738488.00000000 255089920.00000000 117556.50781250 8713732.00000000 6882260.00000000 
0.00500    161067568.00000000 100478832.00000000 254427168.00000000 117167.51562500 8687781.00000000 6861844.00000000 
0.00600    160552448.00000000 100160792.00000000 253620576.00000000 116693.73437500 8656104.00000000 6837011.00000000 
0.00700    159940208.00000000 99789624.00000000 252672272.00000000 116137.94531250 8618810.00000000 6807820.00000000 
0.00800    159243984.00000000 99362400.00000000 251581008.00000000 115499.57812500 8576081.00000000 6774242.50000000 
0.00900    158460144.00000000 98882400.00000000 250352368.00000000 114780.64843750 8527973.00000000 6736415.00000000 
0.01000    157591808.00000000 98346840.00000000 248985632.00000000 113983.14062500 8474445.00000000 6694490.00000000 
0.01100    156637088.00000000 97759264.00000000 247486976.00000000 113109.89843750 8415832.00000000 6648456.00000000 
0.01200    155595392.00000000 97119672.00000000 245856880.00000000 112161.71875000 8352214.50000000 6598489.50000000 
0.01300    154474944.00000000 96429800.00000000 244099776.00000000 111141.14843750 8283655.50000000 6544615.00000000 
0.01400    153275744.00000000 95692136.00000000 242219072.00000000 110051.07812500 8210309.00000000 6487034.00000000 
0.01500    151999744.00000000 94908376.00000000 240217840.00000000 108893.82812500 8132416.00000000 6425846.50000000 
0.01600    150649888.00000000 94078480.00000000 238100128.00000000 107671.69531250 8050064.00000000 6361207.00000000 
0.01700    149227744.00000000 93203616.00000000 235869312.00000000 106389.03906250 7963511.00000000 6293170.00000000 
0.01800    147738576.00000000 92287472.00000000 233532144.00000000 105047.53125000 7872836.00000000 6221984.00000000 
0.01900    146182304.00000000 91329632.00000000 231089056.00000000 103650.28906250 7778349.50000000 6147735.50000000 
0.02000    144562080.00000000 90332568.00000000 228548928.00000000 102200.96875000 7680148.00000000 6070585.50000000 
0.02100    142882816.00000000 89299592.00000000 225913728.00000000 100703.35937500 7578521.50000000 5990726.00000000 
0.02200    141148416.00000000 88231488.00000000 223190752.00000000 99159.16406250  7473607.50000000 5908282.00000000 
0.02300    139358224.00000000 87129992.00000000 220381456.00000000 97574.32031250  7365668.00000000 5823473.00000000 
0.02400    137518720.00000000 85996176.00000000 217496464.00000000 95949.70312500  7254904.00000000 5736392.50000000 
0.02500    135632896.00000000 84834064.00000000 214534304.00000000 94290.30468750  7141569.50000000 5647304.50000000 
0.02600    133703608.00000000 83644808.00000000 211505088.00000000 92599.32812500  7025854.00000000 5556332.50000000 
0.02700    131733664.00000000 82431048.00000000 208411424.00000000 90880.45312500  6907989.50000000 5463668.00000000 
0.02800    129727992.00000000 81193936.00000000 205261600.00000000 89137.11718750  6788199.00000000 5369502.00000000 
0.02900    127689256.00000000 79936224.00000000 202059184.00000000 87372.73437500  6666730.00000000 5273990.50000000 
0.03000    125621280.00000000 78660360.00000000 198809840.00000000 85591.39062500  6543754.00000000 5177273.50000000 
0.03100    123526424.00000000 77367432.00000000 195519696.00000000 83795.74218750  6419615.00000000 5079570.50000000 
0.03200    121409768.00000000 76060552.00000000 192192336.00000000 81989.85937500  6294404.00000000 4981075.50000000 
0.03300    119274632.00000000 74742776.00000000 188836704.00000000 80177.27343750  6168475.00000000 4881981.00000000 
0.03400    117122976.00000000 73414680.00000000 185455504.00000000 78360.37500000  6041915.00000000 4782395.50000000 
0.03500    114960120.00000000 72078312.00000000 182054736.00000000 76543.58593750  5915040.50000000 4682526.00000000 
0.03600    112788000.00000000 70736112.00000000 178638928.00000000 74729.06250000  5787970.50000000 4582513.50000000 
0.03700    110610376.00000000 69389632.00000000 175214752.00000000 72920.14062500  5660980.00000000 4482509.00000000 
0.03800    108431072.00000000 68042000.00000000 171786976.00000000 71120.54687500  5534238.50000000 4382736.00000000 
0.03900    106252920.00000000 66693484.00000000 168360224.00000000 69332.25000000  5407949.00000000 4283242.50000000 
0.04000    104079408.00000000 65347876.00000000 164938144.00000000 67558.71093750  5282316.00000000 4184269.75000000 
0.04100    101912232.00000000 64006220.00000000 161529792.00000000 65801.80468750  5157536.50000000 4085923.50000000 
0.04200    99756296.00000000 62670480.00000000 158134816.00000000 64063.73046875  5033671.00000000 3988357.00000000 
0.04300    97614016.00000000 61342112.00000000 154760704.00000000 62348.13671875  4911068.50000000 3891700.25000000 
0.04400    95486920.00000000 60023276.00000000 151410160.00000000 60656.80859375  4789770.50000000 3796064.75000000 
0.04500    93379024.00000000 58715472.00000000 148088992.00000000 58991.19531250  4669921.50000000 3701586.75000000 
0.04600    91290536.00000000 57420104.00000000 144800080.00000000 57354.01953125  4551764.50000000 3608362.50000000 
0.04700    89227224.00000000 56139104.00000000 141546224.00000000 55746.58984375  4435302.00000000 3516504.50000000 
0.04800    87189224.00000000 54873204.00000000 138334208.00000000 54170.56250000  4320743.00000000 3426111.25000000 
0.04900    85178912.00000000 53624328.00000000 135165968.00000000 52627.87890625  4208211.00000000 3337273.25000000 
0.05000    83199360.00000000 52393704.00000000 132046184.00000000 51119.44531250  4097726.50000000 3250093.00000000 
0.05100    81251432.00000000 51182212.00000000 128973840.00000000 49646.43359375  3989529.00000000 3164618.00000000 
0.05200    79337648.00000000 49991552.00000000 125954784.00000000 48209.95703125  3883557.75000000 3080940.75000000 
0.05300    77460152.00000000 48822228.00000000 122990952.00000000 46811.40234375  3779990.50000000 2999114.75000000 
0.05400    75619856.00000000 47675704.00000000 120084472.00000000 45450.78515625  3678858.50000000 2919218.25000000 
0.05500    73817008.00000000 46552732.00000000 117239088.00000000 44129.15625000  3580248.00000000 2841270.00000000 
0.05600    72053800.00000000 45454116.00000000 114454992.00000000 42846.36328125  3484161.00000000 2765335.25000000 
0.05700    70333128.00000000 44380152.00000000 111735448.00000000 41603.27734375  3390726.00000000 2691422.25000000 
0.05800    68653936.00000000 43331944.00000000 109082760.00000000 40399.97265625  3299905.25000000 2619588.00000000 
0.05900    67016456.00000000 42310000.00000000 106494856.00000000 39236.76562500  3211732.25000000 2549843.75000000 
0.06000    65422940.00000000 41314640.00000000 103976392.00000000 38112.76562500  3126269.75000000 2482173.75000000 
0.06100    63874304.00000000 40346740.00000000 101527456.00000000 37028.81640625  3043464.50000000 2416653.25000000 
0.06200    62369620.00000000 39405868.00000000 99147840.00000000 35983.76562500  2963374.50000000 2353232.00000000 
0.06300    60910924.00000000 38492820.00000000 96839744.00000000 34977.97656250  2885967.75000000 2291927.00000000 
0.06400    59496476.00000000 37607592.00000000 94601696.00000000 34010.03906250  2811215.25000000 2232713.75000000 
0.06500    58128120.00000000 36750260.00000000 92435024.00000000 33079.86718750  2739149.75000000 2175560.50000000 
0.06600    56804808.00000000 35921372.00000000 90340144.00000000 32186.89062500  2669681.25000000 2120502.75000000 
0.06700    55526432.00000000 35120000.00000000 88316024.00000000 31330.20507812  2602785.75000000 2067484.37500000 
0.06800    54293672.00000000 34346456.00000000 86362088.00000000 30508.54882812  2538472.75000000 2016469.75000000 
0.06900    53105264.00000000 33600668.00000000 84480344.00000000 29721.57812500  2476653.50000000 1967407.87500000 
0.07000    51961328.00000000 32882778.00000000 82667488.00000000 28967.90429688  2417310.25000000 1920315.00000000 
0.07100    50860808.00000000 32191852.00000000 80922824.00000000 28246.69335938  2360327.75000000 1875101.12500000 
0.07200    49803772.00000000 31527534.00000000 79247176.00000000 27556.92382812  2305702.50000000 1831740.50000000 
0.07300    48788820.00000000 30889832.00000000 77638624.00000000 26897.16015625  2253356.25000000 1790175.75000000 
0.07400    47815820.00000000 30278050.00000000 76094536.00000000 26266.82421875  2203231.75000000 1750362.62500000 
0.07500    46883832.00000000 29691714.00000000 74616160.00000000 25664.03125000  2155257.00000000 1712240.87500000 
0.07600    45991520.00000000 29130448.00000000 73200304.00000000 25087.78710938  2109350.25000000 1675749.37500000 
0.07700    45138044.00000000 28593166.00000000 71846256.00000000 24536.88085938  2065409.87500000 1640853.12500000 
0.07800    44322556.00000000 28080006.00000000 70551936.00000000 24010.44335938  2023413.62500000 1607452.25000000 
0.07900    43543596.00000000 27589710.00000000 69315728.00000000 23506.57617188  1983231.00000000 1575521.37500000 
0.08000    42800452.00000000 27121772.00000000 68136536.00000000 23024.75000000  1944819.62500000 1544966.37500000 
0.08100    42092128.00000000 26675692.00000000 67012248.00000000 22563.16796875  1908065.62500000 1515765.62500000 
0.08200    41416328.00000000 26250118.00000000 65939912.00000000 22120.80859375  1872926.75000000 1487820.62500000 
0.08300    40772520.00000000 25845000.00000000 64917968.00000000 21696.50781250  1839295.50000000 1461068.62500000 
0.08400    40159524.00000000 25459198.00000000 63945476.00000000 21289.16992188  1807095.37500000 1435465.62500000 
0.08500    39575820.00000000 25092058.00000000 63019672.00000000 20897.44531250  1776243.87500000 1410931.87500000 
0.08600    39020436.00000000 24742628.00000000 62137740.00000000 20520.25781250  1746662.00000000 1387407.62500000 
0.08700    38491548.00000000 24410246.00000000 61299452.00000000 20156.83984375  1718265.62500000 1364838.12500000 
0.08800    37987744.00000000 24093708.00000000 60501028.00000000 19805.73632812  1690990.50000000 1343150.50000000 
0.08900    37508280.00000000 23792640.00000000 59740808.00000000 19466.08593750  1664749.75000000 1322301.50000000 
0.09000    37051624.00000000 23506042.00000000 59017564.00000000 19136.75000000  1639475.12500000 1302212.12500000 
0.09100    36616176.00000000 23233034.00000000 58327628.00000000 18817.03906250  1615083.12500000 1282835.37500000 
0.09200    36200616.00000000 22973054.00000000 57670196.00000000 18506.18164062  1591506.62500000 1264108.87500000 
0.09300    35804072.00000000 22724928.00000000 57042664.00000000 18203.21093750  1568673.62500000 1245992.50000000 
0.09400    35424732.00000000 22487832.00000000 56443084.00000000 17907.05859375  1546531.12500000 1228423.37500000 
0.09500    35061388.00000000 22261378.00000000 55869640.00000000 17617.29101562  1525025.37500000 1211344.12500000 
0.09600    34713276.00000000 22044726.00000000 55319652.00000000 17333.37695312  1504067.00000000 1194742.00000000 
0.09700    34378904.00000000 21836668.00000000 54792028.00000000 17054.18554688  1483605.12500000 1178518.87500000 
0.09800    34056916.00000000 21636748.00000000 54284836.00000000 16779.79492188  1463613.25000000 1162680.00000000 
0.09900    33746556.00000000 21444382.00000000 53795876.00000000 16509.00000000  1443990.37500000 1147142.87500000 
0.10000    33446056.00000000 21258540.00000000 53323632.00000000 16241.55371094  1424746.00000000 1131905.62500000 
0.10100    33154740.00000000 21078818.00000000 52866148.00000000 15977.23828125  1405780.12500000 1116910.62500000 
0.10200    32872024.00000000 20904390.00000000 52421116.00000000 15715.42480469  1387101.50000000 1102111.87500000 
0.10300    32595734.00000000 20734854.00000000 51988416.00000000 15455.67382812  1368633.25000000 1087504.75000000 
0.10400    32326032.00000000 20569290.00000000 51565640.00000000 15198.01171875  1350348.00000000 1073059.00000000 
0.10500    32061752.00000000 20407240.00000000 51151412.00000000 14941.79394531  1332225.50000000 1058735.25000000 
0.10600    31801780.00000000 20248062.00000000 50744780.00000000 14687.06250000  1314211.87500000 1044498.56250000 
0.10700    31545214.00000000 20091378.00000000 50343612.00000000 14433.59667969  1296306.87500000 1030368.18750000 
0.10800    31291332.00000000 19936624.00000000 49946920.00000000 14181.27050781  1278468.25000000 1016279.93750000 
0.10900    31039860.00000000 19783282.00000000 49553996.00000000 13929.72949219  1260682.37500000 1002240.50000000 
0.11000    30789684.00000000 19631008.00000000 49163400.00000000 13679.27050781  1242927.75000000 988227.18750000 
0.11100    30540210.00000000 19479260.00000000 48774312.00000000 13429.48242188  1225195.00000000 974223.62500000 
0.11200    30290882.00000000 19327684.00000000 48385560.00000000 13180.49121094  1207473.37500000 960233.18750000 
0.11300    30041298.00000000 19176010.00000000 47996120.00000000 12932.45117188  1189728.37500000 946241.18750000 
0.11400    29790784.00000000 19023848.00000000 47605804.00000000 12685.15820312  1171976.00000000 932223.81250000 
0.11500    29539082.00000000 18871006.00000000 47212660.00000000 12438.68847656  1154200.12500000 918200.06250000 
0.11600    29285398.00000000 18717156.00000000 46817464.00000000 12193.33398438  1136407.75000000 904144.56250000 
0.11700    29029926.00000000 18561746.00000000 46418792.00000000 11948.85937500  1118565.62500000 890075.50000000 
0.11800    28771858.00000000 18404932.00000000 46016308.00000000 11705.61621094  1100710.75000000 875977.37500000 
0.11900    28511264.00000000 18246488.00000000 45609784.00000000 11463.51953125  1082825.37500000 861852.62500000 
0.12000    28247638.00000000 18086132.00000000 45198616.00000000 11222.82812500  1064910.75000000 847703.50000000 
0.12100    27981220.00000000 17923732.00000000 44782068.00000000 10983.75585938  1046996.62500000 833547.31250000 
0.12200    27711366.00000000 17759406.00000000 44361144.00000000 10746.30566406  1029049.43750000 819370.31250000 
0.12300    27438284.00000000 17592662.00000000 43933768.00000000 10510.59277344  1011096.25000000 805180.87500000 
0.12400    27161654.00000000 17423722.00000000 43501468.00000000 10276.77832031  993150.50000000 790993.68750000 
0.12500    26881536.00000000 17252434.00000000 43063368.00000000 10045.11230469  975208.68750000 776804.56250000 
0.12600    26598026.00000000 17078646.00000000 42619320.00000000 9815.74609375   957291.06250000 762632.75000000 
0.12700    26310956.00000000 16902708.00000000 42169416.00000000 9588.66210938   939403.75000000 748476.00000000 
0.12800    26020630.00000000 16724293.00000000 41714284.00000000 9364.17187500   921556.31250000 734348.81250000 
0.12900    25726776.00000000 16543635.00000000 41253164.00000000 9142.34863281   903766.12500000 720260.12500000 
0.13000    25429746.00000000 16360624.00000000 40787112.00000000 8923.45996094   886034.68750000 706216.25000000 
0.13100    25129486.00000000 16175562.00000000 40315368.00000000 8707.50781250   868379.68750000 692227.87500000 
0.13200    24826416.00000000 15988280.00000000 39838600.00000000 8494.51367188   850820.00000000 678302.81250000 
0.13300    24520266.00000000 15798960.00000000 39357020.00000000 8284.89257812   833358.25000000 664454.18750000 
0.13400    24211426.00000000 15607698.00000000 38871016.00000000 8078.55859375   816015.12500000 650690.93750000 
0.13500    23900324.00000000 15414685.00000000 38380792.00000000 7875.66845703   798791.31250000 637020.56250000 
0.13600    23586886.00000000 15220021.00000000 37886240.00000000 7676.35058594   781711.75000000 623455.31250000 
0.13700    23271266.00000000 15023720.00000000 37388620.00000000 7480.68212891   764778.12500000 610005.06250000 
0.13800    22953936.00000000 14825979.00000000 36887380.00000000 7288.67675781   748015.50000000 596681.18750000 
0.13900    22635070.00000000 14626937.00000000 36383704.00000000 7100.51855469   731416.93750000 583486.81250000 
0.14000    22315122.00000000 14426934.00000000 35877348.00000000 6916.18505859   715012.00000000 570433.56250000 
0.14100    21993728.00000000 14225904.00000000 35369076.00000000 6735.84765625   698796.68750000 557527.12500000 
0.14200    21671650.00000000 14024097.00000000 34858980.00000000 6559.39941406   682778.12500000 544778.50000000 
0.14300    21349192.00000000 13821749.00000000 34347964.00000000 6386.98486328   666998.00000000 532201.12500000 
0.14400    21026340.00000000 13618815.00000000 33836084.00000000 6218.55273438   651419.18750000 519786.31250000 
0.14500    20703552.00000000 13415715.00000000 33324228.00000000 6054.18750000   636080.87500000 507555.93750000 
0.14600    20381128.00000000 13212508.00000000 32811660.00000000 5893.95605469   620981.75000000 495510.53125000 
0.14700    20059106.00000000 13009351.00000000 32300068.00000000 5737.74707031   606124.25000000 483662.46875000 
0.14800    19737866.00000000 12806323.00000000 31789548.00000000 5585.51513672   591525.87500000 472004.40625000 
0.14900    19418062.00000000 12603891.00000000 31280210.00000000 5437.32812500   577176.75000000 460545.06250000 
0.15000    19099204.00000000 12401966.00000000 30772794.00000000 5293.28515625   563095.81250000 449290.59375000 
0.15100    18782244.00000000 12200754.00000000 30267580.00000000 5153.11962891   549282.87500000 438246.06250000 
0.15200    18467070.00000000 12000471.00000000 29764878.00000000 5017.04150391   535739.87500000 427414.31250000 
0.15300    18153668.00000000 11801229.00000000 29265372.00000000 4884.82275391   522470.90625000 416793.09375000 
0.15400    17842990.00000000 11603201.00000000 28769048.00000000 4756.43066406   509478.12500000 406394.50000000 
0.15500    17534474.00000000 11406580.00000000 28276476.00000000 4631.99414062   496760.68750000 396209.93750000 
0.15600    17229030.00000000 11211390.00000000 27787872.00000000 4511.17431641   484329.71875000 386246.34375000 
0.15700    16926472.00000000 11017946.00000000 27304186.00000000 4394.20361328   472175.18750000 376502.84375000 
0.15800    16626889.00000000 10826119.00000000 26824494.00000000 4280.83203125   460297.18750000 366978.40625000 
0.15900    16330875.00000000 10636366.00000000 26350180.00000000 4171.09375000   448703.96875000 357676.50000000 
0.16000    16038159.00000000 10448388.00000000 25881102.00000000 4064.80297852   437383.15625000 348591.03125000 
0.16100    15749140.00000000 10262863.00000000 25417784.00000000 3962.02612305   426349.34375000 339723.28125000 
0.16200    15463858.00000000 10079313.00000000 24960164.00000000 3862.61450195   415579.65625000 331074.12500000 
0.16300    15182581.00000000 9898160.00000000 24508460.00000000 3766.47265625   405086.15625000 322636.03125000 
0.16400    14905238.00000000 9719333.00000000 24062964.00000000 3673.59960938   394864.75000000 314418.50000000 
0.16500    14632158.00000000 9543039.00000000 23624118.00000000 3583.83691406   384903.34375000 306403.46875000 
0.16600    14363322.00000000 9369292.00000000 23191722.00000000 3497.14306641   375207.84375000 298600.40625000 
0.16700    14098769.00000000 9198287.00000000 22766100.00000000 3413.39184570   365766.31250000 290999.25000000 
0.16800    13838660.00000000 9029729.00000000 22347450.00000000 3332.53784180   356576.25000000 283595.68750000 
0.16900    13583045.00000000 8864069.00000000 21935834.00000000 3254.53833008   347643.34375000 276397.37500000 
0.17000    13332078.00000000 8701179.00000000 21531198.00000000 3179.23730469   338949.71875000 269387.68750000 
