# SAXS profile: number of points = 501, q_min = 0, q_max = 0.5, delta_q = 0.001
#    q    intensity 
0.00000    162234896.00000000 101201656.00000000 256270416.00000000 109094.55468750 8414155.00000000 6645466.00000000 
0.00100    162197552.00000000 101177144.00000000 256208656.00000000 109060.29687500 8411806.00000000 6643627.00000000 
0.00200    162083472.00000000 101103496.00000000 256022384.00000000 108959.73437500 8404789.00000000 6638103.00000000 
0.00300    161887856.00000000 100981976.00000000 255712128.00000000 108791.59375000 8393062.00000000 6628915.00000000 
0.00400    161611600.00000000 100811032.00000000 255277216.00000000 108555.60937500 8376756.50000000 6616034.50000000 
0.00500    161256656.00000000 100592976.00000000 254722560.00000000 108254.17187500 8355828.50000000 6599614.00000000 
0.00600    160822560.00000000 100324104.00000000 254040592.00000000 107887.25781250 8330304.00000000 6579532.50000000 
0.00700    160312000.00000000 100010528.00000000 253242544.00000000 107455.42968750 8300262.50000000 6555890.50000000 
0.00800    159724032.00000000 99649592.00000000 252323088.00000000 106959.25781250 8265766.50000000 6528775.00000000 
0.00900    159065136.00000000 99243496.00000000 251287312.00000000 106400.15625000 8226879.50000000 6498165.50000000 
0.01000    158332896.00000000 98791440.00000000 250135200.00000000 105779.12500000 8183699.00000000 6464196.50000000 
0.01100    157529472.00000000 98293720.00000000 248868736.00000000 105098.44531250 8136269.50000000 6426864.50000000 
0.01200    156653040.00000000 97752016.00000000 247490080.00000000 104358.22656250 8084665.50000000 6386304.00000000 
0.01300    155704416.00000000 97167328.00000000 246003728.00000000 103560.59375000 8029039.50000000 6342534.00000000 
0.01400    154690128.00000000 96540344.00000000 244409200.00000000 102707.52343750 7969484.50000000 6295647.50000000 
0.01500    153610272.00000000 95873696.00000000 242711552.00000000 101800.28125000 7906076.00000000 6245798.50000000 
0.01600    152466912.00000000 95166696.00000000 240912880.00000000 100841.23437500 7838992.50000000 6192986.00000000 
0.01700    151259808.00000000 94420920.00000000 239014912.00000000 99830.97656250  7768295.00000000 6137408.00000000 
0.01800    149992464.00000000 93638072.00000000 237022656.00000000 98773.43750000  7694175.00000000 6079046.00000000 
0.01900    148668288.00000000 92818672.00000000 234938160.00000000 97670.31250000  7616767.00000000 6018159.00000000 
0.02000    147284880.00000000 91965088.00000000 232766448.00000000 96523.01562500  7536154.00000000 5954679.00000000 
0.02100    145848992.00000000 91077592.00000000 230509312.00000000 95333.92968750  7452534.00000000 5888889.00000000 
0.02200    144363168.00000000 90158640.00000000 228171184.00000000 94106.15625000  7366055.50000000 5820812.50000000 
0.02300    142828096.00000000 89209040.00000000 225755184.00000000 92841.96875000  7276875.50000000 5750634.00000000 
0.02400    141245024.00000000 88230632.00000000 223267168.00000000 91542.30468750  7185097.50000000 5678380.00000000 
0.02500    139618928.00000000 87224960.00000000 220709936.00000000 90211.33593750  7090929.50000000 5604223.00000000 
0.02600    137950464.00000000 86193184.00000000 218085296.00000000 88851.07812500  6994533.00000000 5528346.00000000 
0.02700    136245088.00000000 85136720.00000000 215400912.00000000 87463.72656250  6896057.00000000 5450796.00000000 
0.02800    134501344.00000000 84058536.00000000 212657456.00000000 86052.05468750  6795678.00000000 5371774.50000000 
0.02900    132724696.00000000 82958784.00000000 209862032.00000000 84617.78125000  6693554.50000000 5291338.00000000 
0.03000    130916976.00000000 81839488.00000000 207018880.00000000 83165.05468750  6589866.00000000 5209662.00000000 
0.03100    129081080.00000000 80703024.00000000 204129568.00000000 81695.82812500  6484799.50000000 5126902.00000000 
0.03200    127219792.00000000 79550416.00000000 201199792.00000000 80211.46875000  6378458.00000000 5043134.50000000 
0.03300    125336136.00000000 78383160.00000000 198235408.00000000 78715.86718750  6271106.00000000 4958564.00000000 
0.03400    123430952.00000000 77203432.00000000 195236432.00000000 77210.10937500  6162795.00000000 4873267.00000000 
0.03500    121509632.00000000 76012800.00000000 192211024.00000000 75697.82031250  6053762.50000000 4787363.00000000 
0.03600    119572632.00000000 74813152.00000000 189160464.00000000 74180.96093750  5944179.50000000 4701016.00000000 
0.03700    117623368.00000000 73605112.00000000 186091984.00000000 72661.62500000  5834126.00000000 4614260.50000000 
0.03800    115665248.00000000 72389952.00000000 183006256.00000000 71142.55468750  5723860.50000000 4527344.50000000 
0.03900    113698576.00000000 71170272.00000000 179910032.00000000 69625.60937500  5613412.00000000 4440324.00000000 
0.04000    111728712.00000000 69947880.00000000 176805408.00000000 68112.40625000  5503046.50000000 4353299.50000000 
0.04100    109756160.00000000 68723496.00000000 173698400.00000000 66605.89843750  5392823.50000000 4266406.00000000 
0.04200    107783416.00000000 67499208.00000000 170589520.00000000 65107.26171875  5282957.00000000 4179736.00000000 
0.04300    105813232.00000000 66276128.00000000 167485584.00000000 63619.07421875  5173489.00000000 4093431.50000000 
0.04400    103848512.00000000 65056028.00000000 164386976.00000000 62142.87109375  5064684.00000000 4007607.75000000 
0.04500    101890128.00000000 63839692.00000000 161302000.00000000 60680.55468750  4956549.50000000 3922329.75000000 
0.04600    99941424.00000000 62629024.00000000 158228784.00000000 59233.51953125  4849284.00000000 3837665.50000000 
0.04700    98003960.00000000 61424968.00000000 155172784.00000000 57803.39062500  4742892.50000000 3753765.50000000 
0.04800    96079712.00000000 60229012.00000000 152139968.00000000 56391.64453125  4637608.50000000 3670685.00000000 
0.04900    94171296.00000000 59042016.00000000 149129056.00000000 54999.51171875  4533474.50000000 3588516.00000000 
0.05000    92279048.00000000 57865220.00000000 146145088.00000000 53628.48046875  4430623.50000000 3507328.00000000 
0.05100    90405872.00000000 56700112.00000000 143189200.00000000 52280.04296875  4329141.50000000 3427203.00000000 
0.05200    88552936.00000000 55546564.00000000 140266336.00000000 50954.43750000  4229056.50000000 3348192.50000000 
0.05300    86722056.00000000 54407376.00000000 137378208.00000000 49652.91406250  4130475.50000000 3270369.25000000 
0.05400    84914624.00000000 53281872.00000000 134524768.00000000 48376.88671875  4033511.25000000 3193791.00000000 
0.05500    83132336.00000000 52172124.00000000 131712896.00000000 47126.53906250  3938199.25000000 3118525.50000000 
0.05600    81375640.00000000 51077808.00000000 128939776.00000000 45902.57812500  3844613.25000000 3044584.50000000 
0.05700    79645792.00000000 50000624.00000000 126209744.00000000 44705.76953125  3752797.50000000 2972068.00000000 
0.05800    77945448.00000000 48940524.00000000 123524704.00000000 43536.58593750  3662796.75000000 2900960.00000000 
0.05900    76274800.00000000 47898540.00000000 120885112.00000000 42395.36328125  3574633.25000000 2831317.75000000 
0.06000    74633696.00000000 46875640.00000000 118293968.00000000 41282.25781250  3488405.25000000 2763151.75000000 
0.06100    73023856.00000000 45871436.00000000 115751168.00000000 40197.66796875  3404088.00000000 2696524.75000000 
0.06200    71446464.00000000 44887468.00000000 113258816.00000000 39141.78906250  3321736.25000000 2631424.50000000 
0.06300    69900568.00000000 43923176.00000000 110817704.00000000 38114.56640625  3241394.75000000 2567880.75000000 
0.06400    68388312.00000000 42979500.00000000 108427960.00000000 37115.75781250  3162962.25000000 2505899.50000000 
0.06500    66909756.00000000 42056100.00000000 106090808.00000000 36145.54687500  3086570.50000000 2445477.50000000 
0.06600    65464792.00000000 41154276.00000000 103807856.00000000 35203.87890625  3012154.50000000 2386624.25000000 
0.06700    64054192.00000000 40273540.00000000 101578280.00000000 34290.12500000  2939733.25000000 2329350.00000000 
0.06800    62677580.00000000 39413436.00000000 99402656.00000000 33403.92187500  2869312.25000000 2273628.00000000 
0.06900    61336052.00000000 38575828.00000000 97281280.00000000 32545.15820312  2800844.50000000 2219474.75000000 
0.07000    60028712.00000000 37758460.00000000 95214504.00000000 31713.67968750  2734323.00000000 2166869.00000000 
0.07100    58755400.00000000 36963336.00000000 93202416.00000000 30908.41015625  2669761.75000000 2115783.00000000 
0.07200    57516808.00000000 36189472.00000000 91243800.00000000 30129.17773438  2607114.25000000 2066194.12500000 
0.07300    56312944.00000000 35436744.00000000 89340128.00000000 29375.22656250  2546337.50000000 2018133.50000000 
0.07400    55142288.00000000 34705332.00000000 87489880.00000000 28646.29882812  2487411.00000000 1971486.87500000 
0.07500    54005992.00000000 33994956.00000000 85691928.00000000 27941.50390625  2430345.50000000 1926308.87500000 
0.07600    52902260.00000000 33305652.00000000 83947672.00000000 27259.80859375  2375012.25000000 1882546.75000000 
0.07700    51831984.00000000 32636466.00000000 82254984.00000000 26601.27734375  2321454.50000000 1840134.75000000 
0.07800    50793688.00000000 31987944.00000000 80613352.00000000 25964.63085938  2269580.25000000 1799072.00000000 
0.07900    49787428.00000000 31359024.00000000 79022368.00000000 25349.25000000  2219370.50000000 1759330.87500000 
0.08000    48812432.00000000 30749904.00000000 77480760.00000000 24754.52343750  2170751.75000000 1720883.25000000 
0.08100    47868172.00000000 30160154.00000000 75988344.00000000 24179.76953125  2123755.25000000 1683642.87500000 
0.08200    46953960.00000000 29589076.00000000 74542864.00000000 23623.79882812  2078223.87500000 1647607.62500000 
0.08300    46069008.00000000 29036524.00000000 73144368.00000000 23086.11718750  2034161.87500000 1612745.87500000 
0.08400    45212652.00000000 28502050.00000000 71790936.00000000 22566.12304688  1991512.50000000 1578990.12500000 
0.08500    44384332.00000000 27984890.00000000 70481704.00000000 22062.84179688  1950244.00000000 1546324.12500000 
0.08600    43582980.00000000 27485016.00000000 69216200.00000000 21575.44726562  1910268.62500000 1514704.00000000 
0.08700    42807948.00000000 27001728.00000000 67991640.00000000 21103.51171875  1871559.87500000 1484077.25000000 
0.08800    42058392.00000000 26534550.00000000 66808620.00000000 20645.85546875  1834066.37500000 1454399.62500000 
0.08900    41333660.00000000 26083044.00000000 65664436.00000000 20202.11328125  1797725.50000000 1425636.50000000 
0.09000    40632920.00000000 25646498.00000000 64557592.00000000 19771.41992188  1762473.37500000 1397760.12500000 
0.09100    39954908.00000000 25224594.00000000 63487972.00000000 19353.08007812  1728280.37500000 1370716.50000000 
0.09200    39298976.00000000 24816664.00000000 62453700.00000000 18946.68554688  1695103.50000000 1344463.37500000 
0.09300    38664588.00000000 24422388.00000000 61453044.00000000 18551.28320312  1662862.87500000 1318984.87500000 
0.09400    38050676.00000000 24040998.00000000 60484956.00000000 18166.39062500  1631537.87500000 1294205.87500000 
0.09500    37456392.00000000 23672002.00000000 59548360.00000000 17791.28515625  1601069.25000000 1270114.37500000 
0.09600    36880844.00000000 23315062.00000000 58641516.00000000 17425.64843750  1571417.87500000 1246679.00000000 
0.09700    36322960.00000000 22969452.00000000 57763416.00000000 17068.89453125  1542534.00000000 1223845.75000000 
0.09800    35782384.00000000 22634752.00000000 56912444.00000000 16720.24414062  1514371.00000000 1201580.12500000 
0.09900    35258380.00000000 22310426.00000000 56087764.00000000 16379.60546875  1486911.12500000 1179873.62500000 
0.10000    34749760.00000000 21995634.00000000 55287132.00000000 16046.28222656  1460080.87500000 1158678.12500000 
0.10100    34255524.00000000 21690644.00000000 54510932.00000000 15719.86718750  1433848.37500000 1137952.87500000 
0.10200    33775376.00000000 21394364.00000000 53756084.00000000 15400.05761719  1408199.87500000 1117694.37500000 
0.10300    33308688.00000000 21106492.00000000 53022868.00000000 15086.55468750  1383078.00000000 1097855.37500000 
0.10400    32854150.00000000 20826628.00000000 52309532.00000000 14778.79980469  1358482.12500000 1078413.75000000 
0.10500    32411644.00000000 20554294.00000000 51614840.00000000 14476.68359375  1334352.00000000 1059355.00000000 
0.10600    31980166.00000000 20288748.00000000 50937552.00000000 14179.74902344  1310659.87500000 1040633.87500000 
0.10700    31559096.00000000 20029916.00000000 50277216.00000000 13887.97363281  1287383.00000000 1022253.18750000 
0.10800    31147522.00000000 19777410.00000000 49631992.00000000 13600.88281250  1264497.75000000 1004188.25000000 
0.10900    30745330.00000000 19530626.00000000 49001852.00000000 13318.45312500  1241988.12500000 986400.12500000 
0.11000    30351640.00000000 19289448.00000000 48385240.00000000 13040.44726562  1219817.50000000 968899.93750000 
0.11100    29966316.00000000 19053260.00000000 47781828.00000000 12766.65625000  1197987.62500000 951638.06250000 
0.11200    29588360.00000000 18821648.00000000 47189760.00000000 12497.00390625  1176462.00000000 934634.93750000 
0.11300    29217086.00000000 18594538.00000000 46608684.00000000 12231.31054688  1155224.75000000 917853.25000000 
0.11400    28852616.00000000 18371454.00000000 46038080.00000000 11969.63769531  1134274.62500000 901295.68750000 
0.11500    28494194.00000000 18152298.00000000 45477104.00000000 11711.76562500  1113586.62500000 884945.43750000 
0.11600    28141136.00000000 17936672.00000000 44925436.00000000 11457.58300781  1093154.00000000 868791.81250000 
0.11700    27793456.00000000 17724114.00000000 44381368.00000000 11207.19726562  1072968.50000000 852828.81250000 
0.11800    27450754.00000000 17514560.00000000 43845592.00000000 10960.45507812  1053009.00000000 837044.43750000 
0.11900    27112340.00000000 17307972.00000000 43315928.00000000 10717.33007812  1033280.81250000 821438.00000000 
0.12000    26778056.00000000 17103730.00000000 42793404.00000000 10477.83105469  1013768.75000000 806000.56250000 
0.12100    26448004.00000000 16901890.00000000 42276608.00000000 10242.00097656  994483.18750000 790732.50000000 
0.12200    26121340.00000000 16702215.00000000 41765672.00000000 10009.79687500  975399.62500000 775631.56250000 
0.12300    25798098.00000000 16504577.00000000 41260032.00000000 9781.11816406   956529.25000000 760679.81250000 
0.12400    25477702.00000000 16308702.00000000 40758624.00000000 9556.24902344   937870.37500000 745885.50000000 
0.12500    25160376.00000000 16114358.00000000 40261564.00000000 9334.95507812   919405.62500000 731262.06250000 
0.12600    24845778.00000000 15921753.00000000 39769088.00000000 9117.38671875   901156.18750000 716791.93750000 
0.12700    24533736.00000000 15730667.00000000 39280516.00000000 8903.46093750   883099.25000000 702472.37500000 
0.12800    24224080.00000000 15540617.00000000 38794920.00000000 8693.25781250   865256.00000000 688314.62500000 
0.12900    23916682.00000000 15352071.00000000 38313164.00000000 8486.80664062   847616.43750000 674319.93750000 
0.13000    23611414.00000000 15164500.00000000 37834620.00000000 8284.10742188   830188.00000000 660473.75000000 
0.13100    23307988.00000000 14978013.00000000 37358540.00000000 8085.25976562   812957.37500000 646796.62500000 
0.13200    23006856.00000000 14792643.00000000 36885672.00000000 7890.19726562   795951.62500000 633279.37500000 
0.13300    22707486.00000000 14608245.00000000 36415452.00000000 7698.92529297   779154.31250000 619929.93750000 
0.13400    22409812.00000000 14424716.00000000 35947872.00000000 7511.55078125   762575.68750000 606742.00000000 
0.13500    22114322.00000000 14242119.00000000 35483136.00000000 7327.96923828   746215.31250000 593726.62500000 
0.13600    21820184.00000000 14060422.00000000 35020568.00000000 7148.21337891   730080.12500000 580888.68750000 
0.13700    21527788.00000000 13879554.00000000 34560368.00000000 6972.26611328   714170.68750000 568219.06250000 
0.13800    21237178.00000000 13699468.00000000 34102584.00000000 6800.23339844   698486.31250000 555725.00000000 
0.13900    20948470.00000000 13520343.00000000 33647820.00000000 6632.00341797   683037.75000000 543416.18750000 
0.14000    20661174.00000000 13341960.00000000 33194966.00000000 6467.54052734   667814.12500000 531287.37500000 
0.14100    20376060.00000000 13164448.00000000 32744684.00000000 6306.87744141   652841.12500000 519343.93750000 
0.14200    20092526.00000000 12987827.00000000 32296690.00000000 6149.96337891   638098.06250000 507582.62500000 
0.14300    19810622.00000000 12812024.00000000 31851450.00000000 5996.77392578   623597.56250000 496013.21875000 
0.14400    19530408.00000000 12637070.00000000 31408760.00000000 5847.22363281   609339.93750000 484630.34375000 
0.14500    19252274.00000000 12463183.00000000 30968454.00000000 5701.35888672   595324.00000000 473442.12500000 
0.14600    18975848.00000000 12290154.00000000 30531054.00000000 5559.05029297   581559.81250000 462445.37500000 
0.14700    18701538.00000000 12118126.00000000 30096608.00000000 5420.35205078   568038.50000000 451639.15625000 
0.14800    18429124.00000000 11947078.00000000 29664520.00000000 5285.09765625   554759.31250000 441030.03125000 
0.14900    18158500.00000000 11776967.00000000 29235560.00000000 5153.20556641   541726.87500000 430613.71875000 
0.15000    17890216.00000000 11608031.00000000 28809504.00000000 5024.74218750   528947.00000000 420393.96875000 
0.15100    17623866.00000000 11440160.00000000 28386472.00000000 4899.49951172   516410.65625000 410368.71875000 
0.15200    17359756.00000000 11273436.00000000 27966494.00000000 4777.54296875   504128.96875000 400539.56250000 
0.15300    17097644.00000000 11107907.00000000 27549740.00000000 4658.71533203   492087.25000000 390907.34375000 
0.15400    16837760.00000000 10943486.00000000 27136658.00000000 4542.92773438   480288.15625000 381463.71875000 
0.15500    16580447.00000000 10780268.00000000 26726466.00000000 4430.19042969   468732.31250000 372215.18750000 
0.15600    16325122.00000000 10618432.00000000 26319666.00000000 4320.32861328   457415.65625000 363154.81250000 
0.15700    16072381.00000000 10457833.00000000 25916762.00000000 4213.32519531   446338.21875000 354289.93750000 
0.15800    15821830.00000000 10298457.00000000 25517084.00000000 4109.03906250   435493.53125000 345607.34375000 
0.15900    15573816.00000000 10140532.00000000 25121122.00000000 4007.47216797   424889.50000000 337112.43750000 
0.16000    15328071.00000000 9984005.00000000 24728904.00000000 3908.51342773   414510.62500000 328803.50000000 
0.16100    15085034.00000000 9828910.00000000 24340530.00000000 3812.10620117   404360.87500000 320677.34375000 
0.16200    14844448.00000000 9675370.00000000 23956154.00000000 3718.12890625   394432.34375000 312728.15625000 
0.16300    14606403.00000000 9523158.00000000 23575344.00000000 3626.53344727   384725.56250000 304956.53125000 
0.16400    14371032.00000000 9372423.00000000 23198516.00000000 3537.28881836   375236.75000000 297359.96875000 
0.16500    14138125.00000000 9223298.00000000 22825746.00000000 3450.25585938   365958.71875000 289933.71875000 
0.16600    13907938.00000000 9075685.00000000 22457064.00000000 3365.38696289   356890.43750000 282679.87500000 
0.16700    13680453.00000000 8929557.00000000 22092510.00000000 3282.63378906   348026.06250000 275584.46875000 
0.16800    13455442.00000000 8785094.00000000 21731858.00000000 3201.89526367   339359.31250000 268651.18750000 
0.16900    13233269.00000000 8642251.00000000 21375746.00000000 3123.20825195   330895.84375000 261881.46875000 
0.17000    13013800.00000000 8500970.00000000 21023424.00000000 3046.42236328   322622.68750000 255262.06250000 
