# SAXS profile: number of points = 501, q_min = 0, q_max = 0.5, delta_q = 0.001
#    q    intensity 
0.00000    162235728.00000000 101201480.00000000 256270960.00000000 98175.37500000  7981956.50000000 6304150.50000000 
0.00100    162198032.00000000 101176952.00000000 256207984.00000000 98147.16406250  7979809.50000000 6302446.00000000 
0.00200    162082032.00000000 101102928.00000000 256021264.00000000 98063.30468750  7973417.50000000 6297434.50000000 
0.00300    161884592.00000000 100980120.00000000 255707456.00000000 97922.68750000  7962823.50000000 6289066.00000000 
0.00400    161604768.00000000 100808528.00000000 255271520.00000000 97726.39843750  7947984.50000000 6277413.50000000 
0.00500    161247472.00000000 100587880.00000000 254709472.00000000 97475.21875000  7928950.50000000 6262450.00000000 
0.00600    160810784.00000000 100317184.00000000 254024096.00000000 97168.71875000  7905789.50000000 6244209.00000000 
0.00700    160298832.00000000 100001128.00000000 253219696.00000000 96807.99218750  7878490.50000000 6222765.00000000 
0.00800    159707024.00000000 99637816.00000000 252294080.00000000 96394.18750000  7847114.50000000 6198053.50000000 
0.00900    159042784.00000000 99227600.00000000 251248560.00000000 95927.28125000  7811790.00000000 6170258.00000000 
0.01000    158305392.00000000 98771800.00000000 250089536.00000000 95408.82031250  7772479.50000000 6139362.00000000 
0.01100    157496576.00000000 98270592.00000000 248814448.00000000 94840.07812500  7729385.00000000 6105457.00000000 
0.01200    156613104.00000000 97724472.00000000 247424784.00000000 94221.20312500  7682434.50000000 6068521.00000000 
0.01300    155660768.00000000 97136040.00000000 245929136.00000000 93554.34375000  7631798.50000000 6028690.00000000 
0.01400    154639536.00000000 96504256.00000000 244323184.00000000 92840.42187500  7577623.00000000 5986056.50000000 
0.01500    153552768.00000000 95832288.00000000 242613120.00000000 92080.49218750  7519923.00000000 5940664.00000000 
0.01600    152402480.00000000 95120392.00000000 240802528.00000000 91277.01562500  7458843.50000000 5892568.50000000 
0.01700    151186688.00000000 94369752.00000000 238892032.00000000 90431.14062500  7394450.00000000 5841923.00000000 
0.01800    149911744.00000000 93580576.00000000 236887088.00000000 89543.56250000  7326918.00000000 5788786.50000000 
0.01900    148580320.00000000 92756200.00000000 234790080.00000000 88617.11718750  7256362.50000000 5733270.50000000 
0.02000    147189696.00000000 91897256.00000000 232605232.00000000 87652.63281250  7182862.00000000 5675431.00000000 
0.02100    145748128.00000000 91004392.00000000 230334272.00000000 86653.32031250  7106641.00000000 5615416.00000000 
0.02200    144253136.00000000 90079192.00000000 227985424.00000000 85620.07031250  7027724.50000000 5553277.00000000 
0.02300    142710176.00000000 89124472.00000000 225555248.00000000 84554.92968750  6946299.50000000 5489172.00000000 
0.02400    141121056.00000000 88140080.00000000 223053360.00000000 83459.21875000  6862525.00000000 5423228.50000000 
0.02500    139487168.00000000 87128552.00000000 220482752.00000000 82335.66406250  6776505.00000000 5355478.50000000 
0.02600    137811344.00000000 86091312.00000000 217846976.00000000 81186.46093750  6688356.50000000 5286093.00000000 
0.02700    136098832.00000000 85030344.00000000 215151456.00000000 80012.86718750  6598387.50000000 5215188.00000000 
0.02800    134349696.00000000 83946616.00000000 212397600.00000000 78816.74218750  6506520.50000000 5142894.00000000 
0.02900    132567896.00000000 82841976.00000000 209590912.00000000 77601.78125000  6413083.50000000 5069285.50000000 
0.03000    130754592.00000000 81719008.00000000 206737072.00000000 76368.38281250  6318089.50000000 4994509.50000000 
0.03100    128914424.00000000 80577960.00000000 203839664.00000000 75118.75781250  6221826.00000000 4918668.00000000 
0.03200    127049152.00000000 79421880.00000000 200901472.00000000 73856.12500000  6124366.50000000 4841868.00000000 
0.03300    125161928.00000000 78251096.00000000 197928944.00000000 72580.85156250  6025871.00000000 4764240.00000000 
0.03400    123254592.00000000 77067904.00000000 194924224.00000000 71296.12500000  5926515.00000000 4685925.50000000 
0.03500    121331112.00000000 75874144.00000000 191894256.00000000 70002.90625000  5826360.50000000 4607017.50000000 
0.03600    119393192.00000000 74672296.00000000 188841680.00000000 68704.36718750  5725650.50000000 4527630.50000000 
0.03700    117444936.00000000 73463464.00000000 185770560.00000000 67401.88281250  5624448.00000000 4447888.00000000 
0.03800    115487024.00000000 72247584.00000000 182686464.00000000 66097.24218750  5522990.00000000 4367884.00000000 
0.03900    113523488.00000000 71028456.00000000 179590880.00000000 64791.96093750  5421349.00000000 4287739.00000000 
0.04000    111556480.00000000 69806456.00000000 176489040.00000000 63487.73828125  5319644.00000000 4207555.00000000 
0.04100    109588120.00000000 68583072.00000000 173385952.00000000 62186.81250000  5218055.00000000 4127417.50000000 
0.04200    107621096.00000000 67360056.00000000 170284960.00000000 60890.86328125  5116692.50000000 4047468.75000000 
0.04300    105658176.00000000 66140408.00000000 167189184.00000000 59600.86328125  5015682.50000000 3967772.25000000 
0.04400    103701528.00000000 64923288.00000000 164102944.00000000 58319.34375000  4915095.50000000 3888447.50000000 
0.04500    101753328.00000000 63711460.00000000 161030416.00000000 57046.91406250  4815168.50000000 3809567.25000000 
0.04600    99815440.00000000 62505948.00000000 157972992.00000000 55785.14843750  4715842.50000000 3731218.25000000 
0.04700    97890432.00000000 61307988.00000000 154935984.00000000 54535.95703125  4617406.00000000 3653511.25000000 
0.04800    95980648.00000000 60119124.00000000 151921424.00000000 53299.52343750  4519856.00000000 3576488.00000000 
0.04900    94087256.00000000 58939772.00000000 148933312.00000000 52078.17968750  4423281.50000000 3500269.50000000 
0.05000    92212864.00000000 57772176.00000000 145973504.00000000 50871.88671875  4327821.50000000 3424873.25000000 
0.05100    90357896.00000000 56616532.00000000 143045008.00000000 49682.69921875  4233518.50000000 3350410.25000000 
0.05200    88525120.00000000 55474484.00000000 140151456.00000000 48511.37109375  4140468.75000000 3276945.50000000 
0.05300    86716256.00000000 54346788.00000000 137295024.00000000 47358.70703125  4048795.00000000 3204513.00000000 
0.05400    84932232.00000000 53234160.00000000 134478384.00000000 46225.07421875  3958508.75000000 3133196.25000000 
0.05500    83174944.00000000 52137992.00000000 131702528.00000000 45111.37109375  3869694.25000000 3063010.75000000 
0.05600    81445280.00000000 51058536.00000000 128969784.00000000 44018.80078125  3782383.75000000 2994031.25000000 
0.05700    79744912.00000000 49996964.00000000 126282480.00000000 42947.17968750  3696669.75000000 2926289.00000000 
0.05800    78074256.00000000 48954084.00000000 123642248.00000000 41897.72265625  3612595.50000000 2859835.75000000 
0.05900    76433456.00000000 47929856.00000000 121050528.00000000 40870.14843750  3530179.75000000 2794690.25000000 
0.06000    74826296.00000000 46925644.00000000 118509064.00000000 39865.26953125  3449461.25000000 2730871.50000000 
0.06100    73250480.00000000 45941580.00000000 116019088.00000000 38883.33593750  3370491.75000000 2668433.25000000 
0.06200    71709384.00000000 44978152.00000000 113581384.00000000 37924.48046875  3293265.00000000 2607362.25000000 
0.06300    70202304.00000000 44035764.00000000 111196936.00000000 36988.86328125  3217847.50000000 2547736.50000000 
0.06400    68728912.00000000 43114784.00000000 108867416.00000000 36076.39453125  3144220.50000000 2489488.50000000 
0.06500    67290896.00000000 42215240.00000000 106592640.00000000 35187.55468750  3072374.75000000 2432659.00000000 
0.06600    65887708.00000000 41337796.00000000 104373272.00000000 34321.39843750  3002396.50000000 2377276.50000000 
0.06700    64519852.00000000 40481864.00000000 102209688.00000000 33478.83984375  2934178.50000000 2323315.75000000 
0.06800    63187676.00000000 39648396.00000000 100101608.00000000 32658.91796875  2867780.50000000 2270797.25000000 
0.06900    61891412.00000000 38837144.00000000 98051080.00000000 31861.89843750  2803198.50000000 2219688.25000000 
0.07000    60630472.00000000 38047784.00000000 96056280.00000000 31087.30273438  2740393.00000000 2169985.75000000 
0.07100    59405100.00000000 37280736.00000000 94116776.00000000 30335.03710938  2679363.00000000 2121689.00000000 
0.07200    58215184.00000000 36535732.00000000 92233912.00000000 29604.74609375  2620084.50000000 2074774.62500000 
0.07300    57060296.00000000 35812700.00000000 90405592.00000000 28895.68945312  2562549.75000000 2029230.75000000 
0.07400    55940152.00000000 35111088.00000000 88632984.00000000 28207.81835938  2506713.25000000 1985047.62500000 
0.07500    54853984.00000000 34430964.00000000 86914360.00000000 27540.54296875  2452540.25000000 1942187.12500000 
0.07600    53802148.00000000 33772176.00000000 85249008.00000000 26893.27929688  2400014.25000000 1900607.37500000 
0.07700    52783224.00000000 33134602.00000000 83637224.00000000 26265.82812500  2349117.25000000 1860329.12500000 
0.07800    51797304.00000000 32517374.00000000 82077304.00000000 25657.15625000  2299772.75000000 1821278.37500000 
0.07900    50843492.00000000 31920380.00000000 80567592.00000000 25067.19531250  2251959.75000000 1783440.00000000 
0.08000    49920984.00000000 31343114.00000000 79108576.00000000 24495.09765625  2205627.75000000 1746782.00000000 
0.08100    49028956.00000000 30785168.00000000 77697504.00000000 23940.56250000  2160766.00000000 1711291.12500000 
0.08200    48167328.00000000 30246238.00000000 76334152.00000000 23402.67187500  2117293.25000000 1676889.75000000 
0.08300    47334388.00000000 29725570.00000000 75017144.00000000 22880.93164062  2075177.62500000 1643570.00000000 
0.08400    46530424.00000000 29222732.00000000 73745512.00000000 22374.71289062  2034382.50000000 1611312.12500000 
0.08500    45753720.00000000 28737374.00000000 72517544.00000000 21883.73242188  1994851.50000000 1580031.25000000 
0.08600    45003532.00000000 28268776.00000000 71331896.00000000 21406.99804688  1956529.75000000 1549731.87500000 
0.08700    44279080.00000000 27816564.00000000 70186400.00000000 20944.04882812  1919381.00000000 1520355.75000000 
0.08800    43579060.00000000 27380026.00000000 69080976.00000000 20494.08007812  1883333.75000000 1491879.25000000 
0.08900    42903092.00000000 26958652.00000000 68013304.00000000 20056.99023438  1848381.62500000 1464235.37500000 
0.09000    42249888.00000000 26551824.00000000 66982864.00000000 19631.79492188  1814429.62500000 1437417.25000000 
0.09100    41618100.00000000 26158852.00000000 65985948.00000000 19218.23046875  1781459.25000000 1411388.50000000 
0.09200    41007752.00000000 25779440.00000000 65024120.00000000 18815.67382812  1749430.12500000 1386069.37500000 
0.09300    40417632.00000000 25412732.00000000 64093124.00000000 18423.29296875  1718267.62500000 1361468.75000000 
0.09400    39846212.00000000 25058164.00000000 63193192.00000000 18040.63671875  1687937.62500000 1337535.50000000 
0.09500    39292784.00000000 24715170.00000000 62321616.00000000 17667.61328125  1658395.50000000 1314215.62500000 
0.09600    38756680.00000000 24383146.00000000 61477224.00000000 17303.49218750  1629615.62500000 1291503.50000000 
0.09700    38236660.00000000 24061414.00000000 60659376.00000000 16947.67773438  1601534.62500000 1269363.37500000 
0.09800    37732144.00000000 23749600.00000000 59865692.00000000 16599.97460938  1574113.25000000 1247726.00000000 
0.09900    37241864.00000000 23447096.00000000 59095660.00000000 16259.87402344  1547324.87500000 1226603.87500000 
0.10000    36765180.00000000 23153254.00000000 58347248.00000000 15926.91406250  1521105.62500000 1205942.37500000 
0.10100    36301008.00000000 22867560.00000000 57618768.00000000 15600.72558594  1495439.00000000 1185706.00000000 
0.10200    35848640.00000000 22589514.00000000 56909588.00000000 15281.00000000  1470289.75000000 1165886.25000000 
0.10300    35407228.00000000 22318452.00000000 56217640.00000000 14967.41503906  1445607.75000000 1146447.12500000 
0.10400    34976316.00000000 22053970.00000000 55542208.00000000 14659.74316406  1421382.37500000 1127371.62500000 
0.10500    34554708.00000000 21795924.00000000 54882368.00000000 14357.67480469  1397583.12500000 1108613.75000000 
0.10600    34141540.00000000 21543342.00000000 54236352.00000000 14060.65722656  1374159.37500000 1090166.50000000 
0.10700    33736908.00000000 21295968.00000000 53602964.00000000 13769.07031250  1351098.00000000 1072005.62500000 
0.10800    33339432.00000000 21053334.00000000 52981884.00000000 13481.92773438  1328378.75000000 1054109.75000000 
0.10900    32948754.00000000 20814920.00000000 52371232.00000000 13199.55175781  1305971.12500000 1036468.50000000 
0.11000    32564072.00000000 20580586.00000000 51770380.00000000 12921.70410156  1283854.62500000 1019054.00000000 
0.11100    32184868.00000000 20349648.00000000 51178720.00000000 12648.01171875  1262016.62500000 1001859.68750000 
0.11200    31810752.00000000 20122134.00000000 50594668.00000000 12378.66894531  1240435.62500000 984850.37500000 
0.11300    31441054.00000000 19897406.00000000 50017804.00000000 12113.28515625  1219082.37500000 968037.00000000 
0.11400    31075364.00000000 19675270.00000000 49447640.00000000 11851.90722656  1197961.12500000 951394.68750000 
0.11500    30713258.00000000 19455374.00000000 48883020.00000000 11594.22265625  1177048.25000000 934922.43750000 
0.11600    30354248.00000000 19237456.00000000 48323300.00000000 11340.32226562  1156349.50000000 918602.06250000 
0.11700    29998330.00000000 19021202.00000000 47767936.00000000 11090.20996094  1135836.37500000 902428.43750000 
0.11800    29644454.00000000 18806510.00000000 47216756.00000000 10843.67480469  1115491.12500000 886384.81250000 
0.11900    29292790.00000000 18593028.00000000 46668632.00000000 10600.76855469  1095329.87500000 870488.31250000 
0.12000    28942876.00000000 18380638.00000000 46122904.00000000 10361.33984375  1075325.50000000 854708.37500000 
0.12100    28594804.00000000 18169422.00000000 45580296.00000000 10125.61718750  1055500.50000000 839060.18750000 
0.12200    28248018.00000000 17958670.00000000 45039360.00000000 9893.46386719   1035830.43750000 823528.31250000 
0.12300    27902228.00000000 17748808.00000000 44500152.00000000 9664.71093750   1016323.50000000 808117.25000000 
0.12400    27557714.00000000 17539244.00000000 43962368.00000000 9439.56542969   996967.81250000 792828.12500000 
0.12500    27213762.00000000 17330034.00000000 43425800.00000000 9217.91308594   977771.68750000 777647.56250000 
0.12600    26870790.00000000 17121260.00000000 42890208.00000000 8999.89160156   958735.56250000 762594.75000000 
0.12700    26528360.00000000 16912668.00000000 42355408.00000000 8785.42675781   939851.50000000 747649.81250000 
0.12800    26186538.00000000 16704260.00000000 41821320.00000000 8574.38671875   921130.25000000 732822.87500000 
0.12900    25845222.00000000 16496034.00000000 41287744.00000000 8367.13671875   902573.00000000 718123.62500000 
0.13000    25504378.00000000 16287998.00000000 40754508.00000000 8163.38085938   884177.25000000 703548.93750000 
0.13100    25164094.00000000 16079902.00000000 40221920.00000000 7963.24414062   865939.12500000 689092.62500000 
0.13200    24824146.00000000 15871863.00000000 39690012.00000000 7766.77490234   847887.75000000 674770.56250000 
0.13300    24484992.00000000 15663982.00000000 39158428.00000000 7573.96386719   830011.87500000 660578.75000000 
0.13400    24146274.00000000 15456056.00000000 38627396.00000000 7384.82421875   812311.43750000 646526.50000000 
0.13500    23808052.00000000 15248347.00000000 38097028.00000000 7199.28662109   794796.12500000 632612.37500000 
0.13600    23470692.00000000 15040898.00000000 37567252.00000000 7017.44873047   777474.75000000 618841.12500000 
0.13700    23134138.00000000 14833487.00000000 37038720.00000000 6839.28173828   760344.37500000 605212.75000000 
0.13800    22798372.00000000 14626410.00000000 36510944.00000000 6664.79882812   743413.37500000 591740.93750000 
0.13900    22463542.00000000 14419701.00000000 35984464.00000000 6493.91601562   726690.31250000 578423.93750000 
0.14000    22129698.00000000 14213374.00000000 35459552.00000000 6326.76025391   710171.43750000 565267.37500000 
0.14100    21797176.00000000 14007497.00000000 34935600.00000000 6163.16748047   693862.56250000 552268.43750000 
0.14200    21465832.00000000 13802028.00000000 34413744.00000000 6003.20361328   677777.50000000 539437.81250000 
0.14300    21135946.00000000 13597309.00000000 33893708.00000000 5846.86328125   661914.75000000 526783.50000000 
0.14400    20807550.00000000 13393062.00000000 33375510.00000000 5694.00146484   646276.00000000 514294.87500000 
0.14500    20481060.00000000 13189709.00000000 32859692.00000000 5544.74169922   630861.37500000 501991.15625000 
0.14600    20156196.00000000 12987238.00000000 32346376.00000000 5398.91406250   615689.37500000 489865.21875000 
0.14700    19833250.00000000 12785605.00000000 31835944.00000000 5256.61279297   600747.81250000 477924.25000000 
0.14800    19512366.00000000 12585067.00000000 31328298.00000000 5117.64355469   586046.75000000 466166.34375000 
0.14900    19193626.00000000 12385507.00000000 30823564.00000000 4982.02539062   571584.68750000 454594.31250000 
0.15000    18877324.00000000 12187174.00000000 30322670.00000000 4849.71630859   557362.50000000 443216.53125000 
0.15100    18563444.00000000 11990117.00000000 29824730.00000000 4720.64257812   543392.56250000 432028.65625000 
0.15200    18252158.00000000 11794509.00000000 29330968.00000000 4594.74755859   529667.12500000 421039.96875000 
0.15300    17943478.00000000 11600248.00000000 28841086.00000000 4471.95947266   516188.43750000 410240.15625000 
0.15400    17637648.00000000 11407521.00000000 28355166.00000000 4352.21337891   502954.62500000 399634.34375000 
0.15500    17334650.00000000 11216347.00000000 27873670.00000000 4235.48876953   489970.65625000 389228.06250000 
0.15600    17034652.00000000 11026862.00000000 27396738.00000000 4121.62548828   477237.93750000 379018.90625000 
0.15700    16737795.00000000 10839076.00000000 26924450.00000000 4010.69140625   464751.93750000 369007.31250000 
0.15800    16444339.00000000 10653069.00000000 26456754.00000000 3902.48828125   452512.25000000 359186.31250000 
0.15900    16154000.00000000 10469027.00000000 25994308.00000000 3796.97021484   440519.81250000 349566.03125000 
0.16000    15867030.00000000 10286816.00000000 25536880.00000000 3694.06176758   428772.84375000 340138.68750000 
0.16100    15583570.00000000 10106641.00000000 25084684.00000000 3593.80664062   417265.40625000 330906.56250000 
0.16200    15303575.00000000 9928507.00000000 24638090.00000000 3496.00585938   406001.25000000 321871.28125000 
0.16300    15027222.00000000 9752521.00000000 24196712.00000000 3400.61547852   394975.93750000 313021.56250000 
0.16400    14754544.00000000 9578655.00000000 23761084.00000000 3307.62548828   384187.81250000 304367.15625000 
0.16500    14485538.00000000 9406976.00000000 23331108.00000000 3216.90185547   373633.90625000 295897.43750000 
0.16600    14220266.00000000 9237525.00000000 22906904.00000000 3128.42651367   363315.34375000 287614.93750000 
0.16700    13958709.00000000 9070204.00000000 22488592.00000000 3042.10449219   353219.90625000 279514.40625000 
0.16800    13700900.00000000 8905355.00000000 22076220.00000000 2957.87524414   343349.06250000 271598.06250000 
0.16900    13447180.00000000 8742705.00000000 21669812.00000000 2875.73388672   333704.96875000 263860.03125000 
0.17000    13197267.00000000 8582427.00000000 21269168.00000000 2795.56420898   324277.87500000 256298.98437500 
