# SAXS profile: number of points = 501, q_min = 0, q_max = 0.5, delta_q = 0.001
#    q    intensity 
0.00000    162235440.00000000 101202112.00000000 256270448.00000000 105172.35937500 8261516.50000000 6524916.50000000 
0.00100    162199104.00000000 101178368.00000000 256209632.00000000 105140.51562500 8259268.00000000 6523128.00000000 
0.00200    162088416.00000000 101107552.00000000 256032048.00000000 105046.21875000 8252606.50000000 6517942.50000000 
0.00300    161901808.00000000 100990440.00000000 255732320.00000000 104888.21093750 8241509.50000000 6509195.00000000 
0.00400    161635488.00000000 100826392.00000000 255314944.00000000 104667.33593750 8225994.50000000 6496981.00000000 
0.00500    161294320.00000000 100615520.00000000 254780512.00000000 104384.60156250 8206172.00000000 6481408.00000000 
0.00600    160876864.00000000 100356464.00000000 254124192.00000000 104041.42968750 8182011.50000000 6462357.50000000 
0.00700    160387472.00000000 100053992.00000000 253355152.00000000 103635.56250000 8153503.00000000 6439937.50000000 
0.00800    159818048.00000000 99706824.00000000 252470976.00000000 103170.35156250 8120777.50000000 6414175.50000000 
0.00900    159183088.00000000 99315064.00000000 251472320.00000000 102646.46875000 8083902.50000000 6385098.00000000 
0.01000    158478032.00000000 98879864.00000000 250363184.00000000 102064.59375000 8042876.00000000 6352886.00000000 
0.01100    157704368.00000000 98399808.00000000 249142864.00000000 101425.78125000 7997816.00000000 6317456.00000000 
0.01200    156861792.00000000 97877720.00000000 247814096.00000000 100731.43750000 7948824.50000000 6278893.50000000 
0.01300    155949168.00000000 97313984.00000000 246380736.00000000 99982.64843750  7896011.00000000 6237307.50000000 
0.01400    154970096.00000000 96708920.00000000 244844000.00000000 99182.25000000  7839417.50000000 6192724.50000000 
0.01500    153929584.00000000 96064872.00000000 243205616.00000000 98329.22656250  7779146.00000000 6145349.50000000 
0.01600    152826496.00000000 95382184.00000000 241471488.00000000 97428.11718750  7715339.00000000 6095103.00000000 
0.01700    151662000.00000000 94662936.00000000 239640480.00000000 96479.75000000  7648097.00000000 6042202.00000000 
0.01800    150437584.00000000 93906976.00000000 237715216.00000000 95485.84375000  7577554.00000000 5986652.50000000 
0.01900    149158768.00000000 93115024.00000000 235702608.00000000 94447.96093750  7503812.50000000 5928607.50000000 
0.02000    147825392.00000000 92289944.00000000 233603840.00000000 93368.51562500  7427043.50000000 5868186.50000000 
0.02100    146437488.00000000 91431808.00000000 231423216.00000000 92249.30468750  7347357.50000000 5805437.50000000 
0.02200    145001392.00000000 90542840.00000000 229162032.00000000 91092.73437500  7264887.50000000 5740456.50000000 
0.02300    143516128.00000000 89624320.00000000 226825520.00000000 89901.12500000  7179756.50000000 5673443.50000000 
0.02400    141985008.00000000 88677120.00000000 224415744.00000000 88676.53125000  7092110.50000000 5604452.50000000 
0.02500    140410512.00000000 87702304.00000000 221940112.00000000 87420.96093750  7002151.50000000 5533623.00000000 
0.02600    138795200.00000000 86701992.00000000 219398432.00000000 86136.53906250  6910021.00000000 5461065.50000000 
0.02700    137142032.00000000 85678512.00000000 216794896.00000000 84826.32812500  6815827.50000000 5386894.50000000 
0.02800    135451792.00000000 84631208.00000000 214136080.00000000 83492.85937500  6719744.00000000 5311187.00000000 
0.02900    133728216.00000000 83564240.00000000 211422880.00000000 82136.82031250  6621948.00000000 5234143.50000000 
0.03000    131974408.00000000 82477328.00000000 208659600.00000000 80762.39843750  6522528.00000000 5155833.50000000 
0.03100    130190712.00000000 81372680.00000000 205854720.00000000 79370.82812500  6421715.00000000 5076430.00000000 
0.03200    128381816.00000000 80251128.00000000 203006016.00000000 77964.55468750  6319630.50000000 4995986.50000000 
0.03300    126549448.00000000 79115696.00000000 200120224.00000000 76546.28906250  6216453.00000000 4914712.50000000 
0.03400    124696120.00000000 77966760.00000000 197202128.00000000 75117.49218750  6112292.00000000 4832581.00000000 
0.03500    122824280.00000000 76806600.00000000 194255376.00000000 73681.36718750  6007399.00000000 4749880.00000000 
0.03600    120936736.00000000 75636816.00000000 191281792.00000000 72239.50781250  5901762.50000000 4666661.50000000 
0.03700    119035656.00000000 74457896.00000000 188288672.00000000 70794.74218750  5795648.00000000 4583043.50000000 
0.03800    117123808.00000000 73272208.00000000 185276864.00000000 69347.96093750  5689240.00000000 4499142.00000000 
0.03900    115204680.00000000 72081312.00000000 182251840.00000000 67902.81250000  5582531.50000000 4415022.00000000 
0.04000    113277592.00000000 70885496.00000000 179215616.00000000 66459.17968750  5475791.00000000 4330877.50000000 
0.04100    111347544.00000000 69687640.00000000 176174512.00000000 65020.82031250  5369103.00000000 4246746.50000000 
0.04200    109417168.00000000 68488256.00000000 173132400.00000000 63588.75781250  5262623.50000000 4162750.00000000 
0.04300    107486432.00000000 67289328.00000000 170089520.00000000 62165.15625000  5156496.00000000 4079018.50000000 
0.04400    105558968.00000000 66092156.00000000 167051232.00000000 60751.81250000  5050786.00000000 3995664.25000000 
0.04500    103637600.00000000 64898116.00000000 164022288.00000000 59349.87500000  4945687.00000000 3912738.75000000 
0.04600    101722544.00000000 63708772.00000000 161002464.00000000 57961.46093750  4841290.50000000 3830353.75000000 
0.04700    99817544.00000000 62524528.00000000 157998016.00000000 56587.82031250  4737648.50000000 3748575.50000000 
0.04800    97923184.00000000 61347128.00000000 155011408.00000000 55230.40234375  4634968.50000000 3667545.50000000 
0.04900    96043072.00000000 60177668.00000000 152045136.00000000 53890.22265625  4533249.50000000 3587292.75000000 
0.05000    94176768.00000000 59017512.00000000 149102208.00000000 52569.27343750  4432697.50000000 3507918.25000000 
0.05100    92327760.00000000 57867320.00000000 146185856.00000000 51267.25000000  4333300.50000000 3429456.50000000 
0.05200    90496784.00000000 56728208.00000000 143297680.00000000 49986.97656250  4235235.00000000 3352025.75000000 
0.05300    88686536.00000000 55601276.00000000 140440176.00000000 48728.34765625  4138498.75000000 3275671.25000000 
0.05400    86896920.00000000 54487508.00000000 137616928.00000000 47492.61328125  4043230.25000000 3200437.50000000 
0.05500    85129976.00000000 53387832.00000000 134829328.00000000 46280.26562500  3949480.25000000 3126380.75000000 
0.05600    83387712.00000000 52302644.00000000 132079800.00000000 45091.96484375  3857279.75000000 3053550.00000000 
0.05700    81670104.00000000 51232676.00000000 129368840.00000000 43928.83203125  3766706.25000000 2982030.75000000 
0.05800    79979656.00000000 50179628.00000000 126700216.00000000 42790.87500000  3677817.50000000 2911828.25000000 
0.05900    78315584.00000000 49143220.00000000 124073560.00000000 41678.53906250  3590677.75000000 2842942.00000000 
0.06000    76680592.00000000 48124400.00000000 121492288.00000000 40592.52734375  3505268.00000000 2775490.50000000 
0.06100    75074720.00000000 47123744.00000000 118956072.00000000 39532.89843750  3421696.25000000 2709432.00000000 
0.06200    73498528.00000000 46141616.00000000 116468080.00000000 38499.82031250  3339918.25000000 2644836.50000000 
0.06300    71953864.00000000 45178508.00000000 114028360.00000000 37493.65234375  3260021.50000000 2581689.50000000 
0.06400    70439704.00000000 44234700.00000000 111637464.00000000 36514.17187500  3181985.50000000 2520000.50000000 
0.06500    68958256.00000000 43310568.00000000 109297376.00000000 35561.16015625  3105826.25000000 2459810.50000000 
0.06600    67508512.00000000 42406124.00000000 107006872.00000000 34635.09375000  3031580.00000000 2401132.75000000 
0.06700    66090956.00000000 41522416.00000000 104768624.00000000 33735.00390625  2959222.75000000 2343924.50000000 
0.06800    64707020.00000000 40659052.00000000 102582608.00000000 32861.42968750  2888747.50000000 2288217.00000000 
0.06900    63355724.00000000 39815844.00000000 100447496.00000000 32013.74414062  2820162.75000000 2234001.75000000 
0.07000    62037544.00000000 38993332.00000000 98365208.00000000 31192.06640625  2753464.75000000 2181270.00000000 
0.07100    60752756.00000000 38191708.00000000 96335424.00000000 30395.08398438  2688639.50000000 2130016.75000000 
0.07200    59501160.00000000 37410572.00000000 94357328.00000000 29623.17187500  2625636.75000000 2080203.87500000 
0.07300    58282376.00000000 36650172.00000000 92432120.00000000 28875.24023438  2564476.25000000 2031862.50000000 
0.07400    57096520.00000000 35910324.00000000 90559000.00000000 28151.33203125  2505145.00000000 1984933.50000000 
0.07500    55943128.00000000 35190848.00000000 88736896.00000000 27450.43945312  2447548.00000000 1939412.37500000 
0.07600    54822152.00000000 34491720.00000000 86966176.00000000 26772.57617188  2391719.75000000 1895263.12500000 
0.07700    53733424.00000000 33812288.00000000 85246568.00000000 26116.64257812  2337574.25000000 1852473.62500000 
0.07800    52676340.00000000 33153080.00000000 83576088.00000000 25482.00585938  2285134.75000000 1811005.87500000 
0.07900    51649840.00000000 32512968.00000000 81954952.00000000 24868.11132812  2234291.75000000 1770834.87500000 
0.08000    50654208.00000000 31892200.00000000 80382424.00000000 24274.29687500  2185075.00000000 1731923.12500000 
0.08100    49688872.00000000 31290500.00000000 78858312.00000000 23699.97851562  2137393.50000000 1694234.87500000 
0.08200    48752904.00000000 30706868.00000000 77379456.00000000 23144.27539062  2091209.12500000 1657750.50000000 
0.08300    47845716.00000000 30141662.00000000 75947584.00000000 22606.34179688  2046517.37500000 1622417.37500000 
0.08400    46966720.00000000 29593834.00000000 74559488.00000000 22086.02343750  2003231.37500000 1588208.12500000 
0.08500    46114880.00000000 29063662.00000000 73215536.00000000 21581.99804688  1961310.25000000 1555087.37500000 
0.08600    45290096.00000000 28550124.00000000 71913608.00000000 21093.98046875  1920708.50000000 1523017.50000000 
0.08700    44491160.00000000 28052974.00000000 70653088.00000000 20621.24023438  1881379.12500000 1491959.37500000 
0.08800    43717552.00000000 27571708.00000000 69432512.00000000 20162.85937500  1843273.75000000 1461855.62500000 
0.08900    42968376.00000000 27106024.00000000 68251192.00000000 19718.39843750  1806340.50000000 1432691.25000000 
0.09000    42242648.00000000 26654992.00000000 67107064.00000000 19287.14257812  1770525.25000000 1404414.12500000 
0.09100    41539764.00000000 26218682.00000000 65999236.00000000 18868.18164062  1735785.00000000 1377007.62500000 
0.09200    40859056.00000000 25796130.00000000 64926540.00000000 18461.12500000  1702088.12500000 1350398.75000000 
0.09300    40199412.00000000 25387068.00000000 63887192.00000000 18065.45312500  1669367.87500000 1324576.87500000 
0.09400    39559980.00000000 24990646.00000000 62880548.00000000 17680.15625000  1637577.62500000 1299489.25000000 
0.09500    38940016.00000000 24606632.00000000 61904520.00000000 17305.23437500  1606657.37500000 1275112.12500000 
0.09600    38338908.00000000 24234532.00000000 60958552.00000000 16939.55273438  1576594.12500000 1251394.37500000 
0.09700    37755340.00000000 23873486.00000000 60040436.00000000 16583.16406250  1547332.62500000 1228323.50000000 
0.09800    37189168.00000000 23523424.00000000 59149584.00000000 16235.15234375  1518818.37500000 1205831.50000000 
0.09900    36639148.00000000 23183824.00000000 58285048.00000000 15895.13281250  1491022.25000000 1183912.75000000 
0.10000    36104304.00000000 22853616.00000000 57444844.00000000 15562.64160156  1463887.00000000 1162528.75000000 
0.10100    35584392.00000000 22532914.00000000 56627324.00000000 15237.30859375  1437386.50000000 1141654.50000000 
0.10200    35078456.00000000 22220916.00000000 55832792.00000000 14918.86621094  1411492.37500000 1121242.62500000 
0.10300    34585312.00000000 21917238.00000000 55058772.00000000 14606.67773438  1386155.50000000 1101270.62500000 
0.10400    34104736.00000000 21621302.00000000 54304256.00000000 14300.53417969  1361338.62500000 1081721.12500000 
0.10500    33635932.00000000 21333080.00000000 53568884.00000000 14000.18066406  1337031.62500000 1062549.75000000 
0.10600    33177826.00000000 21051560.00000000 52850292.00000000 13705.01757812  1313166.25000000 1043757.12500000 
0.10700    32730230.00000000 20776556.00000000 52148488.00000000 13415.21582031  1289758.75000000 1025314.50000000 
0.10800    32292036.00000000 20507610.00000000 51461804.00000000 13130.21093750  1266743.87500000 1007169.25000000 
0.10900    31863122.00000000 20244424.00000000 50789572.00000000 12849.87011719  1244112.75000000 989340.50000000 
0.11000    31442760.00000000 19986478.00000000 50131080.00000000 12574.06835938  1221850.37500000 971792.06250000 
0.11100    31030142.00000000 19733724.00000000 49484332.00000000 12302.54296875  1199904.12500000 954499.50000000 
0.11200    30624928.00000000 19485320.00000000 48849884.00000000 12035.10449219  1178278.75000000 937454.25000000 
0.11300    30226410.00000000 19241350.00000000 48225912.00000000 11771.78027344  1156965.12500000 920640.87500000 
0.11400    29834468.00000000 19001358.00000000 47612320.00000000 11512.35449219  1135932.50000000 904052.06250000 
0.11500    29448386.00000000 18764744.00000000 47007584.00000000 11256.61230469  1115169.62500000 887663.06250000 
0.11600    29067660.00000000 18531884.00000000 46411816.00000000 11004.68359375  1094641.25000000 871473.18750000 
0.11700    28692144.00000000 18301856.00000000 45824008.00000000 10756.46191406  1074361.12500000 855459.93750000 
0.11800    28321240.00000000 18074682.00000000 45243188.00000000 10511.69433594  1054316.62500000 839633.62500000 
0.11900    27954574.00000000 17850066.00000000 44669192.00000000 10270.60742188  1034471.50000000 823964.25000000 
0.12000    27592074.00000000 17627954.00000000 44101308.00000000 10032.98535156  1014841.56250000 808453.00000000 
0.12100    27233280.00000000 17408090.00000000 43539116.00000000 9798.96679688   995432.12500000 793107.06250000 
0.12200    26877888.00000000 17190194.00000000 42982804.00000000 9568.44335938   976212.06250000 777909.06250000 
0.12300    26525748.00000000 16974212.00000000 42430920.00000000 9341.40429688   957188.12500000 762855.81250000 
0.12400    26176476.00000000 16759964.00000000 41883252.00000000 9117.93945312   938362.00000000 747953.87500000 
0.12500    25829958.00000000 16547307.00000000 41339968.00000000 8897.98632812   919708.50000000 733186.62500000 
0.12600    25486268.00000000 16336063.00000000 40800884.00000000 8681.69140625   901257.93750000 718568.87500000 
0.12700    25144862.00000000 16126212.00000000 40265324.00000000 8468.93066406   882986.81250000 704086.43750000 
0.12800    24805862.00000000 15917538.00000000 39733156.00000000 8259.81152344   864906.37500000 689749.43750000 
0.12900    24469104.00000000 15710140.00000000 39204432.00000000 8054.37646484   847017.81250000 675550.18750000 
0.13000    24134336.00000000 15503916.00000000 38678796.00000000 7852.62255859   829307.81250000 661490.75000000 
0.13100    23801724.00000000 15298571.00000000 38155844.00000000 7654.50781250   811793.18750000 647585.06250000 
0.13200    23470886.00000000 15094395.00000000 37636044.00000000 7460.26953125   794473.12500000 633818.18750000 
0.13300    23142596.00000000 14891150.00000000 37118736.00000000 7269.70703125   777348.31250000 620205.00000000 
0.13400    22815678.00000000 14688901.00000000 36604528.00000000 7082.97070312   760428.87500000 606741.12500000 
0.13500    22490776.00000000 14487576.00000000 36092556.00000000 6900.07226562   743703.93750000 593439.25000000 
0.13600    22167892.00000000 14287268.00000000 35583744.00000000 6721.00488281   727193.87500000 580286.31250000 
0.13700    21846850.00000000 14087856.00000000 35077572.00000000 6545.80273438   710883.68750000 567296.31250000 
0.13800    21527836.00000000 13889529.00000000 34574304.00000000 6374.45556641   694799.87500000 554465.12500000 
0.13900    21210708.00000000 13692165.00000000 34073760.00000000 6207.01757812   678929.56250000 541807.62500000 
0.14000    20895710.00000000 13495878.00000000 33576352.00000000 6043.46435547   663283.50000000 529319.93750000 
0.14100    20582838.00000000 13300506.00000000 33081588.00000000 5883.80224609   647862.12500000 517005.62500000 
0.14200    20272152.00000000 13106332.00000000 32589998.00000000 5728.01025391   632670.68750000 504872.21875000 
0.14300    19963580.00000000 12913274.00000000 32101730.00000000 5576.04345703   617711.06250000 492916.40625000 
0.14400    19656892.00000000 12721285.00000000 31616446.00000000 5427.93017578   602985.62500000 481147.59375000 
0.14500    19352978.00000000 12530619.00000000 31134846.00000000 5283.63964844   588509.56250000 469559.96875000 
0.14600    19051578.00000000 12341312.00000000 30656782.00000000 5143.12841797   574272.25000000 458167.28125000 
0.14700    18752400.00000000 12153320.00000000 30182464.00000000 5006.40966797   560282.18750000 446965.87500000 
0.14800    18455898.00000000 11966610.00000000 29711594.00000000 4873.37158203   546537.56250000 435954.40625000 
0.14900    18162012.00000000 11781359.00000000 29244840.00000000 4743.95898438   533043.68750000 425140.78125000 
0.15000    17870804.00000000 11597562.00000000 28781950.00000000 4618.18408203   519804.62500000 414526.50000000 
0.15100    17582490.00000000 11415408.00000000 28323606.00000000 4495.94873047   506817.15625000 404109.15625000 
0.15200    17297022.00000000 11234808.00000000 27869370.00000000 4377.26611328   494085.62500000 393896.31250000 
0.15300    17014544.00000000 11055912.00000000 27419606.00000000 4262.01025391   481611.34375000 383882.21875000 
0.15400    16735010.00000000 10878590.00000000 26974322.00000000 4150.09619141   469385.21875000 374067.56250000 
0.15500    16458598.00000000 10703101.00000000 26533800.00000000 4041.46899414   457421.71875000 364459.34375000 
0.15600    16185485.00000000 10529487.00000000 26098076.00000000 3936.10864258   445706.56250000 355048.56250000 
0.15700    15915493.00000000 10357636.00000000 25667176.00000000 3833.84960938   434252.21875000 345846.46875000 
0.15800    15648719.00000000 10187802.00000000 25241194.00000000 3734.65747070   423045.00000000 336839.59375000 
0.15900    15385276.00000000 10019759.00000000 24820536.00000000 3638.47167969   412094.62500000 328037.65625000 
0.16000    15125316.00000000 9853716.00000000 24404840.00000000 3545.16796875   401387.81250000 319429.18750000 
0.16100    14868709.00000000 9689788.00000000 23994644.00000000 3454.70263672   390934.56250000 311023.65625000 
0.16200    14615618.00000000 9527890.00000000 23589874.00000000 3366.95214844   380722.34375000 302813.15625000 
0.16300    14366044.00000000 9368112.00000000 23190194.00000000 3281.86230469   370751.53125000 294797.53125000 
0.16400    14119974.00000000 9210378.00000000 22796070.00000000 3199.32714844   361022.06250000 286972.50000000 
0.16500    13877340.00000000 9054822.00000000 22407598.00000000 3119.29028320   351528.50000000 279337.25000000 
0.16600    13638518.00000000 8901429.00000000 22024750.00000000 3041.66064453   342266.62500000 271888.62500000 
0.16700    13403115.00000000 8750121.00000000 21647280.00000000 2966.29858398   333230.25000000 264624.84375000 
0.16800    13171254.00000000 8601064.00000000 21275518.00000000 2893.14355469   324420.31250000 257539.75000000 
0.16900    12943131.00000000 8454211.00000000 20909338.00000000 2822.18212891   315834.31250000 250635.01562500 
0.17000    12718561.00000000 8309614.00000000 20548982.00000000 2753.27490234   307455.93750000 243903.56250000 
