# SAXS profile: number of points = 501, q_min = 0, q_max = 0.5, delta_q = 0.001
#    q    intensity 
0.00000    162237472.00000000 101201632.00000000 256271808.00000000 106679.78906250 8320518.50000000 6571508.00000000 
0.00100    162206992.00000000 101182600.00000000 256223280.00000000 106654.03906250 8318688.50000000 6570101.50000000 
0.00200    162116240.00000000 101125800.00000000 256078224.00000000 106576.17187500 8313238.00000000 6565834.50000000 
0.00300    161963072.00000000 101030848.00000000 255836640.00000000 106445.92968750 8304138.00000000 6558704.00000000 
0.00400    161747520.00000000 100898432.00000000 255497824.00000000 106264.16406250 8291458.50000000 6548707.00000000 
0.00500    161469376.00000000 100728952.00000000 255063760.00000000 106031.11718750 8275156.50000000 6535950.50000000 
0.00600    161129680.00000000 100520832.00000000 254533344.00000000 105746.82812500 8255310.50000000 6520378.00000000 
0.00700    160731664.00000000 100275480.00000000 253907600.00000000 105411.44531250 8231862.50000000 6502006.50000000 
0.00800    160271744.00000000 99994152.00000000 253187888.00000000 105026.34375000 8204929.00000000 6480875.00000000 
0.00900    159751264.00000000 99675712.00000000 252376480.00000000 104591.93750000 8174521.50000000 6457018.50000000 
0.01000    159173072.00000000 99321816.00000000 251471872.00000000 104108.42968750 8140663.00000000 6430442.50000000 
0.01100    158537920.00000000 98932408.00000000 250476144.00000000 103576.46093750 8103386.50000000 6401243.50000000 
0.01200    157845280.00000000 98507192.00000000 249390656.00000000 102996.67187500 8062802.00000000 6369382.00000000 
0.01300    157096480.00000000 98047632.00000000 248215744.00000000 102370.42187500 8018927.50000000 6334983.50000000 
0.01400    156290944.00000000 97553712.00000000 246955152.00000000 101698.36718750 7971818.00000000 6298023.50000000 
0.01500    155430896.00000000 97025936.00000000 245607472.00000000 100982.09375000 7921520.00000000 6258583.50000000 
0.01600    154516848.00000000 96464752.00000000 244175344.00000000 100221.14062500 7868146.00000000 6216689.00000000 
0.01700    153550832.00000000 95871776.00000000 242663376.00000000 99418.71093750  7811727.00000000 6172423.50000000 
0.01800    152533760.00000000 95247744.00000000 241068160.00000000 98574.03906250  7752352.50000000 6125857.00000000 
0.01900    151466000.00000000 94591960.00000000 239394896.00000000 97689.71875000  7690107.00000000 6076998.50000000 
0.02000    150349104.00000000 93907000.00000000 237644368.00000000 96765.78906250  7625043.00000000 6025957.00000000 
0.02100    149184912.00000000 93191848.00000000 235820272.00000000 95804.28906250  7557294.00000000 5972767.00000000 
0.02200    147974192.00000000 92448976.00000000 233923024.00000000 94806.58593750  7486891.50000000 5917522.50000000 
0.02300    146719136.00000000 91677552.00000000 231955232.00000000 93773.85156250  7413977.00000000 5860314.00000000 
0.02400    145420160.00000000 90880080.00000000 229920176.00000000 92707.86718750  7338577.50000000 5801154.50000000 
0.02500    144079216.00000000 90056848.00000000 227817376.00000000 91609.57031250  7260857.50000000 5740181.00000000 
0.02600    142698816.00000000 89208576.00000000 225652944.00000000 90480.39843750  7180927.00000000 5677397.50000000 
0.02700    141279168.00000000 88336624.00000000 223428544.00000000 89322.90625000  7098807.50000000 5612923.50000000 
0.02800    139822240.00000000 87441280.00000000 221143008.00000000 88137.56250000  7014660.00000000 5546854.00000000 
0.02900    138329264.00000000 86523584.00000000 218803184.00000000 86926.67187500  6928538.50000000 5479227.00000000 
0.03000    136804160.00000000 85585712.00000000 216409424.00000000 85690.99218750  6840584.50000000 5410223.00000000 
0.03100    135245904.00000000 84627192.00000000 213965168.00000000 84432.72656250  6750941.50000000 5339791.00000000 
0.03200    133656456.00000000 83650296.00000000 211474096.00000000 83153.52343750  6659622.00000000 5268087.00000000 
0.03300    132039536.00000000 82655712.00000000 208937552.00000000 81855.69531250  6566863.00000000 5195185.50000000 
0.03400    130394840.00000000 81643688.00000000 206357792.00000000 80539.46093750  6472614.50000000 5121172.00000000 
0.03500    128725648.00000000 80616536.00000000 203737984.00000000 79207.25000000  6377136.50000000 5046140.00000000 
0.03600    127032248.00000000 79574232.00000000 201080656.00000000 77861.00781250  6280444.50000000 4970187.00000000 
0.03700    125317480.00000000 78518840.00000000 198391344.00000000 76501.57031250  6182707.00000000 4893350.50000000 
0.03800    123583256.00000000 77450680.00000000 195668304.00000000 75131.17968750  6083981.50000000 4815784.50000000 
0.03900    121830776.00000000 76371648.00000000 192917456.00000000 73751.94531250  5984431.00000000 4737542.00000000 
0.04000    120062008.00000000 75281928.00000000 190141472.00000000 72364.43750000  5884119.50000000 4658640.50000000 
0.04100    118279064.00000000 74182584.00000000 187341664.00000000 70970.75000000  5783169.00000000 4579285.00000000 
0.04200    116483480.00000000 73075728.00000000 184521296.00000000 69572.52343750  5681716.00000000 4499508.00000000 
0.04300    114676448.00000000 71962072.00000000 181682928.00000000 68171.58593750  5579831.50000000 4419398.50000000 
0.04400    112860224.00000000 70841968.00000000 178831968.00000000 66769.16406250  5477645.50000000 4339016.50000000 
0.04500    111037272.00000000 69717792.00000000 175967456.00000000 65366.87109375  5375232.50000000 4258489.00000000 
0.04600    109207792.00000000 68589688.00000000 173092944.00000000 63966.04296875  5272774.50000000 4177831.25000000 
0.04700    107374672.00000000 67457424.00000000 170212624.00000000 62568.38671875  5170285.50000000 4097185.50000000 
0.04800    105539336.00000000 66324284.00000000 167328320.00000000 61174.85156250  5067865.50000000 4016587.25000000 
0.04900    103703016.00000000 65190156.00000000 164441680.00000000 59787.40234375  4965656.50000000 3936160.00000000 
0.05000    101867776.00000000 64056364.00000000 161556400.00000000 58407.30468750  4863757.50000000 3855914.00000000 
0.05100    100035312.00000000 62923644.00000000 158674656.00000000 57035.73437500  4762221.50000000 3775950.75000000 
0.05200    98206496.00000000 61792940.00000000 155798848.00000000 55674.03906250  4661185.00000000 3696385.00000000 
0.05300    96383424.00000000 60665644.00000000 152931040.00000000 54323.31250000  4560711.50000000 3617242.75000000 
0.05400    94568008.00000000 59542188.00000000 150074736.00000000 52984.61328125  4460866.50000000 3538595.00000000 
0.05500    92760432.00000000 58423516.00000000 147231120.00000000 51660.06640625  4361786.00000000 3460497.00000000 
0.05600    90963360.00000000 57310816.00000000 144401728.00000000 50349.39453125  4263508.50000000 3383040.00000000 
0.05700    89177656.00000000 56204668.00000000 141590720.00000000 49054.39453125  4166097.75000000 3306259.25000000 
0.05800    87404048.00000000 55105672.00000000 138798512.00000000 47775.85937500  4069680.50000000 3230221.75000000 
0.05900    85644792.00000000 54015164.00000000 136027856.00000000 46514.82031250  3974303.75000000 3154979.75000000 
0.06000    83900752.00000000 52933616.00000000 133281176.00000000 45272.18750000  3880004.25000000 3080602.00000000 
0.06100    82172840.00000000 51861536.00000000 130558552.00000000 44048.29296875  3786850.50000000 3007114.00000000 
0.06200    80462312.00000000 50800052.00000000 127864064.00000000 42844.60156250  3694957.00000000 2934595.00000000 
0.06300    78770888.00000000 49749796.00000000 125197680.00000000 41661.74609375  3604347.00000000 2863060.25000000 
0.06400    77098632.00000000 48710952.00000000 122561824.00000000 40499.85546875  3515056.25000000 2792543.00000000 
0.06500    75446640.00000000 47684596.00000000 119957248.00000000 39360.22656250  3427152.25000000 2723129.75000000 
0.06600    73816648.00000000 46671084.00000000 117386336.00000000 38242.79296875  3340693.00000000 2654818.75000000 
0.06700    72208904.00000000 45671028.00000000 114850416.00000000 37148.42578125  3255696.00000000 2587655.25000000 
0.06800    70625088.00000000 44684952.00000000 112350056.00000000 36077.26953125  3172234.00000000 2521681.00000000 
0.06900    69064440.00000000 43713544.00000000 109887736.00000000 35029.88281250  3090303.75000000 2456920.00000000 
0.07000    67529008.00000000 42756628.00000000 107463880.00000000 34006.99218750  3009986.00000000 2393382.25000000 
0.07100    66018968.00000000 41815348.00000000 105078528.00000000 33007.96093750  2931264.75000000 2331110.00000000 
0.07200    64534824.00000000 40889824.00000000 102734552.00000000 32034.19921875  2854176.50000000 2270102.00000000 
0.07300    63077444.00000000 39980348.00000000 100431992.00000000 31084.69921875  2778767.75000000 2210397.00000000 
0.07400    61647104.00000000 39087488.00000000 98170960.00000000 30160.39257812  2705038.75000000 2152017.50000000 
0.07500    60244364.00000000 38210844.00000000 95953360.00000000 29260.93945312  2632989.00000000 2094969.62500000 
0.07600    58869220.00000000 37351820.00000000 93779184.00000000 28386.48242188  2562670.25000000 2039231.37500000 
0.07700    57522972.00000000 36509576.00000000 91649256.00000000 27537.33789062  2494051.25000000 1984848.00000000 
0.07800    56204968.00000000 35684800.00000000 89563672.00000000 26712.85156250  2427157.75000000 1931815.37500000 
0.07900    54915816.00000000 34877580.00000000 87523456.00000000 25913.28320312  2361989.25000000 1880138.00000000 
0.08000    53656088.00000000 34088040.00000000 85528344.00000000 25138.34960938  2298570.25000000 1829809.25000000 
0.08100    52425128.00000000 33316434.00000000 83579752.00000000 24388.02929688  2236840.50000000 1780827.37500000 
0.08200    51223328.00000000 32562488.00000000 81675736.00000000 23661.84570312  2176845.75000000 1733187.50000000 
0.08300    50051168.00000000 31826810.00000000 79818000.00000000 22959.72851562  2118570.50000000 1686892.12500000 
0.08400    48908524.00000000 31108778.00000000 78006424.00000000 22281.36914062  2061977.87500000 1641929.25000000 
0.08500    47794976.00000000 30408812.00000000 76239760.00000000 21626.11914062  2007053.62500000 1598291.12500000 
0.08600    46710568.00000000 29726612.00000000 74519840.00000000 20994.05859375  1953825.37500000 1555947.87500000 
0.08700    45655076.00000000 29062532.00000000 72845304.00000000 20384.48437500  1902234.87500000 1514898.62500000 
0.08800    44628836.00000000 28415986.00000000 71215720.00000000 19797.02734375  1852267.62500000 1475143.75000000 
0.08900    43631468.00000000 27787136.00000000 69631712.00000000 19231.19140625  1803911.12500000 1436639.37500000 
0.09000    42662256.00000000 27175892.00000000 68092240.00000000 18686.83203125  1757130.37500000 1399382.50000000 
0.09100    41721272.00000000 26582092.00000000 66596928.00000000 18162.92578125  1711898.25000000 1363342.00000000 
0.09200    40808160.00000000 26005292.00000000 65145548.00000000 17659.28710938  1668183.12500000 1328509.50000000 
0.09300    39922784.00000000 25445716.00000000 63737244.00000000 17175.23632812  1625968.75000000 1294833.87500000 
0.09400    39064420.00000000 24902686.00000000 62371996.00000000 16710.29492188  1585217.62500000 1262327.12500000 
0.09500    38232688.00000000 24376286.00000000 61048064.00000000 16263.84863281  1545896.75000000 1230938.87500000 
0.09600    37427284.00000000 23866218.00000000 59766152.00000000 15835.31933594  1507962.75000000 1200650.25000000 
0.09700    36648112.00000000 23372066.00000000 58524704.00000000 15424.20214844  1471386.75000000 1171439.87500000 
0.09800    35893780.00000000 22893684.00000000 57323320.00000000 15029.79687500  1436141.12500000 1143273.25000000 
0.09900    35164772.00000000 22430664.00000000 56161360.00000000 14651.53808594  1402171.25000000 1116112.37500000 
0.10000    34459940.00000000 21982908.00000000 55037240.00000000 14288.83105469  1369442.75000000 1089948.37500000 
0.10100    33778568.00000000 21549962.00000000 53950636.00000000 13940.93359375  1337924.50000000 1064725.00000000 
0.10200    33120680.00000000 21131412.00000000 52901064.00000000 13607.33203125  1307575.12500000 1040438.43750000 
0.10300    32485102.00000000 20726802.00000000 51887088.00000000 13287.45019531  1278346.12500000 1017038.37500000 
0.10400    31871650.00000000 20336212.00000000 50907912.00000000 12980.57226562  1250206.50000000 994501.68750000 
0.10500    31279724.00000000 19958848.00000000 49962684.00000000 12686.25292969  1223122.87500000 972799.43750000 
0.10600    30708420.00000000 19594510.00000000 49049796.00000000 12403.65527344  1197022.62500000 951890.81250000 
0.10700    30157246.00000000 19242772.00000000 48169320.00000000 12132.46972656  1171907.75000000 931747.93750000 
0.10800    29625744.00000000 18903358.00000000 47319312.00000000 11871.77148438  1147702.00000000 912340.81250000 
0.10900    29112972.00000000 18575934.00000000 46499568.00000000 11621.24316406  1124390.37500000 893642.25000000 
0.11000    28618216.00000000 18259874.00000000 45708692.00000000 11380.25585938  1101905.25000000 875612.93750000 
0.11100    28141298.00000000 17954838.00000000 44945648.00000000 11148.25390625  1080237.62500000 858224.87500000 
0.11200    27681354.00000000 17660420.00000000 44209456.00000000 10924.60937500  1059344.00000000 841454.43750000 
0.11300    27237306.00000000 17376460.00000000 43499000.00000000 10708.91796875  1039161.75000000 825255.06250000 
0.11400    26808852.00000000 17102274.00000000 42813860.00000000 10500.60156250  1019671.81250000 809614.12500000 
0.11500    26395702.00000000 16837688.00000000 42151776.00000000 10299.12011719  1000832.06250000 794496.06250000 
0.11600    25996484.00000000 16582113.00000000 41513176.00000000 10104.15722656  982605.81250000 779864.25000000 
0.11700    25611210.00000000 16335301.00000000 40896184.00000000 9915.02636719   964961.50000000 765700.93750000 
0.11800    25238672.00000000 16096759.00000000 40299948.00000000 9731.48730469   947859.50000000 751976.87500000 
0.11900    24878598.00000000 15866175.00000000 39723592.00000000 9552.90039062   931263.87500000 738662.37500000 
0.12000    24530186.00000000 15643196.00000000 39166088.00000000 9379.04882812   915145.43750000 725734.62500000 
0.12100    24193214.00000000 15427476.00000000 38626744.00000000 9209.51562500   899470.75000000 713166.87500000 
0.12200    23866652.00000000 15218483.00000000 38104276.00000000 9043.85156250   884217.00000000 700934.00000000 
0.12300    23550044.00000000 15015936.00000000 37597820.00000000 8881.85253906   869346.87500000 689017.31250000 
0.12400    23242828.00000000 14819647.00000000 37106580.00000000 8723.00488281   854827.93750000 677385.18750000 
0.12500    22944594.00000000 14629051.00000000 36629724.00000000 8567.11230469   840640.50000000 666027.56250000 
0.12600    22654718.00000000 14443910.00000000 36166272.00000000 8413.91015625   826762.37500000 654917.68750000 
0.12700    22372746.00000000 14263864.00000000 35715264.00000000 8262.98242188   813155.93750000 644035.62500000 
0.12800    22097756.00000000 14088643.00000000 35276688.00000000 8114.28466797   799807.06250000 633366.93750000 
0.12900    21829764.00000000 13917933.00000000 34848568.00000000 7967.46093750   786696.18750000 622883.06250000 
0.13000    21568058.00000000 13751392.00000000 34431156.00000000 7822.36718750   773795.62500000 612585.68750000 
0.13100    21312134.00000000 13588659.00000000 34022912.00000000 7678.74853516   761081.25000000 602437.12500000 
0.13200    21061736.00000000 13429670.00000000 33624020.00000000 7536.44580078   748546.75000000 592441.62500000 
0.13300    20816324.00000000 13274075.00000000 33233106.00000000 7395.47607422   736173.00000000 582574.12500000 
0.13400    20575560.00000000 13121517.00000000 32849780.00000000 7255.45556641   723931.81250000 572827.18750000 
0.13500    20338922.00000000 12971733.00000000 32473202.00000000 7116.43115234   711822.25000000 563188.18750000 
0.13600    20106004.00000000 12824645.00000000 32103224.00000000 6978.19140625   699824.93750000 553645.18750000 
0.13700    19876724.00000000 12679913.00000000 31738848.00000000 6840.80224609   687931.00000000 544188.93750000 
0.13800    19650448.00000000 12537415.00000000 31379704.00000000 6704.07763672   676123.93750000 534806.81250000 
0.13900    19427362.00000000 12396903.00000000 31025486.00000000 6567.97509766   664398.81250000 525497.12500000 
0.14000    19206526.00000000 12258140.00000000 30675528.00000000 6432.53857422   652747.56250000 516250.25000000 
0.14100    18988002.00000000 12121024.00000000 30329412.00000000 6297.67871094   641158.12500000 507060.06250000 
0.14200    18771550.00000000 11985291.00000000 29986552.00000000 6163.36376953   629626.68750000 497918.68750000 
0.14300    18556852.00000000 11851015.00000000 29646918.00000000 6029.69726562   618152.31250000 488820.43750000 
0.14400    18343666.00000000 11717606.00000000 29309866.00000000 5896.58886719   606717.12500000 479766.87500000 
0.14500    18131958.00000000 11585333.00000000 28975210.00000000 5764.09082031   595329.68750000 470753.56250000 
0.14600    17921360.00000000 11454005.00000000 28642542.00000000 5632.27783203   583984.18750000 461774.93750000 
0.14700    17711656.00000000 11323445.00000000 28311706.00000000 5501.17871094   572684.43750000 452835.00000000 
0.14800    17502950.00000000 11193507.00000000 27982094.00000000 5370.76757812   561420.25000000 443927.31250000 
0.14900    17294886.00000000 11064081.00000000 27654006.00000000 5241.19140625   550192.06250000 435045.59375000 
0.15000    17087496.00000000 10935231.00000000 27327018.00000000 5112.49511719   539003.56250000 426203.81250000 
0.15100    16880472.00000000 10806731.00000000 27000996.00000000 4984.72998047   527855.25000000 417391.53125000 
0.15200    16673977.00000000 10678533.00000000 26675658.00000000 4857.99755859   516754.34375000 408622.12500000 
0.15300    16467811.00000000 10550749.00000000 26350944.00000000 4732.36914062   505697.81250000 399884.18750000 
0.15400    16261855.00000000 10423057.00000000 26026538.00000000 4607.88330078   494686.34375000 391186.21875000 
0.15500    16056114.00000000 10295667.00000000 25702802.00000000 4484.68115234   483730.00000000 382531.68750000 
0.15600    15850595.00000000 10168345.00000000 25379236.00000000 4362.81787109   472825.87500000 373918.21875000 
0.15700    15645267.00000000 10041253.00000000 25056160.00000000 4242.48681641   461988.68750000 365357.28125000 
0.15800    15439955.00000000 9914201.00000000 24733108.00000000 4123.57763672   451208.12500000 356841.31250000 
0.15900    15234923.00000000 9787235.00000000 24410450.00000000 4006.30200195   440500.81250000 348384.50000000 
0.16000    15029890.00000000 9660414.00000000 24088020.00000000 3890.74536133   429871.09375000 339983.71875000 
0.16100    14825144.00000000 9533723.00000000 23765920.00000000 3777.06396484   419324.15625000 331650.31250000 
0.16200    14620607.00000000 9407093.00000000 23443986.00000000 3665.19116211   408862.87500000 323382.68750000 
0.16300    14416208.00000000 9280653.00000000 23122482.00000000 3555.31396484   398494.21875000 315188.00000000 
0.16400    14212138.00000000 9154272.00000000 22801270.00000000 3447.48339844   388223.18750000 307067.87500000 
0.16500    14008418.00000000 9028065.00000000 22480608.00000000 3341.79907227   378058.87500000 299029.93750000 
0.16600    13805121.00000000 8902114.00000000 22160482.00000000 3238.31518555   368006.03125000 291077.71875000 
0.16700    13602137.00000000 8776331.00000000 21840812.00000000 3137.07519531   358068.87500000 283216.43750000 
0.16800    13399593.00000000 8650751.00000000 21521936.00000000 3038.18627930   348253.90625000 275446.31250000 
0.16900    13197777.00000000 8525527.00000000 21203980.00000000 2941.72802734   338571.46875000 267781.62500000 
0.17000    12996562.00000000 8400627.00000000 20886848.00000000 2847.69384766   329022.18750000 260219.10937500 
