# SAXS profile: number of points = 501, q_min = 0, q_max = 0.5, delta_q = 0.001
#    q    intensity 
0.00000    162237008.00000000 101202048.00000000 256272304.00000000 98493.48437500  7994879.00000000 6314296.50000000 
0.00100    162200912.00000000 101177800.00000000 256211104.00000000 98465.67187500  7992799.50000000 6312674.50000000 
0.00200    162089088.00000000 101106632.00000000 256031184.00000000 98383.02343750  7986632.50000000 6307814.00000000 
0.00300    161899520.00000000 100988144.00000000 255731712.00000000 98245.26562500  7976324.50000000 6299731.00000000 
0.00400    161633168.00000000 100822696.00000000 255311024.00000000 98052.77343750  7961979.50000000 6288389.00000000 
0.00500    161290720.00000000 100609768.00000000 254772752.00000000 97806.77343750  7943559.00000000 6273821.50000000 
0.00600    160872896.00000000 100349680.00000000 254114288.00000000 97506.08593750  7921098.50000000 6256112.50000000 
0.00700    160382096.00000000 100045576.00000000 253339440.00000000 97152.86718750  7894628.00000000 6235262.00000000 
0.00800    159814864.00000000 99693792.00000000 252450384.00000000 96747.18750000  7864261.00000000 6211300.00000000 
0.00900    159179120.00000000 99298320.00000000 251447568.00000000 96288.72656250  7829986.50000000 6184255.00000000 
0.01000    158472560.00000000 98858584.00000000 250331376.00000000 95780.70312500  7791900.00000000 6154230.50000000 
0.01100    157696640.00000000 98375464.00000000 249104704.00000000 95221.36718750  7750070.50000000 6121188.00000000 
0.01200    156851408.00000000 97848640.00000000 247770032.00000000 94613.89062500  7704545.50000000 6085277.50000000 
0.01300    155936624.00000000 97280488.00000000 246329392.00000000 93958.67187500  7655425.50000000 6046508.50000000 
0.01400    154955936.00000000 96670536.00000000 244783360.00000000 93257.84375000  7602773.00000000 6004999.00000000 
0.01500    153913856.00000000 96020360.00000000 243137376.00000000 92510.42187500  7546688.50000000 5960762.00000000 
0.01600    152807392.00000000 95333184.00000000 241391776.00000000 91719.80468750  7487265.50000000 5913884.00000000 
0.01700    151641024.00000000 94606768.00000000 239550224.00000000 90886.78906250  7424682.50000000 5864487.50000000 
0.01800    150414064.00000000 93843880.00000000 237616800.00000000 90013.25781250  7358936.00000000 5812590.50000000 
0.01900    149131632.00000000 93045184.00000000 235592848.00000000 89099.80468750  7290176.50000000 5758370.00000000 
0.02000    147794000.00000000 92213080.00000000 233482432.00000000 88149.07031250  7218551.00000000 5701855.00000000 
0.02100    146402528.00000000 91347888.00000000 231288944.00000000 87162.99218750  7144162.00000000 5643164.50000000 
0.02200    144962016.00000000 90450576.00000000 229014976.00000000 86141.63281250  7067092.50000000 5582358.00000000 
0.02300    143473680.00000000 89523664.00000000 226665760.00000000 85088.47656250  6987583.00000000 5519586.00000000 
0.02400    141938096.00000000 88568216.00000000 224241424.00000000 84004.76562500  6905643.50000000 5454917.00000000 
0.02500    140358784.00000000 87585104.00000000 221752032.00000000 82892.78125000  6821447.50000000 5388504.50000000 
0.02600    138738336.00000000 86576824.00000000 219193936.00000000 81753.39062500  6735120.00000000 5320403.50000000 
0.02700    137079856.00000000 85544440.00000000 216576704.00000000 80589.52343750  6646859.00000000 5250721.00000000 
0.02800    135383856.00000000 84488968.00000000 213902000.00000000 79402.68750000  6556729.50000000 5179610.00000000 
0.02900    133654960.00000000 83412368.00000000 211172592.00000000 78195.25781250  6464870.50000000 5107107.50000000 
0.03000    131894456.00000000 82316264.00000000 208394336.00000000 76968.29687500  6371469.00000000 5033428.00000000 
0.03100    130105216.00000000 81202584.00000000 205570112.00000000 75724.25000000  6276670.50000000 4958599.50000000 
0.03200    128289336.00000000 80072192.00000000 202705952.00000000 74465.37500000  6180561.50000000 4882761.00000000 
0.03300    126450184.00000000 78927336.00000000 199803376.00000000 73193.21093750  6083405.50000000 4806032.50000000 
0.03400    124589672.00000000 77768640.00000000 196867424.00000000 71909.23437500  5985152.00000000 4728552.50000000 
0.03500    122710776.00000000 76598696.00000000 193901872.00000000 70616.96875000  5886117.50000000 4650338.50000000 
0.03600    120816104.00000000 75418432.00000000 190911424.00000000 69316.87500000  5786286.50000000 4571576.50000000 
0.03700    118907192.00000000 74230680.00000000 187899024.00000000 68010.94531250  5685924.50000000 4492382.00000000 
0.03800    116987144.00000000 73035760.00000000 184869552.00000000 66701.59375000  5585138.00000000 4412801.00000000 
0.03900    115059024.00000000 71835248.00000000 181826864.00000000 65390.12890625  5484067.50000000 4333028.50000000 
0.04000    113124784.00000000 70630624.00000000 178772672.00000000 64078.32812500  5382735.50000000 4253058.00000000 
0.04100    111186496.00000000 69423568.00000000 175714368.00000000 62768.33593750  5281437.00000000 4173093.50000000 
0.04200    109246624.00000000 68215248.00000000 172652608.00000000 61461.22656250  5180157.00000000 4093145.75000000 
0.04300    107308336.00000000 67008296.00000000 169591584.00000000 60159.25781250  5079062.00000000 4013361.00000000 
0.04400    105372424.00000000 65802312.00000000 166538304.00000000 58863.29687500  4978315.50000000 3933845.25000000 
0.04500    103441736.00000000 64600196.00000000 163490320.00000000 57575.25781250  4877999.00000000 3854634.25000000 
0.04600    101518320.00000000 63402516.00000000 160455904.00000000 56296.22656250  4778258.00000000 3775886.50000000 
0.04700    99605128.00000000 62210588.00000000 157434704.00000000 55028.17968750  4679105.50000000 3697617.50000000 
0.04800    97702304.00000000 61025896.00000000 154432032.00000000 53772.26171875  4580708.50000000 3619969.75000000 
0.04900    95813432.00000000 59849540.00000000 151449424.00000000 52529.19140625  4483214.00000000 3542977.50000000 
0.05000    93939904.00000000 58682352.00000000 148492336.00000000 51300.46484375  4386609.00000000 3466735.00000000 
0.05100    92082144.00000000 57525864.00000000 145561008.00000000 50087.32031250  4291086.00000000 3391298.00000000 
0.05200    90243904.00000000 56380924.00000000 142658160.00000000 48890.28515625  4196636.00000000 3316736.50000000 
0.05300    88424912.00000000 55248420.00000000 139787792.00000000 47711.06250000  4103385.25000000 3243124.25000000 
0.05400    86628856.00000000 54129316.00000000 136952368.00000000 46550.14062500  4011429.00000000 3170505.50000000 
0.05500    84854944.00000000 53024760.00000000 134152328.00000000 45408.76562500  3920782.25000000 3098968.00000000 
0.05600    83105624.00000000 51935608.00000000 131392568.00000000 44286.66406250  3831553.00000000 3028507.75000000 
0.05700    81381336.00000000 50862252.00000000 128672440.00000000 43185.45703125  3743777.00000000 2959226.75000000 
0.05800    79684792.00000000 49805636.00000000 125994240.00000000 42105.21093750  3657528.00000000 2891125.00000000 
0.05900    78014928.00000000 48766616.00000000 123360136.00000000 41046.75000000  3572806.75000000 2824255.25000000 
0.06000    76374840.00000000 47745732.00000000 120771488.00000000 40010.53906250  3489719.00000000 2758648.25000000 
0.06100    74765008.00000000 46742964.00000000 118230624.00000000 38996.68750000  3408275.50000000 2694365.50000000 
0.06200    73184872.00000000 45759888.00000000 115737544.00000000 38005.73046875  3328487.50000000 2631382.00000000 
0.06300    71636552.00000000 44795924.00000000 113294568.00000000 37038.09375000  3250436.00000000 2569762.25000000 
0.06400    70119944.00000000 43851952.00000000 110901376.00000000 36093.23437500  3174081.25000000 2509501.25000000 
0.06500    68635856.00000000 42928548.00000000 108560160.00000000 35172.15625000  3099497.75000000 2450628.25000000 
0.06600    67184288.00000000 42025604.00000000 106270224.00000000 34274.39062500  3026662.50000000 2393136.50000000 
0.06700    65765760.00000000 41143232.00000000 104032760.00000000 33400.02343750  2955600.00000000 2337062.25000000 
0.06800    64381588.00000000 40281904.00000000 101848888.00000000 32549.04296875  2886318.25000000 2282363.50000000 
0.06900    63030780.00000000 39442228.00000000 99719088.00000000 31721.10937500  2818799.50000000 2229096.00000000 
0.07000    61713712.00000000 38623364.00000000 97641440.00000000 30916.63867188  2753060.25000000 2177205.25000000 
0.07100    60430600.00000000 37825492.00000000 95618296.00000000 30134.64648438  2689070.75000000 2126747.00000000 
0.07200    59181604.00000000 37049252.00000000 93648136.00000000 29375.35937500  2626855.25000000 2077657.50000000 
0.07300    57966144.00000000 36294104.00000000 91732584.00000000 28638.63281250  2566385.75000000 2029920.75000000 
0.07400    56784316.00000000 35560100.00000000 89869536.00000000 27923.58398438  2507613.75000000 1983573.87500000 
0.07500    55635724.00000000 34846992.00000000 88059608.00000000 27230.03906250  2450549.75000000 1938578.37500000 
0.07600    54520388.00000000 34154312.00000000 86301480.00000000 26557.62500000  2395160.50000000 1894890.50000000 
0.07700    53437904.00000000 33482692.00000000 84595672.00000000 25905.94921875  2341449.50000000 1852513.12500000 
0.07800    52387448.00000000 32830968.00000000 82941312.00000000 25274.56640625  2289308.50000000 1811415.00000000 
0.07900    51369136.00000000 32199314.00000000 81337440.00000000 24662.79492188  2238785.25000000 1771565.25000000 
0.08000    50381996.00000000 31587434.00000000 79782528.00000000 24069.92382812  2189791.25000000 1732951.00000000 
0.08100    49425440.00000000 30994890.00000000 78277536.00000000 23495.89453125  2142321.00000000 1695534.37500000 
0.08200    48499324.00000000 30421298.00000000 76818928.00000000 22939.82812500  2096332.00000000 1659284.87500000 
0.08300    47602736.00000000 29866220.00000000 75408344.00000000 22401.21093750  2051761.87500000 1624168.62500000 
0.08400    46735248.00000000 29329300.00000000 74042696.00000000 21879.39062500  2008605.37500000 1590162.62500000 
0.08500    45895368.00000000 28810012.00000000 72721664.00000000 21373.81640625  1966776.00000000 1557240.62500000 
0.08600    45082876.00000000 28307952.00000000 71444200.00000000 20884.00976562  1926265.25000000 1525336.25000000 
0.08700    44297136.00000000 27822464.00000000 70209360.00000000 20409.21093750  1887023.62500000 1494426.75000000 
0.08800    43537320.00000000 27353300.00000000 69014728.00000000 19948.62500000  1848983.00000000 1464492.50000000 
0.08900    42802040.00000000 26899938.00000000 67860536.00000000 19502.13476562  1812133.00000000 1435480.37500000 
0.09000    42091356.00000000 26461562.00000000 66743940.00000000 19068.87695312  1776392.12500000 1407357.75000000 
0.09100    41403696.00000000 26038082.00000000 65663976.00000000 18647.99804688  1741732.00000000 1380098.37500000 
0.09200    40738672.00000000 25628512.00000000 64620552.00000000 18239.34765625  1708122.50000000 1353652.87500000 
0.09300    40095100.00000000 25232590.00000000 63610740.00000000 17842.08398438  1675482.75000000 1327987.50000000 
0.09400    39472152.00000000 24849746.00000000 62634192.00000000 17455.73828125  1643790.12500000 1303061.50000000 
0.09500    38869112.00000000 24479274.00000000 61688340.00000000 17079.67578125  1613003.12500000 1278844.87500000 
0.09600    38284952.00000000 24120694.00000000 60773100.00000000 16713.47070312  1583058.37500000 1255322.25000000 
0.09700    37718956.00000000 23773724.00000000 59886144.00000000 16356.62695312  1553936.62500000 1232419.37500000 
0.09800    37170356.00000000 23437256.00000000 59027160.00000000 16008.48828125  1525575.62500000 1210140.50000000 
0.09900    36638056.00000000 23111604.00000000 58193692.00000000 15668.87207031  1497945.37500000 1188433.12500000 
0.10000    36121500.00000000 22795188.00000000 57384960.00000000 15336.94140625  1470992.25000000 1167268.75000000 
0.10100    35619228.00000000 22488130.00000000 56599592.00000000 15012.46777344  1444692.62500000 1146605.25000000 
0.10200    35131424.00000000 22189994.00000000 55836540.00000000 14695.08203125  1419011.25000000 1126437.50000000 
0.10300    34656272.00000000 21900024.00000000 55094432.00000000 14384.26367188  1393890.37500000 1106706.62500000 
0.10400    34193512.00000000 21617884.00000000 54371432.00000000 14079.70410156  1369323.37500000 1087409.75000000 
0.10500    33742944.00000000 21342696.00000000 53667376.00000000 13781.32128906  1345251.37500000 1068512.12500000 
0.10600    33302806.00000000 21074480.00000000 52979980.00000000 13488.28515625  1321663.62500000 1049975.37500000 
0.10700    32873032.00000000 20812830.00000000 52308744.00000000 13200.60546875  1298512.75000000 1031795.50000000 
0.10800    32452674.00000000 20556816.00000000 51652864.00000000 12917.91992188  1275778.37500000 1013937.37500000 
0.10900    32041288.00000000 20306452.00000000 51010548.00000000 12639.98925781  1253438.50000000 996391.56250000 
0.11000    31638228.00000000 20061112.00000000 50381268.00000000 12366.70214844  1231459.25000000 979126.37500000 
0.11100    31242614.00000000 19820620.00000000 49764512.00000000 12097.68066406  1209824.50000000 962121.87500000 
0.11200    30854322.00000000 19584352.00000000 49158544.00000000 11832.80175781  1188510.50000000 945368.25000000 
0.11300    30472402.00000000 19352262.00000000 48562824.00000000 11571.88378906  1167491.87500000 928850.56250000 
0.11400    30096536.00000000 19123738.00000000 47976168.00000000 11314.89453125  1146758.87500000 912545.25000000 
0.11500    29726470.00000000 18898494.00000000 47398804.00000000 11061.47070312  1126289.87500000 896447.31250000 
0.11600    29361210.00000000 18676504.00000000 46828812.00000000 10811.86328125  1106056.62500000 880538.56250000 
0.11700    29000876.00000000 18457176.00000000 46266452.00000000 10565.62695312  1086078.00000000 864805.75000000 
0.11800    28644614.00000000 18240568.00000000 45710524.00000000 10322.89160156  1066302.12500000 849251.43750000 
0.11900    28292190.00000000 18026030.00000000 45160616.00000000 10083.50292969  1046752.37500000 833846.31250000 
0.12000    27943464.00000000 17813598.00000000 44616132.00000000 9847.51367188   1027401.31250000 818605.87500000 
0.12100    27598124.00000000 17603160.00000000 44076572.00000000 9614.73828125   1008247.12500000 803508.25000000 
0.12200    27255702.00000000 17394374.00000000 43541728.00000000 9385.41796875   989286.00000000 788550.43750000 
0.12300    26916112.00000000 17187218.00000000 43011184.00000000 9159.37207031   970505.00000000 773734.43750000 
0.12400    26578910.00000000 16981264.00000000 42483852.00000000 8936.54980469   951898.12500000 759047.12500000 
0.12500    26243936.00000000 16776706.00000000 41960052.00000000 8717.10351562   933468.25000000 744498.06250000 
0.12600    25911424.00000000 16573200.00000000 41439544.00000000 8501.00585938   915216.37500000 730078.62500000 
0.12700    25580768.00000000 16370687.00000000 40921664.00000000 8288.26953125   897134.93750000 715785.25000000 
0.12800    25251768.00000000 16169250.00000000 40406748.00000000 8079.03857422   879225.12500000 701615.87500000 
0.12900    24924776.00000000 15968501.00000000 39894184.00000000 7873.21777344   861487.87500000 687580.43750000 
0.13000    24599382.00000000 15768674.00000000 39383728.00000000 7670.89306641   843928.00000000 673676.62500000 
0.13100    24275376.00000000 15569610.00000000 38875476.00000000 7472.08544922   826538.56250000 659897.37500000 
0.13200    23953112.00000000 15371174.00000000 38369752.00000000 7276.89941406   809336.50000000 646256.75000000 
0.13300    23632284.00000000 15173419.00000000 37866004.00000000 7085.37597656   792303.75000000 632746.18750000 
0.13400    23312946.00000000 14976404.00000000 37363848.00000000 6897.53076172   775463.25000000 619372.81250000 
0.13500    22995206.00000000 14780037.00000000 36864196.00000000 6713.43603516   758811.37500000 606152.56250000 
0.13600    22678762.00000000 14584376.00000000 36366488.00000000 6533.16552734   742347.81250000 593067.56250000 
0.13700    22364012.00000000 14389312.00000000 35870688.00000000 6356.70800781   726083.50000000 580133.75000000 
0.13800    22050828.00000000 14194968.00000000 35376900.00000000 6184.12402344   710018.62500000 567350.56250000 
0.13900    21739124.00000000 14001527.00000000 34885704.00000000 6015.43994141   694164.25000000 554726.18750000 
0.14000    21429218.00000000 13808653.00000000 34396340.00000000 5850.77001953   678522.81250000 542257.87500000 
0.14100    21120838.00000000 13616769.00000000 33909672.00000000 5690.03173828   663099.75000000 529955.62500000 
0.14200    20814530.00000000 13425630.00000000 33425688.00000000 5533.28125000   647882.68750000 517815.96875000 
0.14300    20509912.00000000 13235416.00000000 32944090.00000000 5380.53417969   632903.68750000 505854.96875000 
0.14400    20207188.00000000 13046111.00000000 32465276.00000000 5231.80322266   618145.18750000 494062.46875000 
0.14500    19906618.00000000 12857898.00000000 31989338.00000000 5087.13671875   603626.18750000 482455.15625000 
0.14600    19608110.00000000 12670761.00000000 31516344.00000000 4946.42968750   589338.93750000 471027.31250000 
0.14700    19311886.00000000 12484713.00000000 31046796.00000000 4809.80322266   575294.87500000 459785.25000000 
0.14800    19017846.00000000 12299906.00000000 30580272.00000000 4677.13964844   561494.50000000 448728.59375000 
0.14900    18726258.00000000 12116255.00000000 30117530.00000000 4548.41455078   547938.75000000 437864.18750000 
0.15000    18437112.00000000 11933975.00000000 29658118.00000000 4423.63671875   534631.31250000 427187.59375000 
0.15100    18150590.00000000 11753042.00000000 29202556.00000000 4302.77294922   521576.78125000 416708.21875000 
0.15200    17866518.00000000 11573625.00000000 28750962.00000000 4185.77099609   508779.50000000 406433.15625000 
0.15300    17585518.00000000 11395606.00000000 28303532.00000000 4072.55444336   496229.75000000 396349.46875000 
0.15400    17307080.00000000 11219131.00000000 27860048.00000000 3963.03588867   483936.90625000 386465.96875000 
0.15500    17031788.00000000 11044349.00000000 27421000.00000000 3857.23583984   471905.40625000 376784.06250000 
0.15600    16759094.00000000 10871211.00000000 26986288.00000000 3755.03076172   460124.81250000 367301.71875000 
0.15700    16489631.00000000 10699753.00000000 26556474.00000000 3656.32104492   448604.00000000 358020.90625000 
0.15800    16223236.00000000 10529970.00000000 26130842.00000000 3561.07812500   437334.03125000 348936.78125000 
0.15900    15959979.00000000 10362091.00000000 25710342.00000000 3469.20312500   426317.75000000 340056.56250000 
0.16000    15699930.00000000 10196071.00000000 25294636.00000000 3380.61010742   415554.84375000 331373.90625000 
0.16100    15443249.00000000 10031876.00000000 24883976.00000000 3295.20361328   405042.21875000 322891.75000000 
0.16200    15189759.00000000 9869655.00000000 24478126.00000000 3212.85107422   394777.06250000 314601.06250000 
0.16300    14939577.00000000 9709357.00000000 24077590.00000000 3133.49096680   384756.06250000 306507.96875000 
0.16400    14692727.00000000 9551006.00000000 23682098.00000000 3057.01977539   374976.75000000 298604.21875000 
0.16500    14449321.00000000 9394673.00000000 23291744.00000000 2983.27978516   365440.00000000 290891.81250000 
0.16600    14209339.00000000 9240403.00000000 22906796.00000000 2912.22973633   356132.96875000 283365.84375000 
0.16700    13972722.00000000 9088098.00000000 22527062.00000000 2843.72875977   347056.62500000 276023.87500000 
0.16800    13739442.00000000 8937818.00000000 22152438.00000000 2777.62377930   338206.06250000 268863.71875000 
0.16900    13509702.00000000 8789689.00000000 21783498.00000000 2713.93066406   329579.96875000 261880.65625000 
0.17000    13283318.00000000 8643615.00000000 21419672.00000000 2652.41430664   321165.09375000 255070.82812500 
