# SAXS profile: number of points = 501, q_min = 0, q_max = 0.5, delta_q = 0.001
#    q    intensity 
0.00000    162234384.00000000 101202112.00000000 256270816.00000000 99501.91406250  8035699.00000000 6346532.50000000 
0.00100    162201088.00000000 101179520.00000000 256213632.00000000 99471.26562500  8033550.50000000 6344908.50000000 
0.00200    162095312.00000000 101111824.00000000 256044080.00000000 99380.42968750  8027180.50000000 6339849.00000000 
0.00300    161917904.00000000 101000808.00000000 255759760.00000000 99228.64062500  8016501.00000000 6331484.00000000 
0.00400    161663008.00000000 100844752.00000000 255360448.00000000 99016.77343750  8001620.00000000 6319782.00000000 
0.00500    161336592.00000000 100644240.00000000 254851616.00000000 98744.96875000  7982484.50000000 6304799.00000000 
0.00600    160940752.00000000 100397760.00000000 254227760.00000000 98414.42187500  7959258.50000000 6286439.50000000 
0.00700    160473616.00000000 100110624.00000000 253495024.00000000 98025.03125000  7931842.00000000 6264894.50000000 
0.00800    159934112.00000000 99779408.00000000 252653664.00000000 97578.98437500  7900425.50000000 6240169.50000000 
0.00900    159329520.00000000 99407704.00000000 251703360.00000000 97075.67968750  7864956.50000000 6212234.00000000 
0.01000    158658544.00000000 98992776.00000000 250647536.00000000 96516.71093750  7825545.50000000 6181265.50000000 
0.01100    157919696.00000000 98536856.00000000 249485312.00000000 95904.39843750  7782308.50000000 6147221.50000000 
0.01200    157117360.00000000 98039256.00000000 248222016.00000000 95238.45312500  7735289.50000000 6110216.00000000 
0.01300    156247248.00000000 97503624.00000000 246856848.00000000 94521.14062500  7684520.50000000 6070315.50000000 
0.01400    155316208.00000000 96927808.00000000 245395408.00000000 93754.67968750  7630262.50000000 6027581.00000000 
0.01500    154324928.00000000 96315600.00000000 243836144.00000000 92939.13281250  7572452.00000000 5982134.00000000 
0.01600    153274416.00000000 95667344.00000000 242186192.00000000 92077.36718750  7511258.00000000 5933950.00000000 
0.01700    152166720.00000000 94983136.00000000 240443120.00000000 91170.98437500  7446835.00000000 5883276.00000000 
0.01800    151002832.00000000 94264088.00000000 238612656.00000000 90221.78906250  7379268.00000000 5830097.00000000 
0.01900    149784832.00000000 93511504.00000000 236699264.00000000 89231.82812500  7308673.50000000 5774531.00000000 
0.02000    148513712.00000000 92726608.00000000 234701680.00000000 88202.82031250  7235205.00000000 5716695.50000000 
0.02100    147195536.00000000 91911960.00000000 232628096.00000000 87137.20312500  7158972.50000000 5656686.00000000 
0.02200    145828416.00000000 91066528.00000000 230477152.00000000 86036.74218750  7080144.50000000 5594632.50000000 
0.02300    144414400.00000000 90193088.00000000 228254272.00000000 84903.92968750  6998821.00000000 5530622.50000000 
0.02400    142958608.00000000 89292528.00000000 225965040.00000000 83741.64062500  6915149.50000000 5464755.50000000 
0.02500    141461280.00000000 88366464.00000000 223610432.00000000 82551.25781250  6829297.50000000 5397135.50000000 
0.02600    139924032.00000000 87416400.00000000 221192336.00000000 81334.57031250  6741437.50000000 5327964.00000000 
0.02700    138351504.00000000 86442552.00000000 218718112.00000000 80095.42187500  6651671.50000000 5257293.50000000 
0.02800    136743792.00000000 85448128.00000000 216189104.00000000 78834.68750000  6560135.50000000 5185215.50000000 
0.02900    135104416.00000000 84433840.00000000 213609568.00000000 77555.45312500  6467011.50000000 5111888.50000000 
0.03000    133435792.00000000 83400864.00000000 210984208.00000000 76259.82812500  6372538.50000000 5037399.00000000 
0.03100    131739992.00000000 82351800.00000000 208316080.00000000 74950.05468750  6276738.50000000 4961939.50000000 
0.03200    130019904.00000000 81286264.00000000 205607552.00000000 73628.33593750  6179732.50000000 4885557.50000000 
0.03300    128277584.00000000 80206520.00000000 202865952.00000000 72297.11718750  6081821.50000000 4808390.00000000 
0.03400    126514904.00000000 79114112.00000000 200091744.00000000 70958.57812500  5983036.50000000 4730554.00000000 
0.03500    124734904.00000000 78012280.00000000 197289600.00000000 69614.32812500  5883598.00000000 4652211.00000000 
0.03600    122939336.00000000 76899936.00000000 194463344.00000000 68266.95312500  5783608.00000000 4573429.50000000 
0.03700    121130776.00000000 75779216.00000000 191615040.00000000 66919.03125000  5683231.50000000 4494297.50000000 
0.03800    119312760.00000000 74651528.00000000 188749296.00000000 65571.85937500  5582540.00000000 4414938.50000000 
0.03900    117485864.00000000 73518592.00000000 185872800.00000000 64227.59375000  5481781.00000000 4335495.50000000 
0.04000    115652120.00000000 72380856.00000000 182985888.00000000 62887.96875000  5380970.00000000 4256039.00000000 
0.04100    113815728.00000000 71241072.00000000 180091616.00000000 61554.88671875  5280359.00000000 4176676.00000000 
0.04200    111977088.00000000 70100008.00000000 177194608.00000000 60229.95703125  5180014.00000000 4097560.50000000 
0.04300    110138848.00000000 68958816.00000000 174297808.00000000 58915.35937500  5080064.50000000 4018699.50000000 
0.04400    108302272.00000000 67819344.00000000 171403824.00000000 57611.66796875  4980531.00000000 3940226.50000000 
0.04500    106471864.00000000 66681236.00000000 168517216.00000000 56321.76562500  4881723.00000000 3862236.00000000 
0.04600    104646424.00000000 65547328.00000000 165640448.00000000 55046.11328125  4783534.50000000 3784794.50000000 
0.04700    102830176.00000000 64418284.00000000 162774608.00000000 53785.67968750  4686225.50000000 3708039.25000000 
0.04800    101022904.00000000 63294540.00000000 159925776.00000000 52543.21093750  4589825.00000000 3631966.50000000 
0.04900    99227160.00000000 62178296.00000000 157094144.00000000 51318.42968750  4494444.00000000 3556703.00000000 
0.05000    97444880.00000000 61069860.00000000 154281408.00000000 50112.87890625  4400144.00000000 3482251.25000000 
0.05100    95677040.00000000 59970372.00000000 151493792.00000000 48927.34765625  4307033.00000000 3408764.00000000 
0.05200    93926208.00000000 58880588.00000000 148730992.00000000 47762.67968750  4215193.50000000 3336227.50000000 
0.05300    92192328.00000000 57801480.00000000 145995744.00000000 46620.15625000  4124617.00000000 3264752.00000000 
0.05400    90478168.00000000 56733964.00000000 143289728.00000000 45499.58593750  4035484.00000000 3194349.50000000 
0.05500    88783488.00000000 55678336.00000000 140615856.00000000 44402.56250000  3947774.50000000 3125085.75000000 
0.05600    87110072.00000000 54636128.00000000 137974832.00000000 43328.65625000  3861554.25000000 3056994.75000000 
0.05700    85460104.00000000 53607568.00000000 135369040.00000000 42278.81640625  3776874.00000000 2990116.25000000 
0.05800    83832056.00000000 52593304.00000000 132799744.00000000 41253.15234375  3693771.00000000 2924472.00000000 
0.05900    82228576.00000000 51593756.00000000 130267416.00000000 40252.19531250  3612280.75000000 2860091.50000000 
0.06000    80651136.00000000 50610144.00000000 127775872.00000000 39275.60156250  3532446.25000000 2797012.75000000 
0.06100    79099264.00000000 49642400.00000000 125324152.00000000 38323.83203125  3454294.00000000 2735262.00000000 
0.06200    77573632.00000000 48690256.00000000 122914208.00000000 37396.61718750  3377821.25000000 2674818.75000000 
0.06300    76075056.00000000 47755668.00000000 120547512.00000000 36494.14843750  3303046.50000000 2615749.50000000 
0.06400    74604024.00000000 46837344.00000000 118222968.00000000 35616.04687500  3229982.25000000 2557994.75000000 
0.06500    73162112.00000000 45936552.00000000 115942792.00000000 34762.65234375  3158643.75000000 2501590.00000000 
0.06600    71747200.00000000 45053800.00000000 113707800.00000000 33932.69921875  3089002.00000000 2446578.75000000 
0.06700    70360592.00000000 44188024.00000000 111517752.00000000 33126.57421875  3021094.50000000 2392885.75000000 
0.06800    69003984.00000000 43340728.00000000 109372640.00000000 32343.86914062  2954880.25000000 2340550.00000000 
0.06900    67674904.00000000 42510984.00000000 107272736.00000000 31584.05468750  2890350.00000000 2289536.75000000 
0.07000    66376216.00000000 41699404.00000000 105218192.00000000 30846.54492188  2827502.25000000 2239839.00000000 
0.07100    65106048.00000000 40905612.00000000 103210488.00000000 30131.21093750  2766290.50000000 2191476.00000000 
0.07200    63864640.00000000 40129680.00000000 101247696.00000000 29436.78320312  2706718.25000000 2144372.50000000 
0.07300    62651576.00000000 39372168.00000000 99330912.00000000 28763.45507812  2648776.50000000 2098548.00000000 
0.07400    61467916.00000000 38632220.00000000 97459336.00000000 28110.23437500  2592386.75000000 2053980.62500000 
0.07500    60312392.00000000 37910176.00000000 95631856.00000000 27476.63476562  2537559.00000000 2010626.12500000 
0.07600    59184456.00000000 37205536.00000000 93849408.00000000 26861.70898438  2484219.25000000 1968459.37500000 
0.07700    58084716.00000000 36518408.00000000 92110616.00000000 26265.16406250  2432366.75000000 1927478.75000000 
0.07800    57012360.00000000 35848264.00000000 90415200.00000000 25686.13671875  2381959.00000000 1887632.25000000 
0.07900    55967020.00000000 35195332.00000000 88762512.00000000 25124.00195312  2332927.25000000 1848887.87500000 
0.08000    54947820.00000000 34558600.00000000 87152112.00000000 24577.89257812  2285254.25000000 1811229.87500000 
0.08100    53954976.00000000 33938324.00000000 85581512.00000000 24047.40039062  2238916.50000000 1774591.50000000 
0.08200    52987576.00000000 33334566.00000000 84053280.00000000 23531.67968750  2193849.50000000 1738974.12500000 
0.08300    52044964.00000000 32745852.00000000 82563040.00000000 23029.89453125  2149988.50000000 1704334.00000000 
0.08400    51126404.00000000 32172518.00000000 81112232.00000000 22541.72656250  2107322.75000000 1670633.00000000 
0.08500    50232368.00000000 31614430.00000000 79698592.00000000 22066.28515625  2065808.37500000 1637836.00000000 
0.08600    49360864.00000000 31070758.00000000 78322352.00000000 21603.03320312  2025388.12500000 1605908.87500000 
0.08700    48512112.00000000 30541292.00000000 76981744.00000000 21151.17578125  1986009.62500000 1574814.00000000 
0.08800    47685156.00000000 30025784.00000000 75675328.00000000 20710.07226562  1947645.00000000 1544522.75000000 
0.08900    46878980.00000000 29523698.00000000 74402832.00000000 20279.51757812  1910262.50000000 1514997.62500000 
0.09000    46093588.00000000 29034402.00000000 73163232.00000000 19858.59179688  1873776.50000000 1486205.37500000 
0.09100    45328220.00000000 28557828.00000000 71955288.00000000 19446.97265625  1838181.50000000 1458109.25000000 
0.09200    44581652.00000000 28093288.00000000 70777216.00000000 19043.98632812  1803434.87500000 1430689.75000000 
0.09300    43854116.00000000 27640842.00000000 69629976.00000000 18649.20703125  1769473.25000000 1403895.12500000 
0.09400    43143932.00000000 27199154.00000000 68509624.00000000 18262.03125000  1736272.87500000 1377702.87500000 
0.09500    42450936.00000000 26768502.00000000 67416856.00000000 17882.22656250  1703794.00000000 1352074.50000000 
0.09600    41774684.00000000 26348492.00000000 66350840.00000000 17509.37109375  1672007.75000000 1327007.25000000 
0.09700    41114524.00000000 25938502.00000000 65309952.00000000 17143.05078125  1640869.25000000 1302445.87500000 
0.09800    40468816.00000000 25538278.00000000 64293308.00000000 16783.04687500  1610359.00000000 1278387.37500000 
0.09900    39838652.00000000 25147220.00000000 63300156.00000000 16428.85156250  1580426.37500000 1254788.00000000 
0.10000    39221340.00000000 24765000.00000000 62328512.00000000 16080.20605469  1551045.75000000 1231615.00000000 
0.10100    38617616.00000000 24391206.00000000 61379196.00000000 15736.97656250  1522192.87500000 1208862.12500000 
0.10200    38027132.00000000 24025558.00000000 60449340.00000000 15398.78320312  1493834.75000000 1186513.50000000 
0.10300    37448600.00000000 23667752.00000000 59539096.00000000 15065.62597656  1465965.00000000 1164532.00000000 
0.10400    36881768.00000000 23317324.00000000 58647448.00000000 14737.15039062  1438532.62500000 1142907.87500000 
0.10500    36326180.00000000 22974076.00000000 57773732.00000000 14413.32910156  1411547.37500000 1121620.00000000 
0.10600    35780520.00000000 22637468.00000000 56916172.00000000 14093.92871094  1384944.87500000 1100650.87500000 
0.10700    35245520.00000000 22306858.00000000 56075140.00000000 13779.05468750  1358751.25000000 1079990.12500000 
0.10800    34720076.00000000 21982878.00000000 55249328.00000000 13468.38964844  1332917.62500000 1059627.12500000 
0.10900    34203636.00000000 21664354.00000000 54438036.00000000 13161.95703125  1307459.62500000 1039530.31250000 
0.11000    33696012.00000000 21351536.00000000 53640972.00000000 12859.83398438  1282321.50000000 1019707.06250000 
0.11100    33196626.00000000 21043896.00000000 52856428.00000000 12561.87304688  1257531.50000000 1000143.18750000 
0.11200    32705432.00000000 20741142.00000000 52085052.00000000 12267.98242188  1233058.50000000 980823.56250000 
0.11300    32221586.00000000 20443060.00000000 51325516.00000000 11978.43164062  1208896.50000000 961749.75000000 
0.11400    31744962.00000000 20149740.00000000 50577360.00000000 11693.01269531  1185037.25000000 942910.06250000 
0.11500    31275380.00000000 19860664.00000000 49840144.00000000 11411.95507812  1161482.50000000 924293.12500000 
0.11600    30812366.00000000 19575648.00000000 49113468.00000000 11135.10644531  1138197.75000000 905903.62500000 
0.11700    30355700.00000000 19294658.00000000 48396564.00000000 10862.66308594  1115218.87500000 887734.50000000 
0.11800    29905016.00000000 19017174.00000000 47689100.00000000 10594.53417969  1092505.62500000 869778.37500000 
0.11900    29460386.00000000 18743406.00000000 46990736.00000000 10330.92578125  1070072.12500000 852038.87500000 
0.12000    29020920.00000000 18473066.00000000 46301268.00000000 10071.76074219  1047917.43750000 834504.37500000 
0.12100    28587312.00000000 18206030.00000000 45620432.00000000 9817.24316406   1026045.50000000 817187.06250000 
0.12200    28158792.00000000 17942198.00000000 44947752.00000000 9567.39355469   1004440.31250000 800078.43750000 
0.12300    27735390.00000000 17681400.00000000 44282484.00000000 9322.23828125   983114.62500000 783183.50000000 
0.12400    27316880.00000000 17423486.00000000 43625428.00000000 9081.69335938   962064.93750000 766493.25000000 
0.12500    26903072.00000000 17168334.00000000 42975228.00000000 8846.14160156   941286.12500000 750013.62500000 
0.12600    26494050.00000000 16916166.00000000 42332396.00000000 8615.45800781   920794.12500000 733762.18750000 
0.12700    26089536.00000000 16666607.00000000 41696432.00000000 8389.68945312   900579.06250000 717708.43750000 
0.12800    25689490.00000000 16419617.00000000 41067712.00000000 8168.91259766   880648.81250000 701881.25000000 
0.12900    25293824.00000000 16175215.00000000 40445096.00000000 7953.05371094   861001.18750000 686270.68750000 
0.13000    24902628.00000000 15933300.00000000 39829560.00000000 7742.30175781   841641.43750000 670876.50000000 
0.13100    24515358.00000000 15693825.00000000 39220260.00000000 7536.54394531   822575.06250000 655707.68750000 
0.13200    24132638.00000000 15456782.00000000 38617636.00000000 7335.85595703   803801.25000000 640764.68750000 
0.13300    23753916.00000000 15222246.00000000 38021336.00000000 7140.20556641   785315.43750000 626044.56250000 
0.13400    23379338.00000000 14989980.00000000 37430760.00000000 6949.61669922   767129.68750000 611560.62500000 
0.13500    23008882.00000000 14760064.00000000 36847404.00000000 6764.05273438   749252.12500000 597303.37500000 
0.13600    22642620.00000000 14532592.00000000 36269180.00000000 6583.44189453   731665.75000000 583276.56250000 
0.13700    22280176.00000000 14307337.00000000 35697764.00000000 6407.85595703   714383.43750000 569483.18750000 
0.13800    21922090.00000000 14084456.00000000 35132044.00000000 6237.09277344   697402.75000000 555926.43750000 
0.13900    21567876.00000000 13863877.00000000 34572916.00000000 6071.21386719   680733.18750000 542612.75000000 
0.14000    21217636.00000000 13645677.00000000 34019620.00000000 5910.15771484   664375.06250000 529533.00000000 
0.14100    20871922.00000000 13429746.00000000 33472850.00000000 5753.79394531   648309.50000000 516691.62500000 
0.14200    20529814.00000000 13215998.00000000 32932012.00000000 5601.99462891   632556.43750000 504085.87500000 
0.14300    20191964.00000000 13004680.00000000 32397378.00000000 5454.77099609   617113.43750000 491722.84375000 
0.14400    19858020.00000000 12795687.00000000 31868672.00000000 5311.96728516   601970.93750000 479596.34375000 
0.14500    19528268.00000000 12589081.00000000 31346480.00000000 5173.46875000   587130.87500000 467709.53125000 
0.14600    19202626.00000000 12384798.00000000 30830218.00000000 5039.20703125   572597.56250000 456063.00000000 
0.14700    18881224.00000000 12182907.00000000 30320616.00000000 4909.02197266   558366.00000000 444651.21875000 
0.14800    18563702.00000000 11983260.00000000 29816670.00000000 4782.84326172   544430.06250000 433474.00000000 
0.14900    18250230.00000000 11785973.00000000 29319178.00000000 4660.44189453   530792.43750000 422527.68750000 
0.15000    17941008.00000000 11591143.00000000 28828182.00000000 4541.79736328   517443.53125000 411813.40625000 
0.15100    17635784.00000000 11398674.00000000 28343356.00000000 4426.77099609   504381.90625000 401332.96875000 
0.15200    17334750.00000000 11208600.00000000 27864478.00000000 4315.15966797   491614.09375000 391074.12500000 
0.15300    17037892.00000000 11020886.00000000 27392032.00000000 4206.88134766   479123.40625000 381042.71875000 
0.15400    16744902.00000000 10835591.00000000 26926018.00000000 4101.74316406   466910.90625000 371228.71875000 
0.15500    16456005.00000000 10652647.00000000 26466248.00000000 3999.64404297   454971.25000000 361634.15625000 
0.15600    16171396.00000000 10472091.00000000 26012472.00000000 3900.46215820   443297.15625000 352251.50000000 
0.15700    15890661.00000000 10294023.00000000 25565298.00000000 3804.10009766   431889.78125000 343084.09375000 
0.15800    15613949.00000000 10118212.00000000 25123992.00000000 3710.29345703   420736.09375000 334114.93750000 
0.15900    15341360.00000000 9944973.00000000 24689072.00000000 3619.04077148   409838.93750000 325354.84375000 
0.16000    15072611.00000000 9773926.00000000 24260378.00000000 3530.15820312   399183.31250000 316789.15625000 
0.16100    14808010.00000000 9605380.00000000 23837772.00000000 3443.54077148   388777.93750000 308423.03125000 
0.16200    14547321.00000000 9439152.00000000 23421320.00000000 3359.10083008   378599.56250000 300244.40625000 
0.16300    14290439.00000000 9275266.00000000 23010948.00000000 3276.64111328   368658.40625000 292251.31250000 
0.16400    14037544.00000000 9113800.00000000 22606714.00000000 3196.17675781   358938.25000000 284437.65625000 
0.16500    13788399.00000000 8954725.00000000 22208368.00000000 3117.51367188   349438.21875000 276805.37500000 
0.16600    13543222.00000000 8797840.00000000 21816178.00000000 3040.57983398   340149.65625000 269343.28125000 
0.16700    13301636.00000000 8643325.00000000 21429790.00000000 2965.28271484   331065.65625000 262051.17187500 
0.16800    13063920.00000000 8491112.00000000 21049158.00000000 2891.56298828   322187.15625000 254919.70312500 
0.16900    12829937.00000000 8341161.50000000 20674660.00000000 2819.32080078   313502.68750000 247951.42187500 
0.17000    12599654.00000000 8193451.00000000 20305632.00000000 2748.48388672   305010.34375000 241137.87500000 
