# SAXS profile: number of points = 501, q_min = 0, q_max = 0.5, delta_q = 0.001
#    q    intensity 
0.00000    162236848.00000000 101202136.00000000 256271376.00000000 109118.10156250 8415046.00000000 6646155.00000000 
0.00100    162198496.00000000 101177032.00000000 256208432.00000000 109085.24218750 8412711.00000000 6644356.50000000 
0.00200    162083456.00000000 101103640.00000000 256022272.00000000 108986.89062500 8405808.00000000 6638923.00000000 
0.00300    161886720.00000000 100980920.00000000 255710848.00000000 108823.14843750 8394300.00000000 6629847.50000000 
0.00400    161609072.00000000 100810024.00000000 255276576.00000000 108594.67187500 8378250.00000000 6617169.00000000 
0.00500    161253984.00000000 100590568.00000000 254718800.00000000 108301.37500000 8357603.50000000 6600911.00000000 
0.00600    160820672.00000000 100321912.00000000 254036352.00000000 107944.67187500 8332412.00000000 6581101.50000000 
0.00700    160312128.00000000 100006768.00000000 253236144.00000000 107524.39062500 8302893.50000000 6557820.00000000 
0.00800    159723616.00000000 99644136.00000000 252315552.00000000 107041.67968750 8268856.50000000 6531000.50000000 
0.00900    159063968.00000000 99235240.00000000 251277440.00000000 106497.88281250 8230537.00000000 6500815.50000000 
0.01000    158332128.00000000 98781704.00000000 250121584.00000000 105893.84375000 8187958.50000000 6467248.50000000 
0.01100    157527712.00000000 98282776.00000000 248853872.00000000 105231.11718750 8141201.00000000 6430441.50000000 
0.01200    156651184.00000000 97739776.00000000 247473152.00000000 104510.42187500 8090343.00000000 6390360.00000000 
0.01300    155703200.00000000 97152792.00000000 245983744.00000000 103733.83593750 8035507.50000000 6347160.50000000 
0.01400    154688128.00000000 96523920.00000000 244386736.00000000 102903.07812500 7976776.50000000 6300891.00000000 
0.01500    153608368.00000000 95854720.00000000 242686096.00000000 102018.50781250 7914227.50000000 6251578.50000000 
0.01600    152465040.00000000 95145792.00000000 240885232.00000000 101083.05468750 7848064.50000000 6199443.50000000 
0.01700    151257088.00000000 94398384.00000000 238984096.00000000 100098.51562500 7778350.50000000 6144514.50000000 
0.01800    149989472.00000000 93612264.00000000 236989312.00000000 99067.03906250  7705142.50000000 6086870.00000000 
0.01900    148664656.00000000 92791064.00000000 234901472.00000000 97989.91406250  7628741.50000000 6026623.00000000 
0.02000    147283232.00000000 91935024.00000000 232726736.00000000 96869.22656250  7549153.50000000 5963942.50000000 
0.02100    145847584.00000000 91046104.00000000 230467456.00000000 95707.78906250  7466617.00000000 5898861.00000000 
0.02200    144360928.00000000 90124472.00000000 228127728.00000000 94507.25000000  7381133.00000000 5831529.50000000 
0.02300    142826176.00000000 89173336.00000000 225708608.00000000 93270.37500000  7293003.00000000 5762080.50000000 
0.02400    141243856.00000000 88192744.00000000 223217168.00000000 91998.67968750  7202319.50000000 5690548.00000000 
0.02500    139617888.00000000 87185056.00000000 220659136.00000000 90695.15625000  7109204.50000000 5617187.50000000 
0.02600    137952304.00000000 86151552.00000000 218032960.00000000 89362.27343750  7013891.00000000 5542071.50000000 
0.02700    136247008.00000000 85093944.00000000 215348048.00000000 88001.54687500  6916482.50000000 5465294.50000000 
0.02800    134504944.00000000 84013640.00000000 212604128.00000000 86616.22656250  6817142.00000000 5387012.00000000 
0.02900    132729576.00000000 82912896.00000000 209808800.00000000 85208.64843750  6716069.00000000 5307360.00000000 
0.03000    130923896.00000000 81792880.00000000 206965280.00000000 83781.12500000  6613423.50000000 5226441.50000000 
0.03100    129089576.00000000 80655976.00000000 204076192.00000000 82335.39843750  6509285.00000000 5144401.50000000 
0.03200    127231256.00000000 79503688.00000000 201147744.00000000 80875.17968750  6403958.50000000 5061317.50000000 
0.03300    125349632.00000000 78335616.00000000 198184064.00000000 79401.96093750  6297540.50000000 4977425.50000000 
0.03400    123448200.00000000 77156128.00000000 195188992.00000000 77918.00000000  6190168.00000000 4892769.50000000 
0.03500    121529624.00000000 75965696.00000000 192166848.00000000 76426.10156250  6081996.50000000 4807522.50000000 
0.03600    119596168.00000000 74766944.00000000 189120800.00000000 74928.75781250  5973240.50000000 4721738.50000000 
0.03700    117651064.00000000 73560568.00000000 186057072.00000000 73427.56250000  5864004.50000000 4635643.50000000 
0.03800    115696544.00000000 72347624.00000000 182978000.00000000 71924.76562500  5754474.00000000 4549298.00000000 
0.03900    113735776.00000000 71130648.00000000 179886928.00000000 70422.85156250  5644783.00000000 4462813.50000000 
0.04000    111770312.00000000 69910432.00000000 176790064.00000000 68923.50000000  5535063.50000000 4376319.50000000 
0.04100    109802696.00000000 68688896.00000000 173690720.00000000 67429.49218750  5425503.00000000 4289916.00000000 
0.04200    107836768.00000000 67468240.00000000 170592432.00000000 65941.49218750  5316198.50000000 4203716.50000000 
0.04300    105873360.00000000 66249632.00000000 167497264.00000000 64462.75781250  5207364.50000000 4117893.00000000 
0.04400    103915576.00000000 65033948.00000000 164411760.00000000 62994.21484375  5099004.00000000 4032451.00000000 
0.04500    101964616.00000000 63822772.00000000 161339680.00000000 61537.77343750  4991332.00000000 3947520.50000000 
0.04600    100024768.00000000 62617376.00000000 158278928.00000000 60095.00000000  4884448.00000000 3863254.50000000 
0.04700    98095440.00000000 61419588.00000000 155239632.00000000 58667.86328125  4778473.00000000 3779661.50000000 
0.04800    96180592.00000000 60229952.00000000 152220752.00000000 57257.92187500  4673472.00000000 3696871.50000000 
0.04900    94281264.00000000 59050256.00000000 149226736.00000000 55865.59375000  4569651.50000000 3614964.00000000 
0.05000    92399432.00000000 57881064.00000000 146259888.00000000 54493.14843750  4467030.00000000 3534028.50000000 
0.05100    90537944.00000000 56723920.00000000 143323840.00000000 53140.95312500  4365733.00000000 3454103.00000000 
0.05200    88696528.00000000 55579940.00000000 140420176.00000000 51810.69531250  4265779.00000000 3375276.00000000 
0.05300    86877000.00000000 54449564.00000000 137552992.00000000 50503.52343750  4167352.25000000 3297622.50000000 
0.05400    85082080.00000000 53334052.00000000 134722320.00000000 49219.97656250  4070430.50000000 3221183.00000000 
0.05500    83312312.00000000 52234196.00000000 131932568.00000000 47960.83593750  3975173.00000000 3146017.50000000 
0.05600    81569000.00000000 51150708.00000000 129184736.00000000 46726.63281250  3881580.75000000 3072182.00000000 
0.05700    79854752.00000000 50084528.00000000 126480416.00000000 45518.66015625  3789743.00000000 2999704.75000000 
0.05800    78168992.00000000 49036508.00000000 123821608.00000000 44337.17578125  3699684.50000000 2928651.75000000 
0.05900    76512352.00000000 48006764.00000000 121210048.00000000 43182.30859375  3611449.50000000 2859036.75000000 
0.06000    74887808.00000000 46996200.00000000 118646920.00000000 42054.74609375  3525084.00000000 2790914.50000000 
0.06100    73293712.00000000 46005432.00000000 116133976.00000000 40954.67578125  3440629.00000000 2724253.50000000 
0.06200    71732832.00000000 45034456.00000000 113671696.00000000 39882.47656250  3358106.50000000 2659150.00000000 
0.06300    70204248.00000000 44084312.00000000 111261312.00000000 38838.30078125  3277548.00000000 2595561.75000000 
0.06400    68709656.00000000 43154508.00000000 108902856.00000000 37821.66406250  3198946.50000000 2533546.50000000 
0.06500    67248584.00000000 42245788.00000000 106598296.00000000 36832.66796875  3122309.75000000 2473066.50000000 
0.06600    65822364.00000000 41358432.00000000 104348368.00000000 35871.62500000  3047690.00000000 2414159.75000000 
0.06700    64429748.00000000 40492400.00000000 102152512.00000000 34937.94921875  2975000.25000000 2356825.25000000 
0.06800    63072904.00000000 39647612.00000000 100010944.00000000 34031.92187500  2904298.25000000 2301042.25000000 
0.06900    61749920.00000000 38825040.00000000 97923912.00000000 33152.76562500  2835567.50000000 2246784.25000000 
0.07000    60461444.00000000 38023572.00000000 95891888.00000000 32300.01757812  2768783.75000000 2194098.75000000 
0.07100    59207872.00000000 37244056.00000000 93914632.00000000 31473.67773438  2703946.25000000 2142929.25000000 
0.07200    57988996.00000000 36485356.00000000 91991840.00000000 30672.93164062  2641020.75000000 2093215.25000000 
0.07300    56803956.00000000 35748324.00000000 90122424.00000000 29897.85156250  2579961.50000000 2045039.25000000 
0.07400    55653252.00000000 35032440.00000000 88307008.00000000 29146.94531250  2520731.00000000 1998326.25000000 
0.07500    54535824.00000000 34337296.00000000 86544456.00000000 28420.39453125  2463347.25000000 1953017.00000000 
0.07600    53451832.00000000 33663088.00000000 84834408.00000000 27717.34179688  2407725.00000000 1909117.25000000 
0.07700    52400172.00000000 33009242.00000000 83176416.00000000 27036.77539062  2353879.25000000 1866614.62500000 
0.07800    51380892.00000000 32375582.00000000 81568480.00000000 26378.96484375  2301697.50000000 1825455.87500000 
0.07900    50393312.00000000 31761428.00000000 80010464.00000000 25742.24218750  2251189.25000000 1785589.75000000 
0.08000    49436332.00000000 31166514.00000000 78502200.00000000 25126.41210938  2202304.50000000 1747003.62500000 
0.08100    48509876.00000000 30590756.00000000 77040776.00000000 24530.45507812  2154975.50000000 1709648.00000000 
0.08200    47612704.00000000 30033288.00000000 75625840.00000000 23953.87304688  2109151.25000000 1673492.37500000 
0.08300    46744752.00000000 29493744.00000000 74257344.00000000 23395.79882812  2064816.62500000 1638493.87500000 
0.08400    45904252.00000000 28972066.00000000 72932864.00000000 22855.59179688  2021874.12500000 1604611.50000000 
0.08500    45091116.00000000 28466992.00000000 71651536.00000000 22332.44335938  1980299.75000000 1571802.12500000 
0.08600    44304824.00000000 27978758.00000000 70411976.00000000 21825.69921875  1940029.50000000 1540028.75000000 
0.08700    43544088.00000000 27506070.00000000 69212912.00000000 21334.32421875  1901023.75000000 1509243.75000000 
0.08800    42807388.00000000 27049188.00000000 68051904.00000000 20857.86132812  1863230.37500000 1479410.37500000 
0.08900    42094828.00000000 26607338.00000000 66929636.00000000 20395.69531250  1826564.87500000 1450485.75000000 
0.09000    41405088.00000000 26179516.00000000 65843368.00000000 19946.72656250  1791029.75000000 1422431.12500000 
0.09100    40737716.00000000 25765808.00000000 64792464.00000000 19510.74023438  1756512.25000000 1395200.12500000 
0.09200    40090672.00000000 25365232.00000000 63774416.00000000 19086.72851562  1722992.50000000 1368756.87500000 
0.09300    39464724.00000000 24977420.00000000 62788232.00000000 18674.38476562  1690432.37500000 1343053.25000000 
0.09400    38857448.00000000 24601552.00000000 61832424.00000000 18272.62890625  1658755.62500000 1318064.62500000 
0.09500    38269208.00000000 24237310.00000000 60906464.00000000 17881.20117188  1627926.25000000 1293733.62500000 
0.09600    37697840.00000000 23884006.00000000 60007944.00000000 17499.44726562  1597905.37500000 1270039.25000000 
0.09700    37143888.00000000 23541270.00000000 59136192.00000000 17126.86328125  1568643.00000000 1246939.37500000 
0.09800    36605056.00000000 23208470.00000000 58288824.00000000 16763.10351562  1540084.12500000 1224397.25000000 
0.09900    36081576.00000000 22885070.00000000 57466080.00000000 16407.31445312  1512195.12500000 1202386.87500000 
0.10000    35572348.00000000 22570392.00000000 56665200.00000000 16059.27636719  1484939.25000000 1180869.50000000 
0.10100    35076100.00000000 22264212.00000000 55885684.00000000 15718.54394531  1458266.75000000 1159811.00000000 
0.10200    34592764.00000000 21966026.00000000 55125940.00000000 15384.61914062  1432149.50000000 1139186.62500000 
0.10300    34121008.00000000 21675054.00000000 54385352.00000000 15057.11523438  1406544.25000000 1118963.37500000 
0.10400    33660560.00000000 21391134.00000000 53661676.00000000 14735.88476562  1381430.25000000 1099125.12500000 
0.10500    33210402.00000000 21113882.00000000 52954788.00000000 14420.59375000  1356774.00000000 1079646.50000000 
0.10600    32769830.00000000 20842288.00000000 52263116.00000000 14110.71777344  1332522.37500000 1060492.25000000 
0.10700    32338592.00000000 20576766.00000000 51585852.00000000 13806.23828125  1308676.25000000 1041641.37500000 
0.10800    31915770.00000000 20316216.00000000 50921824.00000000 13506.83398438  1285204.00000000 1023086.68750000 
0.10900    31500452.00000000 20060778.00000000 50270016.00000000 13212.26074219  1262078.37500000 1004799.12500000 
0.11000    31092774.00000000 19809852.00000000 49629736.00000000 12922.42187500  1239280.12500000 986770.93750000 
0.11100    30691408.00000000 19562902.00000000 49000196.00000000 12637.18066406  1216772.87500000 968971.50000000 
0.11200    30296672.00000000 19319800.00000000 48380492.00000000 12356.26464844  1194561.25000000 951394.06250000 
0.11300    29907530.00000000 19080406.00000000 47769836.00000000 12079.66796875  1172634.25000000 934033.56250000 
0.11400    29523878.00000000 18844242.00000000 47167296.00000000 11807.49511719  1150954.87500000 916872.87500000 
0.11500    29144970.00000000 18610978.00000000 46572636.00000000 11539.26074219  1129526.75000000 899897.68750000 
0.11600    28770812.00000000 18380530.00000000 45984888.00000000 11275.31152344  1108336.12500000 883100.93750000 
0.11700    28400524.00000000 18152744.00000000 45403964.00000000 11015.21289062  1087364.87500000 866485.75000000 
0.11800    28034326.00000000 17927042.00000000 44828904.00000000 10759.35156250  1066615.50000000 850035.25000000 
0.11900    27671726.00000000 17703624.00000000 44259152.00000000 10507.39160156  1046087.43750000 833749.43750000 
0.12000    27312288.00000000 17482200.00000000 43694760.00000000 10259.48730469  1025753.81250000 817615.93750000 
0.12100    26956112.00000000 17262454.00000000 43135020.00000000 10015.69335938  1005641.87500000 801640.00000000 
0.12200    26602634.00000000 17044496.00000000 42579912.00000000 9775.95800781   985718.56250000 785825.93750000 
0.12300    26251938.00000000 16827984.00000000 42028352.00000000 9540.38574219   966006.68750000 770159.62500000 
0.12400    25903750.00000000 16613056.00000000 41480712.00000000 9308.87695312   946490.43750000 754642.06250000 
0.12500    25557866.00000000 16399282.00000000 40936652.00000000 9081.52832031   927173.56250000 739281.56250000 
0.12600    25214352.00000000 16186867.00000000 40396124.00000000 8858.42480469   908064.93750000 724083.06250000 
0.12700    24873078.00000000 15975629.00000000 39859228.00000000 8639.54785156   889166.62500000 709034.68750000 
0.12800    24533788.00000000 15765533.00000000 39324940.00000000 8424.97265625   870470.75000000 694148.00000000 
0.12900    24196726.00000000 15556510.00000000 38793840.00000000 8214.73730469   851985.25000000 679423.12500000 
0.13000    23861518.00000000 15348665.00000000 38265340.00000000 8008.96240234   833720.87500000 664863.12500000 
0.13100    23528302.00000000 15141715.00000000 37740112.00000000 7807.54785156   815681.50000000 650467.81250000 
0.13200    23197298.00000000 14935974.00000000 37217604.00000000 7610.56933594   797854.06250000 636255.56250000 
0.13300    22867942.00000000 14731199.00000000 36698260.00000000 7418.12890625   780269.50000000 622215.50000000 
0.13400    22540910.00000000 14527547.00000000 36181644.00000000 7230.15478516   762912.43750000 608353.06250000 
0.13500    22215624.00000000 14324877.00000000 35668040.00000000 7046.68798828   745796.31250000 594677.12500000 
0.13600    21892754.00000000 14123377.00000000 35157600.00000000 6867.84277344   728930.06250000 581190.87500000 
0.13700    21571648.00000000 13922991.00000000 34650264.00000000 6693.46191406   712304.50000000 567900.43750000 
0.13800    21252992.00000000 13723766.00000000 34145684.00000000 6523.63623047   695936.87500000 554801.50000000 
0.13900    20936668.00000000 13525677.00000000 33644944.00000000 6358.42382812   679827.93750000 541909.75000000 
0.14000    20622430.00000000 13328869.00000000 33147640.00000000 6197.68115234   663982.18750000 529219.25000000 
0.14100    20310732.00000000 13133424.00000000 32653692.00000000 6041.44140625   648404.81250000 516740.21875000 
0.14200    20001486.00000000 12939237.00000000 32163346.00000000 5889.61132812   633099.56250000 504468.59375000 
0.14300    19694794.00000000 12746445.00000000 31676916.00000000 5742.26269531   618066.56250000 492411.43750000 
0.14400    19390456.00000000 12555051.00000000 31193932.00000000 5599.19970703   603310.18750000 480573.03125000 
0.14500    19089240.00000000 12365195.00000000 30715530.00000000 5460.48291016   588829.25000000 468951.53125000 
0.14600    18790656.00000000 12176888.00000000 30241194.00000000 5326.01025391   574638.18750000 457556.93750000 
0.14700    18494920.00000000 11990201.00000000 29771048.00000000 5195.73144531   560729.43750000 446384.03125000 
0.14800    18202104.00000000 11805072.00000000 29305260.00000000 5069.45605469   547103.75000000 435434.40625000 
0.14900    17912374.00000000 11621711.00000000 28844238.00000000 4947.17724609   533759.93750000 424710.65625000 
0.15000    17625708.00000000 11440084.00000000 28387624.00000000 4828.79052734   520703.59375000 414213.06250000 
0.15100    17342130.00000000 11260230.00000000 27935772.00000000 4714.19384766   507930.21875000 403936.15625000 
0.15200    17061836.00000000 11082345.00000000 27488936.00000000 4603.31835938   495444.56250000 393888.62500000 
0.15300    16784714.00000000 10906230.00000000 27047216.00000000 4496.00927734   483237.84375000 384065.37500000 
0.15400    16511061.00000000 10731998.00000000 26610326.00000000 4392.11621094   471311.50000000 374462.56250000 
0.15500    16240796.00000000 10559906.00000000 26178692.00000000 4291.55810547   459662.03125000 365085.40625000 
0.15600    15973913.00000000 10389630.00000000 25752196.00000000 4194.25732422   448289.59375000 355923.75000000 
0.15700    15710520.00000000 10221458.00000000 25331296.00000000 4100.01416016   437191.96875000 346984.09375000 
0.15800    15450498.00000000 10055290.00000000 24915384.00000000 4008.66357422   426357.53125000 338254.84375000 
0.15900    15194155.00000000 9891254.00000000 24505170.00000000 3920.20263672   415788.18750000 329740.84375000 
0.16000    14941148.00000000 9729277.00000000 24100336.00000000 3834.42675781   405478.31250000 321432.56250000 
0.16100    14691788.00000000 9569508.00000000 23701270.00000000 3751.21557617   395427.09375000 313333.87500000 
0.16200    14446144.00000000 9411833.00000000 23307358.00000000 3670.43115234   385622.31250000 305433.40625000 
0.16300    14203908.00000000 9256253.00000000 22919104.00000000 3591.96093750   376061.93750000 297729.43750000 
0.16400    13965325.00000000 9102902.00000000 22536578.00000000 3515.65551758   366739.28125000 290219.96875000 
0.16500    13730345.00000000 8951651.00000000 22159420.00000000 3441.41674805   357651.90625000 282899.12500000 
0.16600    13498840.00000000 8802625.00000000 21787966.00000000 3369.09472656   348791.56250000 275765.78125000 
0.16700    13270927.00000000 8655673.00000000 21421816.00000000 3298.59082031   340151.31250000 268804.84375000 
0.16800    13046469.00000000 8510895.00000000 21061138.00000000 3229.77124023   331724.87500000 262022.26562500 
0.16900    12825613.00000000 8368275.50000000 20706154.00000000 3162.59667969   323507.62500000 255409.82812500 
0.17000    12608065.00000000 8227782.50000000 20356760.00000000 3096.84033203   315490.46875000 248962.68750000 
