# SAXS profile: number of points = 501, q_min = 0, q_max = 0.5, delta_q = 0.001
#    q    intensity 
0.00000    162237760.00000000 101201720.00000000 256271616.00000000 92773.77343750  7759243.50000000 6128218.00000000 
0.00100    162213328.00000000 101185704.00000000 256230928.00000000 92755.45312500  7757871.00000000 6127161.00000000 
0.00200    162137216.00000000 101138080.00000000 256110304.00000000 92701.05468750  7753762.00000000 6123920.50000000 
0.00300    162011232.00000000 101058776.00000000 255908192.00000000 92610.77343750  7746910.00000000 6118478.50000000 
0.00400    161831712.00000000 100947160.00000000 255626944.00000000 92483.29687500  7737328.50000000 6110927.00000000 
0.00500    161601328.00000000 100804384.00000000 255264896.00000000 92320.92187500  7724981.50000000 6101213.50000000 
0.00600    161320320.00000000 100629608.00000000 254821840.00000000 92122.79687500  7709969.50000000 6089366.00000000 
0.00700    160989872.00000000 100423832.00000000 254299984.00000000 91889.10156250  7692271.00000000 6075398.00000000 
0.00800    160609424.00000000 100187080.00000000 253698672.00000000 91619.83593750  7671873.50000000 6059315.00000000 
0.00900    160177936.00000000 99919480.00000000 253020096.00000000 91316.29687500  7648845.50000000 6041137.50000000 
0.01000    159697456.00000000 99620864.00000000 252263568.00000000 90977.66406250  7623181.50000000 6020916.00000000 
0.01100    159170016.00000000 99292448.00000000 251431328.00000000 90605.39062500  7594970.50000000 5998588.00000000 
0.01200    158593760.00000000 98934312.00000000 250522880.00000000 90199.07031250  7564101.00000000 5974296.50000000 
0.01300    157970960.00000000 98546344.00000000 249539456.00000000 89759.84375000  7530770.50000000 5947979.50000000 
0.01400    157299904.00000000 98129344.00000000 248481200.00000000 89287.55468750  7494913.50000000 5919690.50000000 
0.01500    156583296.00000000 97683600.00000000 247350096.00000000 88783.42968750  7456606.00000000 5889488.00000000 
0.01600    155820448.00000000 97209584.00000000 246148864.00000000 88247.36718750  7415906.50000000 5857345.00000000 
0.01700    155013600.00000000 96707320.00000000 244874464.00000000 87681.08593750  7372815.50000000 5823352.00000000 
0.01800    154162800.00000000 96177880.00000000 243532672.00000000 87083.92968750  7327409.00000000 5787506.50000000 
0.01900    153268496.00000000 95621472.00000000 242122016.00000000 86457.32031250  7279708.00000000 5749922.50000000 
0.02000    152331904.00000000 95039616.00000000 240645824.00000000 85802.20312500  7229788.00000000 5710529.50000000 
0.02100    151355728.00000000 94431480.00000000 239103232.00000000 85118.43750000  7177718.00000000 5669458.00000000 
0.02200    150336864.00000000 93798328.00000000 237497456.00000000 84407.75781250  7123532.00000000 5626717.50000000 
0.02300    149280064.00000000 93140720.00000000 235830560.00000000 83670.59375000  7067248.50000000 5582321.50000000 
0.02400    148184112.00000000 92459304.00000000 234102672.00000000 82907.99218750  7008997.00000000 5536351.50000000 
0.02500    147051824.00000000 91755056.00000000 232315952.00000000 82120.08593750  6948822.50000000 5488874.00000000 
0.02600    145882592.00000000 91027440.00000000 230472416.00000000 81308.70312500  6886728.50000000 5439883.00000000 
0.02700    144678608.00000000 90278920.00000000 228573264.00000000 80473.99218750  6822879.00000000 5389486.00000000 
0.02800    143441536.00000000 89509016.00000000 226620608.00000000 79617.14843750  6757227.50000000 5337746.50000000 
0.02900    142170944.00000000 88719136.00000000 224616944.00000000 78739.15625000  6689941.50000000 5284612.00000000 
0.03000    140869088.00000000 87909240.00000000 222564320.00000000 77841.11718750  6621046.00000000 5230248.50000000 
0.03100    139536464.00000000 87080392.00000000 220462704.00000000 76923.98437500  6550557.50000000 5174644.00000000 
0.03200    138175648.00000000 86233880.00000000 218316768.00000000 75988.21093750  6478638.00000000 5117875.50000000 
0.03300    136786928.00000000 85369664.00000000 216124400.00000000 75035.45312500  6405269.50000000 5060058.00000000 
0.03400    135371344.00000000 84489168.00000000 213891872.00000000 74066.46875000  6330620.50000000 5001125.00000000 
0.03500    133930440.00000000 83593464.00000000 211619264.00000000 73081.82031250  6254711.00000000 4941211.00000000 
0.03600    132465944.00000000 82682352.00000000 209309040.00000000 72083.16406250  6177594.00000000 4880393.50000000 
0.03700    130978768.00000000 81757168.00000000 206963088.00000000 71071.20312500  6099383.00000000 4818666.00000000 
0.03800    129470416.00000000 80818744.00000000 204583296.00000000 70046.85156250  6020137.50000000 4756155.50000000 
0.03900    127941792.00000000 79868360.00000000 202172256.00000000 69011.50000000  5939917.00000000 4692874.00000000 
0.04000    126394344.00000000 78905680.00000000 199732336.00000000 67966.23437500  5858809.50000000 4628875.50000000 
0.04100    124829728.00000000 77932752.00000000 197264384.00000000 66911.75000000  5776892.50000000 4564239.00000000 
0.04200    123249512.00000000 76949512.00000000 194770800.00000000 65848.82812500  5694228.50000000 4499023.00000000 
0.04300    121654056.00000000 75957424.00000000 192255168.00000000 64778.87109375  5610895.50000000 4433295.50000000 
0.04400    120045952.00000000 74956800.00000000 189718864.00000000 63702.95312500  5526973.50000000 4367077.00000000 
0.04500    118425528.00000000 73949072.00000000 187162240.00000000 62621.94531250  5442547.50000000 4300477.00000000 
0.04600    116793824.00000000 72934504.00000000 184588336.00000000 61536.41796875  5357681.00000000 4233474.00000000 
0.04700    115153760.00000000 71914448.00000000 182002272.00000000 60448.10546875  5272405.00000000 4166227.25000000 
0.04800    113504232.00000000 70889192.00000000 179400592.00000000 59357.17578125  5186884.00000000 4098715.75000000 
0.04900    111849408.00000000 69859304.00000000 176789680.00000000 58265.35937500  5101059.50000000 4031029.75000000 
0.05000    110188816.00000000 68825880.00000000 174170384.00000000 57172.90234375  5015086.50000000 3963194.75000000 
0.05100    108523472.00000000 67790120.00000000 171544000.00000000 56081.17187500  4929044.50000000 3895294.50000000 
0.05200    106855376.00000000 66752656.00000000 168912672.00000000 54990.85546875  4842956.00000000 3827394.25000000 
0.05300    105184704.00000000 65714296.00000000 166277072.00000000 53902.70703125  4756890.00000000 3759480.50000000 
0.05400    103514176.00000000 64675228.00000000 163642352.00000000 52818.01171875  4670983.50000000 3691687.50000000 
0.05500    101844080.00000000 63636424.00000000 161007600.00000000 51737.22265625  4585203.50000000 3624006.00000000 
0.05600    100175464.00000000 62598900.00000000 158377008.00000000 50661.10546875  4499637.50000000 3556517.00000000 
0.05700    98509992.00000000 61563260.00000000 155750608.00000000 49590.76953125  4414392.50000000 3489241.25000000 
0.05800    96849096.00000000 60530196.00000000 153130592.00000000 48526.77734375  4329476.50000000 3422230.25000000 
0.05900    95192832.00000000 59499832.00000000 150516816.00000000 47469.83984375  4244958.50000000 3355539.50000000 
0.06000    93542688.00000000 58473512.00000000 147915360.00000000 46420.69531250  4160913.00000000 3289228.50000000 
0.06100    91899648.00000000 57451884.00000000 145323040.00000000 45380.21875000  4077371.25000000 3223323.25000000 
0.06200    90264888.00000000 56435316.00000000 142744800.00000000 44348.60156250  3994406.00000000 3157860.00000000 
0.06300    88639480.00000000 55424592.00000000 140180720.00000000 43326.99218750  3912049.25000000 3092878.00000000 
0.06400    87023680.00000000 54419944.00000000 137632864.00000000 42315.58203125  3830342.25000000 3028432.75000000 
0.06500    85419424.00000000 53422412.00000000 135102592.00000000 41315.17968750  3749369.75000000 2964526.75000000 
0.06600    83827184.00000000 52432348.00000000 132590832.00000000 40326.35937500  3669160.50000000 2901215.50000000 
0.06700    82247696.00000000 51449848.00000000 130100448.00000000 39349.59375000  3589734.75000000 2838535.00000000 
0.06800    80681216.00000000 50476172.00000000 127630440.00000000 38385.15234375  3511133.00000000 2776539.00000000 
0.06900    79129584.00000000 49511376.00000000 125183464.00000000 37433.71093750  3433421.50000000 2715224.00000000 
0.07000    77592704.00000000 48556292.00000000 122759480.00000000 36495.59765625  3356628.50000000 2654630.50000000 
0.07100    76071680.00000000 47610624.00000000 120361232.00000000 35571.56250000  3280772.00000000 2594769.00000000 
0.07200    74567104.00000000 46675448.00000000 117988880.00000000 34661.46875000  3205898.00000000 2535685.00000000 
0.07300    73080344.00000000 45750824.00000000 115643952.00000000 33765.87890625  3132031.00000000 2477414.75000000 
0.07400    71610816.00000000 44837680.00000000 113326552.00000000 32884.98046875  3059218.75000000 2419963.25000000 
0.07500    70159592.00000000 43935572.00000000 111038720.00000000 32019.31054688  2987459.50000000 2363337.25000000 
0.07600    68727592.00000000 43045360.00000000 108780688.00000000 31169.01562500  2916769.00000000 2307573.50000000 
0.07700    67314920.00000000 42167432.00000000 106552800.00000000 30334.11523438  2847215.00000000 2252688.50000000 
0.07800    65922224.00000000 41301580.00000000 104356312.00000000 29515.06640625  2778786.00000000 2198703.25000000 
0.07900    64549308.00000000 40448368.00000000 102191776.00000000 28711.76367188  2711502.50000000 2145616.25000000 
0.08000    63197608.00000000 39608152.00000000 100060464.00000000 27924.60351562  2645376.75000000 2093435.12500000 
0.08100    61866388.00000000 38780884.00000000 97961904.00000000 27153.57617188  2580459.50000000 2042209.75000000 
0.08200    60556956.00000000 37967264.00000000 95897368.00000000 26398.77734375  2516708.25000000 1991909.75000000 
0.08300    59268952.00000000 37166832.00000000 93866168.00000000 25660.41796875  2454156.75000000 1942559.12500000 
0.08400    58002880.00000000 36380368.00000000 91870568.00000000 24938.34570312  2392818.75000000 1894164.12500000 
0.08500    56759288.00000000 35607680.00000000 89909312.00000000 24232.68945312  2332695.75000000 1846723.37500000 
0.08600    55537548.00000000 34848620.00000000 87983800.00000000 23543.28125000  2273800.25000000 1800253.50000000 
0.08700    54338456.00000000 34103768.00000000 86093368.00000000 22870.19140625  2216117.25000000 1754744.00000000 
0.08800    53162120.00000000 33372798.00000000 84238584.00000000 22213.50390625  2159666.75000000 1710206.62500000 
0.08900    52008172.00000000 32656112.00000000 82420272.00000000 21572.99804688  2104441.50000000 1666631.25000000 
0.09000    50877056.00000000 31953650.00000000 80637224.00000000 20948.39843750  2050451.37500000 1624018.87500000 
0.09100    49768700.00000000 31265348.00000000 78890728.00000000 20339.99023438  1997650.62500000 1582369.87500000 
0.09200    48683756.00000000 30591196.00000000 77179328.00000000 19747.35742188  1946082.62500000 1541686.00000000 
0.09300    47620924.00000000 29931402.00000000 75504936.00000000 19170.41406250  1895715.87500000 1501949.00000000 
0.09400    46580868.00000000 29285590.00000000 73866144.00000000 18608.85546875  1846554.25000000 1463153.25000000 
0.09500    45563848.00000000 28653962.00000000 72262480.00000000 18062.72265625  1798572.37500000 1425301.25000000 
0.09600    44568920.00000000 28036422.00000000 70694848.00000000 17531.82812500  1751778.62500000 1388382.75000000 
0.09700    43596824.00000000 27433026.00000000 69162616.00000000 17015.78710938  1706162.62500000 1352386.50000000 
0.09800    42646876.00000000 26843338.00000000 67665952.00000000 16514.49609375  1661698.87500000 1317303.37500000 
0.09900    41719276.00000000 26267482.00000000 66203956.00000000 16027.70605469  1618382.12500000 1283119.62500000 
0.10000    40813344.00000000 25705240.00000000 64776388.00000000 15555.13574219  1576182.75000000 1249826.50000000 
0.10100    39929088.00000000 25156594.00000000 63383308.00000000 15096.43652344  1535099.25000000 1217408.12500000 
0.10200    39066592.00000000 24621294.00000000 62024176.00000000 14651.45898438  1495112.50000000 1185859.00000000 
0.10300    38224784.00000000 24099098.00000000 60698252.00000000 14219.94531250  1456202.37500000 1155152.37500000 
0.10400    37404168.00000000 23590108.00000000 59405660.00000000 13801.50878906  1418360.87500000 1125289.50000000 
0.10500    36604840.00000000 23094036.00000000 58146260.00000000 13396.07324219  1381554.62500000 1096250.12500000 
0.10600    35825196.00000000 22610692.00000000 56917952.00000000 13003.03125000  1345765.37500000 1068003.25000000 
0.10700    35065808.00000000 22139714.00000000 55721996.00000000 12622.25097656  1310982.12500000 1040553.25000000 
0.10800    34326112.00000000 21681010.00000000 54556716.00000000 12253.56445312  1277177.87500000 1013880.31250000 
0.10900    33605772.00000000 21234334.00000000 53422476.00000000 11896.38476562  1244334.37500000 987962.81250000 
0.11000    32904704.00000000 20799646.00000000 52317916.00000000 11550.62207031  1212428.25000000 962779.81250000 
0.11100    32222230.00000000 20376526.00000000 51242980.00000000 11215.83496094  1181442.25000000 938323.93750000 
0.11200    31557786.00000000 19964692.00000000 50196992.00000000 10891.74316406  1151343.37500000 914567.43750000 
0.11300    30911446.00000000 19564182.00000000 49179344.00000000 10578.04882812  1122117.50000000 891499.56250000 
0.11400    30282734.00000000 19174428.00000000 48189112.00000000 10274.48828125  1093753.25000000 869107.56250000 
0.11500    29671106.00000000 18795380.00000000 47226076.00000000 9980.66113281   1066199.12500000 847363.50000000 
0.11600    29076276.00000000 18426748.00000000 46289452.00000000 9696.39257812   1039458.31250000 826249.81250000 
0.11700    28497966.00000000 18068442.00000000 45378704.00000000 9421.24023438   1013506.87500000 805754.62500000 
0.11800    27935386.00000000 17719834.00000000 44492996.00000000 9154.91894531   988296.93750000 785853.81250000 
0.11900    27388108.00000000 17380892.00000000 43631404.00000000 8897.14746094   963832.68750000 766534.37500000 
0.12000    26856106.00000000 17051436.00000000 42793616.00000000 8647.72851562   940075.31250000 747772.50000000 
0.12100    26339048.00000000 16731096.00000000 41979640.00000000 8406.27539062   917019.56250000 729563.18750000 
0.12200    25835880.00000000 16419497.00000000 41187724.00000000 8172.50537109   894623.62500000 711870.62500000 
0.12300    25346802.00000000 16116624.00000000 40417728.00000000 7946.16503906   872879.00000000 694697.93750000 
0.12400    24871200.00000000 15822002.00000000 39668996.00000000 7726.96630859   851763.06250000 678007.43750000 
0.12500    24408442.00000000 15535410.00000000 38940644.00000000 7514.62597656   831243.18750000 661794.00000000 
0.12600    23958658.00000000 15256874.00000000 38232376.00000000 7308.94287109   811313.31250000 646040.68750000 
0.12700    23520892.00000000 14985778.00000000 37543348.00000000 7109.65820312   791945.18750000 630733.18750000 
0.12800    23094942.00000000 14722022.00000000 36872576.00000000 6916.43164062   773112.68750000 615844.00000000 
0.12900    22680442.00000000 14465282.00000000 36220504.00000000 6729.12890625   754809.06250000 601372.31250000 
0.13000    22277104.00000000 14215457.00000000 35585320.00000000 6547.49902344   737013.37500000 587289.87500000 
0.13100    21884384.00000000 13972203.00000000 34967020.00000000 6371.24267578   719689.25000000 573588.43750000 
0.13200    21501886.00000000 13735267.00000000 34364752.00000000 6200.23974609   702839.43750000 560251.87500000 
0.13300    21129310.00000000 13504517.00000000 33778312.00000000 6034.27783203   686435.93750000 547269.93750000 
0.13400    20766372.00000000 13279642.00000000 33206636.00000000 5873.10644531   670464.25000000 534622.87500000 
0.13500    20412528.00000000 13060382.00000000 32649632.00000000 5716.51513672   654899.62500000 522302.78125000 
0.13600    20067564.00000000 12846639.00000000 32106098.00000000 5564.44189453   639740.00000000 510293.06250000 
0.13700    19731166.00000000 12638094.00000000 31576416.00000000 5416.49267578   624958.62500000 498577.34375000 
0.13800    19402794.00000000 12434552.00000000 31059264.00000000 5272.76318359   610540.87500000 487152.18750000 
0.13900    19082314.00000000 12235882.00000000 30554506.00000000 5132.95458984   596477.81250000 476001.62500000 
0.14000    18769508.00000000 12041806.00000000 30061398.00000000 4996.89697266   582750.62500000 465114.09375000 
0.14100    18463938.00000000 11852190.00000000 29579800.00000000 4864.52392578   569354.87500000 454483.93750000 
0.14200    18165070.00000000 11666772.00000000 29108988.00000000 4735.60205078   556267.31250000 444091.87500000 
0.14300    17873096.00000000 11485419.00000000 28648656.00000000 4610.06591797   543473.06250000 433937.46875000 
0.14400    17587292.00000000 11307940.00000000 28197992.00000000 4487.79003906   530968.43750000 424002.28125000 
0.14500    17307740.00000000 11134205.00000000 27757002.00000000 4368.65478516   518743.15625000 414283.46875000 
0.14600    17034054.00000000 10964008.00000000 27325218.00000000 4252.57373047   506779.25000000 404775.03125000 
0.14700    16765907.00000000 10797308.00000000 26902332.00000000 4139.42480469   495073.25000000 395461.62500000 
0.14800    16503033.00000000 10633772.00000000 26487446.00000000 4029.09814453   483609.87500000 386339.15625000 
0.14900    16245379.00000000 10473337.00000000 26080700.00000000 3921.48388672   472380.46875000 377401.25000000 
0.15000    15992624.00000000 10315951.00000000 25681626.00000000 3816.58056641   461379.21875000 368638.93750000 
0.15100    15744568.00000000 10161314.00000000 25289638.00000000 3714.24291992   450599.56250000 360048.50000000 
0.15200    15501060.00000000 10009530.00000000 24905162.00000000 3614.46044922   440035.34375000 351625.84375000 
0.15300    15261874.00000000 9860299.00000000 24526980.00000000 3517.09716797   429673.43750000 343356.87500000 
0.15400    15026802.00000000 9713456.00000000 24155414.00000000 3422.11694336   419506.90625000 335245.15625000 
0.15500    14795658.00000000 9569105.00000000 23789786.00000000 3329.50512695   409536.21875000 327282.28125000 
0.15600    14568308.00000000 9426884.00000000 23430194.00000000 3239.12670898   399747.25000000 319461.15625000 
0.15700    14344715.00000000 9287009.00000000 23076392.00000000 3151.03417969   390144.50000000 311783.56250000 
0.15800    14124489.00000000 9149137.00000000 22727636.00000000 3065.07324219   380712.50000000 304241.00000000 
0.15900    13907823.00000000 9013299.00000000 22384454.00000000 2981.31347656   371452.56250000 296830.75000000 
0.16000    13694239.00000000 8879385.00000000 22046066.00000000 2899.60546875   362360.84375000 289549.84375000 
0.16100    13483991.00000000 8747424.00000000 21712624.00000000 2820.03173828   353432.09375000 282396.25000000 
0.16200    13276585.00000000 8617125.00000000 21383828.00000000 2742.49096680   344663.65625000 275367.06250000 
0.16300    13072193.00000000 8488603.00000000 21059438.00000000 2666.93041992   336051.09375000 268456.59375000 
0.16400    12870538.00000000 8361753.00000000 20739526.00000000 2593.37207031   327591.31250000 261669.85937500 
0.16500    12671669.00000000 8236524.00000000 20423638.00000000 2521.76879883   319284.40625000 254998.51562500 
0.16600    12475457.00000000 8112838.00000000 20112026.00000000 2452.10620117   311124.09375000 248440.79687500 
0.16700    12281879.00000000 7990590.50000000 19804116.00000000 2384.33959961   303106.90625000 241996.21875000 
0.16800    12090598.00000000 7869825.50000000 19500100.00000000 2318.44873047   295236.21875000 235663.89062500 
0.16900    11901941.00000000 7750551.50000000 19199956.00000000 2254.47485352   287507.84375000 229443.17187500 
0.17000    11715675.00000000 7632683.50000000 18903328.00000000 2192.33422852   279920.40625000 223331.42187500 
