# SAXS profile: number of points = 501, q_min = 0, q_max = 0.5, delta_q = 0.001
#    q    intensity 
0.00000    162238160.00000000 101201824.00000000 256271504.00000000 105112.75000000 8259154.00000000 6523054.00000000 
0.00100    162209072.00000000 101183128.00000000 256224992.00000000 105090.18750000 8257489.50000000 6521773.00000000 
0.00200    162121392.00000000 101127856.00000000 256084224.00000000 105020.87500000 8252520.50000000 6517788.00000000 
0.00300    161972496.00000000 101034984.00000000 255849536.00000000 104906.38281250 8244209.00000000 6511252.00000000 
0.00400    161763776.00000000 100905376.00000000 255520192.00000000 104745.69531250 8232576.50000000 6502102.00000000 
0.00500    161494912.00000000 100739280.00000000 255098496.00000000 104539.57031250 8217645.00000000 6490325.00000000 
0.00600    161167792.00000000 100536032.00000000 254582976.00000000 104288.33593750 8199468.00000000 6476013.00000000 
0.00700    160783008.00000000 100297256.00000000 253975328.00000000 103992.02343750 8178024.00000000 6459111.50000000 
0.00800    160338496.00000000 100021888.00000000 253276272.00000000 103651.73437500 8153303.50000000 6439695.50000000 
0.00900    159836608.00000000 99710640.00000000 252487168.00000000 103266.61718750 8125460.00000000 6417708.00000000 
0.01000    159278272.00000000 99364832.00000000 251608368.00000000 102838.58593750 8094436.00000000 6393245.50000000 
0.01100    158663536.00000000 98983672.00000000 250641104.00000000 102367.54687500 8060255.00000000 6366343.00000000 
0.01200    157994512.00000000 98567840.00000000 249586016.00000000 101853.93750000 8023033.00000000 6336991.00000000 
0.01300    157270704.00000000 98118680.00000000 248443376.00000000 101298.78906250 7982744.50000000 6305280.50000000 
0.01400    156491952.00000000 97635840.00000000 247217616.00000000 100702.64062500 7939467.00000000 6271174.00000000 
0.01500    155659760.00000000 97119344.00000000 245906784.00000000 100065.67187500 7893268.00000000 6234787.00000000 
0.01600    154775264.00000000 96570752.00000000 244514144.00000000 99390.28906250  7844209.00000000 6196091.00000000 
0.01700    153841600.00000000 95990496.00000000 243041024.00000000 98675.85156250  7792311.00000000 6155221.00000000 
0.01800    152855520.00000000 95378976.00000000 241489392.00000000 97924.15625000  7737650.50000000 6112158.50000000 
0.01900    151821808.00000000 94737768.00000000 239860640.00000000 97135.63281250  7680316.00000000 6066963.50000000 
0.02000    150740224.00000000 94066128.00000000 238154528.00000000 96311.42968750  7620340.50000000 6019712.00000000 
0.02100    149611744.00000000 93366256.00000000 236378080.00000000 95452.66406250  7557835.50000000 5970470.50000000 
0.02200    148437568.00000000 92637704.00000000 234528816.00000000 94560.25781250  7492849.00000000 5919234.50000000 
0.02300    147221408.00000000 91882632.00000000 232610144.00000000 93635.71093750  7425455.50000000 5866166.50000000 
0.02400    145961040.00000000 91100376.00000000 230625680.00000000 92679.74218750  7355724.00000000 5811225.50000000 
0.02500    144658304.00000000 90293192.00000000 228574480.00000000 91693.92187500  7283748.50000000 5754540.00000000 
0.02600    143317520.00000000 89460592.00000000 226461728.00000000 90678.92187500  7209632.50000000 5696127.50000000 
0.02700    141938352.00000000 88604568.00000000 224289856.00000000 89636.25781250  7133495.00000000 5636111.00000000 
0.02800    140522384.00000000 87726512.00000000 222056784.00000000 88567.85937500  7055338.50000000 5574525.00000000 
0.02900    139070144.00000000 86825384.00000000 219769328.00000000 87473.87500000  6975266.00000000 5511444.50000000 
0.03000    137584208.00000000 85903192.00000000 217430144.00000000 86356.22656250  6893398.00000000 5446947.00000000 
0.03100    136067264.00000000 84962032.00000000 215038320.00000000 85215.74218750  6809840.00000000 5381091.50000000 
0.03200    134518992.00000000 84001048.00000000 212600032.00000000 84054.89843750  6724669.00000000 5313964.00000000 
0.03300    132941808.00000000 83022744.00000000 210117168.00000000 82873.51562500  6637928.50000000 5245642.50000000 
0.03400    131337616.00000000 82027256.00000000 207587104.00000000 81674.45312500  6549759.00000000 5176155.00000000 
0.03500    129707152.00000000 81015376.00000000 205019936.00000000 80458.14843750  6460308.00000000 5105653.00000000 
0.03600    128053216.00000000 79989472.00000000 202413952.00000000 79225.75781250  6369571.00000000 5034179.00000000 
0.03700    126376680.00000000 78949008.00000000 199773408.00000000 77979.39843750  6277705.50000000 4961749.00000000 
0.03800    124679776.00000000 77896024.00000000 197099760.00000000 76720.14843750  6184782.00000000 4888535.50000000 
0.03900    122964312.00000000 76831424.00000000 194396112.00000000 75449.12500000  6090896.00000000 4814558.00000000 
0.04000    121230776.00000000 75756296.00000000 191665664.00000000 74167.69531250  5996183.50000000 4739932.50000000 
0.04100    119482024.00000000 74670888.00000000 188911120.00000000 72877.75000000  5900704.00000000 4664696.00000000 
0.04200    117719728.00000000 73577160.00000000 186133440.00000000 71579.46875000  5804545.00000000 4588901.00000000 
0.04300    115944368.00000000 72475840.00000000 183335856.00000000 70276.08593750  5707797.50000000 4512654.00000000 
0.04400    114159128.00000000 71368064.00000000 180524624.00000000 68967.25781250  5610594.00000000 4436050.00000000 
0.04500    112364296.00000000 70255176.00000000 177697216.00000000 67654.91406250  5513040.00000000 4359162.50000000 
0.04600    110562336.00000000 69137016.00000000 174858944.00000000 66340.44531250  5415147.50000000 4282016.50000000 
0.04700    108755504.00000000 68015680.00000000 172011728.00000000 65024.88281250  5317069.50000000 4204725.00000000 
0.04800    106943576.00000000 66891468.00000000 169156912.00000000 63709.39062500  5218870.50000000 4127337.00000000 
0.04900    105129424.00000000 65766020.00000000 166298784.00000000 62395.49609375  5120630.50000000 4049917.25000000 
0.05000    103315088.00000000 64639840.00000000 163440128.00000000 61084.17578125  5022475.00000000 3972566.75000000 
0.05100    101500464.00000000 63514112.00000000 160582192.00000000 59776.60546875  4924469.50000000 3895309.00000000 
0.05200    99688288.00000000 62389548.00000000 157727072.00000000 58473.60546875  4826696.50000000 3818239.00000000 
0.05300    97879616.00000000 61267384.00000000 154877408.00000000 57176.94140625  4729233.50000000 3741424.75000000 
0.05400    96076088.00000000 60148056.00000000 152035616.00000000 55887.46093750  4632128.50000000 3664900.50000000 
0.05500    94278456.00000000 59033152.00000000 149204304.00000000 54605.80468750  4535520.50000000 3588747.25000000 
0.05600    92488920.00000000 57922624.00000000 146385456.00000000 53333.70312500  4439459.00000000 3513026.00000000 
0.05700    90709104.00000000 56817932.00000000 143579936.00000000 52071.66406250  4344009.50000000 3437779.25000000 
0.05800    88939232.00000000 55719888.00000000 140790960.00000000 50820.60937500  4249223.50000000 3363057.25000000 
0.05900    87181032.00000000 54628624.00000000 138021024.00000000 49581.02343750  4155204.50000000 3288932.75000000 
0.06000    85435360.00000000 53545568.00000000 135270576.00000000 48354.28125000  4061977.00000000 3215454.25000000 
0.06100    83704144.00000000 52471412.00000000 132543600.00000000 47141.42187500  3969639.50000000 3142651.00000000 
0.06200    81987832.00000000 51406500.00000000 129840280.00000000 45943.14843750  3878227.25000000 3070597.00000000 
0.06300    80287712.00000000 50351760.00000000 127161984.00000000 44759.65234375  3787849.50000000 2999318.00000000 
0.06400    78604784.00000000 49307792.00000000 124510704.00000000 43592.10546875  3698485.00000000 2928876.50000000 
0.06500    76941280.00000000 48275048.00000000 121888704.00000000 42440.83984375  3610227.50000000 2859284.75000000 
0.06600    75295968.00000000 47254552.00000000 119296920.00000000 41306.75781250  3523094.00000000 2790610.50000000 
0.06700    73671080.00000000 46246260.00000000 116737384.00000000 40190.37500000  3437181.50000000 2722860.00000000 
0.06800    72066784.00000000 45251204.00000000 114210072.00000000 39092.09765625  3352510.25000000 2656086.50000000 
0.06900    70484800.00000000 44269700.00000000 111717648.00000000 38012.34765625  3269098.75000000 2590305.50000000 
0.07000    68925464.00000000 43301920.00000000 109261040.00000000 36951.84375000  3187011.75000000 2525581.50000000 
0.07100    67389504.00000000 42348612.00000000 106840800.00000000 35910.67578125  3106256.75000000 2461895.50000000 
0.07200    65877160.00000000 41410588.00000000 104458472.00000000 34889.43359375  3026890.75000000 2399301.75000000 
0.07300    64389596.00000000 40487552.00000000 102114848.00000000 33888.48046875  2948946.75000000 2337825.75000000 
0.07400    62927312.00000000 39579940.00000000 99810768.00000000 32907.79687500  2872428.50000000 2277480.00000000 
0.07500    61490532.00000000 38688584.00000000 97546744.00000000 31948.34960938  2797355.75000000 2218249.00000000 
0.07600    60079764.00000000 37813160.00000000 95324376.00000000 31009.19726562  2723754.25000000 2160186.25000000 
0.07700    58695820.00000000 36954412.00000000 93143696.00000000 30091.43359375  2651690.25000000 2103340.50000000 
0.07800    57338740.00000000 36112196.00000000 91005416.00000000 29194.82617188  2581093.25000000 2047638.50000000 
0.07900    56008568.00000000 35286956.00000000 88909960.00000000 28319.41015625  2512023.00000000 1993154.00000000 
0.08000    54706504.00000000 34478464.00000000 86858088.00000000 27465.45312500  2444496.00000000 1939867.87500000 
0.08100    53431516.00000000 33687416.00000000 84849096.00000000 26632.76953125  2378519.50000000 1887800.25000000 
0.08200    52184748.00000000 32913712.00000000 82885056.00000000 25821.53125000  2314065.50000000 1836930.62500000 
0.08300    50966252.00000000 32157408.00000000 80964432.00000000 25031.55273438  2251155.25000000 1787284.87500000 
0.08400    49775376.00000000 31418562.00000000 79088208.00000000 24262.83984375  2189798.50000000 1738858.25000000 
0.08500    48613076.00000000 30697172.00000000 77256640.00000000 23515.22460938  2129980.50000000 1691630.12500000 
0.08600    47479116.00000000 29993304.00000000 75469880.00000000 22788.68554688  2071705.12500000 1645626.00000000 
0.08700    46373008.00000000 29306908.00000000 73726696.00000000 22082.80664062  2014953.25000000 1600823.62500000 
0.08800    45295220.00000000 28637828.00000000 72028328.00000000 21397.68750000  1959721.75000000 1557209.50000000 
0.08900    44245476.00000000 27986510.00000000 70374112.00000000 20732.79492188  1906010.75000000 1514799.50000000 
0.09000    43223692.00000000 27351994.00000000 68763944.00000000 20088.42968750  1853783.62500000 1473551.12500000 
0.09100    42229228.00000000 26734700.00000000 67196592.00000000 19463.63476562  1803046.12500000 1433471.00000000 
0.09200    41262472.00000000 26134554.00000000 65673164.00000000 18858.78710938  1753774.62500000 1394549.62500000 
0.09300    40323096.00000000 25551434.00000000 64192880.00000000 18273.12890625  1705958.50000000 1356762.50000000 
0.09400    39410732.00000000 24984902.00000000 62754596.00000000 17706.35546875  1659565.50000000 1320096.37500000 
0.09500    38524688.00000000 24434740.00000000 61358520.00000000 17158.40039062  1614571.00000000 1284549.00000000 
0.09600    37665388.00000000 23901110.00000000 60003136.00000000 16628.68164062  1570972.37500000 1250084.37500000 
0.09700    36831504.00000000 23383402.00000000 58689488.00000000 16116.99511719  1528732.75000000 1216687.25000000 
0.09800    36023868.00000000 22881762.00000000 57416068.00000000 15622.71289062  1487829.37500000 1184343.62500000 
0.09900    35241028.00000000 22395480.00000000 56181748.00000000 15145.75195312  1448236.37500000 1153030.00000000 
0.10000    34483120.00000000 21924720.00000000 54986812.00000000 14685.41796875  1409930.62500000 1122725.37500000 
0.10100    33749092.00000000 21468798.00000000 53830012.00000000 14241.45996094  1372874.12500000 1093406.12500000 
0.10200    33039178.00000000 21027632.00000000 52710668.00000000 13813.37695312  1337050.62500000 1065054.00000000 
0.10300    32352608.00000000 20601048.00000000 51627632.00000000 13400.87402344  1302418.00000000 1037651.75000000 
0.10400    31688670.00000000 20188394.00000000 50580904.00000000 13003.40039062  1268956.00000000 1011157.25000000 
0.10500    31047236.00000000 19789658.00000000 49569204.00000000 12620.55859375  1236642.12500000 985558.68750000 
0.10600    30427216.00000000 19404238.00000000 48591596.00000000 12251.87695312  1205417.87500000 960828.12500000 
0.10700    29828318.00000000 19032106.00000000 47646916.00000000 11896.89355469  1175275.00000000 936943.56250000 
0.10800    29250314.00000000 18672450.00000000 46735028.00000000 11555.26855469  1146170.25000000 913877.62500000 
0.10900    28692228.00000000 18325494.00000000 45854792.00000000 11226.56933594  1118074.50000000 891599.06250000 
0.11000    28153788.00000000 17990486.00000000 45005020.00000000 10910.13281250  1090958.50000000 870101.50000000 
0.11100    27634146.00000000 17667116.00000000 44184868.00000000 10605.74023438  1064792.50000000 849341.56250000 
0.11200    27132846.00000000 17355086.00000000 43393548.00000000 10312.78027344  1039534.25000000 829298.50000000 
0.11300    26649208.00000000 17053890.00000000 42630228.00000000 10030.98535156  1015155.06250000 809953.18750000 
0.11400    26182598.00000000 16763529.00000000 41893940.00000000 9759.93066406   991634.62500000 791271.18750000 
0.11500    25732714.00000000 16483243.00000000 41183364.00000000 9499.16601562   968925.18750000 773234.31250000 
0.11600    25298580.00000000 16212689.00000000 40497664.00000000 9248.16015625   947007.43750000 755814.75000000 
0.11700    24879738.00000000 15951735.00000000 39836364.00000000 9006.62792969   925838.93750000 738987.12500000 
0.11800    24475670.00000000 15699846.00000000 39198116.00000000 8774.09472656   905395.93750000 722727.62500000 
0.11900    24085716.00000000 15456595.00000000 38581788.00000000 8550.19042969   885647.43750000 707015.75000000 
0.12000    23709398.00000000 15221721.00000000 37987120.00000000 8334.50195312   866557.25000000 691827.87500000 
0.12100    23346040.00000000 14995018.00000000 37412832.00000000 8126.91699219   848114.43750000 677134.87500000 
0.12200    22995160.00000000 14775782.00000000 36857992.00000000 7926.73193359   830272.12500000 662922.18750000 
0.12300    22656136.00000000 14563902.00000000 36321628.00000000 7733.77929688   813008.56250000 649160.50000000 
0.12400    22328218.00000000 14359050.00000000 35803112.00000000 7547.59228516   796285.56250000 635827.00000000 
0.12500    22011266.00000000 14160623.00000000 35301304.00000000 7367.92333984   780093.81250000 622909.93750000 
0.12600    21704408.00000000 13968826.00000000 34815884.00000000 7194.53027344   764407.68750000 610386.62500000 
0.12700    21407296.00000000 13782726.00000000 34345500.00000000 7026.95654297   749180.81250000 598233.00000000 
0.12800    21119468.00000000 13602325.00000000 33889388.00000000 6864.97167969   734405.68750000 586428.50000000 
0.12900    20840036.00000000 13427286.00000000 33447142.00000000 6708.37646484   720060.81250000 574961.75000000 
0.13000    20569084.00000000 13257299.00000000 33017764.00000000 6556.75390625   706117.81250000 563815.18750000 
0.13100    20305666.00000000 13091963.00000000 32600142.00000000 6409.91503906   692545.25000000 552957.56250000 
0.13200    20049556.00000000 12931148.00000000 32194044.00000000 6267.58398438   679339.43750000 542389.00000000 
0.13300    19800186.00000000 12774519.00000000 31798552.00000000 6129.59863281   666472.06250000 532085.93750000 
0.13400    19557494.00000000 12621676.00000000 31413278.00000000 5995.68847656   653924.50000000 522029.00000000 
0.13500    19320624.00000000 12472692.00000000 31037416.00000000 5865.56250000   641675.18750000 512211.96875000 
0.13600    19089244.00000000 12326959.00000000 30669778.00000000 5739.16259766   629709.18750000 502616.37500000 
0.13700    18863092.00000000 12184347.00000000 30310488.00000000 5616.17333984   618009.56250000 493231.87500000 
0.13800    18641698.00000000 12044693.00000000 29958788.00000000 5496.43750000   606558.62500000 484041.62500000 
0.13900    18424920.00000000 11907881.00000000 29614180.00000000 5379.90869141   595348.06250000 475041.37500000 
0.14000    18212122.00000000 11773420.00000000 29275642.00000000 5266.31347656   584356.31250000 466211.12500000 
0.14100    18003166.00000000 11641312.00000000 28943180.00000000 5155.52050781   573573.50000000 457547.81250000 
0.14200    17797784.00000000 11511357.00000000 28616240.00000000 5047.37744141   562983.43750000 449038.37500000 
0.14300    17595354.00000000 11383290.00000000 28294212.00000000 4941.79394531   552580.68750000 440673.15625000 
0.14400    17396044.00000000 11256966.00000000 27976484.00000000 4838.63623047   542346.12500000 432441.31250000 
0.14500    17199470.00000000 11132193.00000000 27663222.00000000 4737.80810547   532280.12500000 424342.65625000 
0.14600    17005176.00000000 11008948.00000000 27353586.00000000 4639.18994141   522366.34375000 416364.31250000 
0.14700    16813148.00000000 10886935.00000000 27047444.00000000 4542.71240234   512598.46875000 408502.87500000 
0.14800    16623095.00000000 10766211.00000000 26744212.00000000 4448.22412109   502965.59375000 400745.46875000 
0.14900    16434556.00000000 10646454.00000000 26443626.00000000 4355.71142578   493463.40625000 393091.59375000 
0.15000    16247859.00000000 10527608.00000000 26145626.00000000 4265.10107422   484086.93750000 385537.18750000 
0.15100    16062611.00000000 10409650.00000000 25849890.00000000 4176.29492188   474824.62500000 378073.31250000 
0.15200    15878648.00000000 10292416.00000000 25556062.00000000 4089.29394531   465679.15625000 370705.56250000 
0.15300    15695680.00000000 10175827.00000000 25263612.00000000 4003.97949219   456639.06250000 363419.50000000 
0.15400    15513752.00000000 10059771.00000000 24973002.00000000 3920.30493164   447703.84375000 356215.65625000 
0.15500    15332786.00000000 9944210.00000000 24683574.00000000 3838.27514648   438868.46875000 349090.68750000 
0.15600    15152461.00000000 9829038.00000000 24395352.00000000 3757.84130859   430128.21875000 342043.53125000 
0.15700    14972982.00000000 9714326.00000000 24108254.00000000 3678.97192383   421489.87500000 335074.65625000 
0.15800    14793922.00000000 9599895.00000000 23821736.00000000 3601.56250000   412934.40625000 328177.31250000 
0.15900    14615507.00000000 9485756.00000000 23536292.00000000 3525.72094727   404475.28125000 321354.90625000 
0.16000    14437375.00000000 9371819.00000000 23251318.00000000 3451.32128906   396101.93750000 314602.03125000 
0.16100    14259940.00000000 9258193.00000000 22967218.00000000 3378.40771484   387822.65625000 307922.81250000 
0.16200    14082654.00000000 9144716.00000000 22683520.00000000 3306.93530273   379631.62500000 301312.59375000 
0.16300    13905795.00000000 9031325.00000000 22400182.00000000 3236.85473633   371524.87500000 294773.31250000 
0.16400    13729303.00000000 8918238.00000000 22117498.00000000 3168.22656250   363508.00000000 288305.87500000 
0.16500    13553178.00000000 8805207.00000000 21835238.00000000 3100.97412109   355578.37500000 281908.18750000 
0.16600    13377292.00000000 8692410.00000000 21553482.00000000 3035.13232422   347739.00000000 275581.84375000 
0.16700    13201633.00000000 8579677.00000000 21271976.00000000 2970.64941406   339986.25000000 269326.46875000 
0.16800    13026308.00000000 8467163.00000000 20991044.00000000 2907.51342773   332324.96875000 263143.00000000 
0.16900    12851516.00000000 8354796.50000000 20710590.00000000 2845.78857422   324753.81250000 257038.37500000 
0.17000    12676947.00000000 8242673.00000000 20430668.00000000 2785.41015625   317279.00000000 251004.28125000 
