# SAXS profile: number of points = 501, q_min = 0, q_max = 0.5, delta_q = 0.001
#    q    intensity 
0.00000    162233392.00000000 101201952.00000000 256270272.00000000 108703.14062500 8399033.00000000 6633503.50000000 
0.00100    162200960.00000000 101179568.00000000 256213296.00000000 108668.85937500 8396741.00000000 6631730.50000000 
0.00200    162097136.00000000 101114000.00000000 256046896.00000000 108567.32812500 8389986.00000000 6626432.50000000 
0.00300    161920528.00000000 101004232.00000000 255765376.00000000 108398.53125000 8378727.00000000 6617636.50000000 
0.00400    161670048.00000000 100850776.00000000 255372800.00000000 108162.60156250 8362997.50000000 6605308.50000000 
0.00500    161346384.00000000 100652664.00000000 254869808.00000000 107859.67968750 8342823.50000000 6589429.50000000 
0.00600    160952928.00000000 100411120.00000000 254252384.00000000 107490.85937500 8318280.50000000 6570162.50000000 
0.00700    160490112.00000000 100128104.00000000 253530176.00000000 107058.07031250 8289312.00000000 6547465.00000000 
0.00800    159953712.00000000 99802168.00000000 252699408.00000000 106559.92968750 8256082.00000000 6521382.50000000 
0.00900    159353792.00000000 99435968.00000000 251759664.00000000 105999.54687500 8218581.50000000 6491994.50000000 
0.01000    158688304.00000000 99027664.00000000 250714720.00000000 105375.96875000 8176921.50000000 6459319.00000000 
0.01100    157957136.00000000 98578016.00000000 249567232.00000000 104693.10937500 8131180.50000000 6423414.50000000 
0.01200    157159408.00000000 98088072.00000000 248315936.00000000 103949.50781250 8081395.50000000 6384392.50000000 
0.01300    156294544.00000000 97558896.00000000 246965824.00000000 103149.26562500 8027703.00000000 6342240.00000000 
0.01400    155369008.00000000 96991440.00000000 245516240.00000000 102292.24218750 7970180.50000000 6297086.00000000 
0.01500    154383200.00000000 96386576.00000000 243972048.00000000 101381.57812500 7908967.00000000 6249037.00000000 
0.01600    153336480.00000000 95745784.00000000 242334400.00000000 100418.34375000 7844083.50000000 6198170.00000000 
0.01700    152233408.00000000 95068680.00000000 240604784.00000000 99404.45312500  7775738.50000000 6144527.50000000 
0.01800    151073360.00000000 94357248.00000000 238787968.00000000 98341.92968750  7704019.00000000 6088220.00000000 
0.01900    149858944.00000000 93611144.00000000 236884608.00000000 97233.78125000  7629041.50000000 6029373.50000000 
0.02000    148591712.00000000 92833184.00000000 234897856.00000000 96080.78906250  7550982.50000000 5968068.50000000 
0.02100    147272992.00000000 92024328.00000000 232832352.00000000 94886.51562500  7469909.50000000 5904446.00000000 
0.02200    145904160.00000000 91185312.00000000 230688816.00000000 93651.85156250  7385995.50000000 5838533.50000000 
0.02300    144490832.00000000 90317312.00000000 228471856.00000000 92380.70312500  7299394.00000000 5770551.50000000 
0.02400    143031472.00000000 89420712.00000000 226183776.00000000 91074.67187500  7210268.50000000 5700564.00000000 
0.02500    141530144.00000000 88497808.00000000 223831504.00000000 89735.98437500  7118686.00000000 5628612.00000000 
0.02600    139986160.00000000 87550296.00000000 221412368.00000000 88368.08593750  7024911.00000000 5554981.50000000 
0.02700    138406672.00000000 86578664.00000000 218933200.00000000 86972.35156250  6929009.00000000 5479653.50000000 
0.02800    136788672.00000000 85583536.00000000 216396448.00000000 85552.21875000  6831155.50000000 5402798.50000000 
0.02900    135137904.00000000 84568952.00000000 213807680.00000000 84109.65625000  6731531.00000000 5324503.50000000 
0.03000    133455624.00000000 83533376.00000000 211167904.00000000 82647.10156250  6630259.50000000 5244918.50000000 
0.03100    131743024.00000000 82479864.00000000 208481872.00000000 81167.33593750  6527506.50000000 5164154.50000000 
0.03200    130003976.00000000 81408976.00000000 205753072.00000000 79672.41406250  6423469.00000000 5082368.50000000 
0.03300    128239512.00000000 80322728.00000000 202982928.00000000 78165.81250000  6318250.50000000 4999680.00000000 
0.03400    126452808.00000000 79222280.00000000 200178976.00000000 76649.64843750  6212036.00000000 4916176.00000000 
0.03500    124646056.00000000 78109408.00000000 197343296.00000000 75125.85156250  6104990.50000000 4832000.00000000 
0.03600    122820368.00000000 76985600.00000000 194477536.00000000 73596.83593750  5997209.50000000 4747254.00000000 
0.03700    120980104.00000000 75850952.00000000 191586848.00000000 72065.67968750  5888897.00000000 4662043.00000000 
0.03800    119125648.00000000 74707792.00000000 188675040.00000000 70533.98437500  5780204.50000000 4576530.50000000 
0.03900    117260288.00000000 73557320.00000000 185743408.00000000 69003.35156250  5671251.50000000 4490779.50000000 
0.04000    115386616.00000000 72400192.00000000 182797824.00000000 67477.25781250  5562151.50000000 4404938.50000000 
0.04100    113504816.00000000 71237832.00000000 179841728.00000000 65956.71875000  5453095.50000000 4319081.50000000 
0.04200    111618584.00000000 70072880.00000000 176877472.00000000 64444.17187500  5344203.50000000 4233356.50000000 
0.04300    109729800.00000000 68906184.00000000 173906336.00000000 62941.73046875  5235581.50000000 4147834.00000000 
0.04400    107840672.00000000 67738176.00000000 170935088.00000000 61451.01171875  5127426.00000000 4062647.00000000 
0.04500    105951784.00000000 66570232.00000000 167965776.00000000 59973.91015625  5019771.50000000 3977845.25000000 
0.04600    104066840.00000000 65404384.00000000 165000944.00000000 58511.95703125  4912785.50000000 3893559.50000000 
0.04700    102187688.00000000 64240848.00000000 162043168.00000000 57066.99609375  4806571.00000000 3809859.75000000 
0.04800    100314592.00000000 63081300.00000000 159095200.00000000 55640.24218750  4701209.50000000 3726840.00000000 
0.04900    98451024.00000000 61926936.00000000 156160992.00000000 54233.09765625  4596904.50000000 3644604.00000000 
0.05000    96596800.00000000 60778344.00000000 153241664.00000000 52847.01953125  4493652.00000000 3563171.50000000 
0.05100    94756312.00000000 59636528.00000000 150342880.00000000 51483.16015625  4391569.50000000 3482658.50000000 
0.05200    92928448.00000000 58502732.00000000 147463072.00000000 50142.40625000  4290739.00000000 3403127.00000000 
0.05300    91115416.00000000 57378088.00000000 144608016.00000000 48825.87500000  4191258.25000000 3324663.75000000 
0.05400    89319592.00000000 56263056.00000000 141777712.00000000 47534.69140625  4093199.75000000 3247285.50000000 
0.05500    87541784.00000000 55159048.00000000 138975536.00000000 46269.50000000  3996653.25000000 3171051.75000000 
0.05600    85783344.00000000 54065896.00000000 136202736.00000000 45030.95703125  3901656.50000000 3096038.75000000 
0.05700    84045352.00000000 52985604.00000000 133462872.00000000 43819.76171875  3808268.25000000 3022277.75000000 
0.05800    82329160.00000000 51917996.00000000 130755496.00000000 42636.48046875  3716567.50000000 2949819.25000000 
0.05900    80635864.00000000 50864084.00000000 128083248.00000000 41481.39062500  3626535.00000000 2878713.75000000 
0.06000    78965816.00000000 49824284.00000000 125447688.00000000 40355.27343750  3538319.75000000 2808982.25000000 
0.06100    77320768.00000000 48799700.00000000 122851848.00000000 39257.72656250  3451887.25000000 2740646.00000000 
0.06200    75701200.00000000 47790368.00000000 120294408.00000000 38189.51562500  3367276.00000000 2673729.00000000 
0.06300    74108600.00000000 46797032.00000000 117777984.00000000 37149.82031250  3284517.75000000 2608278.75000000 
0.06400    72541976.00000000 45820200.00000000 115303896.00000000 36139.95312500  3203618.00000000 2544272.75000000 
0.06500    71003216.00000000 44859864.00000000 112872648.00000000 35158.66015625  3124607.75000000 2481780.25000000 
0.06600    69493456.00000000 43916768.00000000 110485464.00000000 34206.65625000  3047544.50000000 2420761.75000000 
0.06700    68012312.00000000 42991228.00000000 108143624.00000000 33283.09375000  2972361.75000000 2361242.50000000 
0.06800    66559332.00000000 42083428.00000000 105847112.00000000 32388.18945312  2899083.25000000 2303195.25000000 
0.06900    65136488.00000000 41193528.00000000 103596176.00000000 31521.33007812  2827716.25000000 2246679.25000000 
0.07000    63743288.00000000 40322200.00000000 101392280.00000000 30682.20117188  2758237.50000000 2191650.75000000 
0.07100    62380220.00000000 39468748.00000000 99235360.00000000 29870.33593750  2690655.75000000 2138091.75000000 
0.07200    61047220.00000000 38634228.00000000 97124992.00000000 29084.94140625  2624974.00000000 2086003.00000000 
0.07300    59744544.00000000 37817840.00000000 95063216.00000000 28325.94726562  2561130.75000000 2035386.00000000 
0.07400    58472176.00000000 37020472.00000000 93048016.00000000 27592.54101562  2499130.75000000 1986212.62500000 
0.07500    57230344.00000000 36241576.00000000 91080952.00000000 26884.43554688  2438943.00000000 1938467.75000000 
0.07600    56018312.00000000 35481256.00000000 89161272.00000000 26200.39648438  2380530.25000000 1892139.12500000 
0.07700    54836264.00000000 34739600.00000000 87289168.00000000 25539.97656250  2323886.00000000 1847174.62500000 
0.07800    53684672.00000000 34016364.00000000 85463400.00000000 24902.58789062  2268945.75000000 1803555.62500000 
0.07900    52562532.00000000 33312072.00000000 83684176.00000000 24287.45703125  2215697.25000000 1761292.00000000 
0.08000    51469980.00000000 32625746.00000000 81953208.00000000 23693.87304688  2164119.25000000 1720301.62500000 
0.08100    50406520.00000000 31957368.00000000 80265776.00000000 23121.05859375  2114123.50000000 1680609.37500000 
0.08200    49371756.00000000 31307090.00000000 78625736.00000000 22568.11523438  2065697.50000000 1642138.25000000 
0.08300    48365736.00000000 30674008.00000000 77029024.00000000 22034.35351562  2018808.12500000 1604878.50000000 
0.08400    47387336.00000000 30058998.00000000 75477232.00000000 21519.06835938  1973396.00000000 1568795.25000000 
0.08500    46436764.00000000 29460774.00000000 73969040.00000000 21021.27343750  1929427.37500000 1533849.00000000 
0.08600    45513060.00000000 28879606.00000000 72503344.00000000 20540.52929688  1886851.50000000 1500005.00000000 
0.08700    44615844.00000000 28315056.00000000 71080016.00000000 20076.06445312  1845619.75000000 1467231.62500000 
0.08800    43745088.00000000 27766716.00000000 69697264.00000000 19626.72851562  1805685.87500000 1435478.12500000 
0.08900    42899576.00000000 27234288.00000000 68356048.00000000 19192.08398438  1767017.62500000 1404727.50000000 
0.09000    42078772.00000000 26717860.00000000 67053964.00000000 18771.15039062  1729556.75000000 1374939.75000000 
0.09100    41282680.00000000 26216482.00000000 65789832.00000000 18363.57617188  1693259.00000000 1346070.12500000 
0.09200    40510164.00000000 25729950.00000000 64564180.00000000 17968.45898438  1658064.75000000 1318091.87500000 
0.09300    39760848.00000000 25258288.00000000 63374808.00000000 17585.17968750  1623963.37500000 1290958.12500000 
0.09400    39033936.00000000 24800680.00000000 62220360.00000000 17212.92382812  1590865.25000000 1264633.75000000 
0.09500    38328560.00000000 24356772.00000000 61101420.00000000 16851.41992188  1558761.00000000 1239113.37500000 
0.09600    37644996.00000000 23926380.00000000 60016220.00000000 16499.90234375  1527582.00000000 1214316.12500000 
0.09700    36981784.00000000 23508756.00000000 58964244.00000000 16157.67382812  1497305.75000000 1190247.62500000 
0.09800    36338540.00000000 23104014.00000000 57943668.00000000 15824.31542969  1467884.62500000 1166848.25000000 
0.09900    35714872.00000000 22711516.00000000 56953332.00000000 15499.13378906  1439282.37500000 1144106.00000000 
0.10000    35109596.00000000 22330748.00000000 55993116.00000000 15182.01757812  1411438.50000000 1121965.12500000 
0.10100    34522128.00000000 21961394.00000000 55061276.00000000 14872.04785156  1384337.62500000 1100418.50000000 
0.10200    33952256.00000000 21603200.00000000 54157344.00000000 14569.12402344  1357932.12500000 1079432.50000000 
0.10300    33398832.00000000 21255400.00000000 53280240.00000000 14272.70214844  1332194.62500000 1058973.12500000 
0.10400    32861632.00000000 20918234.00000000 52428736.00000000 13982.27148438  1307069.12500000 1039010.75000000 
0.10500    32340110.00000000 20590690.00000000 51602068.00000000 13697.83105469  1282562.37500000 1019526.50000000 
0.10600    31833424.00000000 20272658.00000000 50799032.00000000 13418.65332031  1258593.87500000 1000488.62500000 
0.10700    31340884.00000000 19963736.00000000 50018624.00000000 13144.73925781  1235169.75000000 981888.31250000 
0.10800    30861988.00000000 19663470.00000000 49259900.00000000 12875.64843750  1212254.12500000 963685.18750000 
0.10900    30396262.00000000 19371658.00000000 48522736.00000000 12611.22753906  1189815.12500000 945866.31250000 
0.11000    29943114.00000000 19087832.00000000 47805208.00000000 12351.12402344  1167830.25000000 928407.25000000 
0.11100    29501654.00000000 18811612.00000000 47106568.00000000 12095.33203125  1146280.50000000 911301.37500000 
0.11200    29072070.00000000 18542682.00000000 46426652.00000000 11843.45703125  1125134.00000000 894512.00000000 
0.11300    28653018.00000000 18280790.00000000 45764012.00000000 11595.45117188  1104363.75000000 878036.68750000 
0.11400    28244674.00000000 18025652.00000000 45118036.00000000 11351.17675781  1083976.00000000 861848.56250000 
0.11500    27846138.00000000 17776900.00000000 44488680.00000000 11110.66015625  1063937.25000000 845948.75000000 
0.11600    27457098.00000000 17533870.00000000 43873472.00000000 10873.51074219  1044226.18750000 830317.06250000 
0.11700    27077118.00000000 17296800.00000000 43272896.00000000 10639.79101562  1024835.25000000 814925.62500000 
0.11800    26705570.00000000 17065120.00000000 42686024.00000000 10409.36230469  1005750.37500000 799782.75000000 
0.11900    26342050.00000000 16838554.00000000 42111708.00000000 10182.25585938  986949.81250000 784870.43750000 
0.12000    25986228.00000000 16617088.00000000 41550596.00000000 9958.35156250   968430.87500000 770181.62500000 
0.12100    25637906.00000000 16400143.00000000 41000660.00000000 9737.72070312   950182.31250000 755711.75000000 
0.12200    25296394.00000000 16187591.00000000 40461008.00000000 9520.29199219   932192.18750000 741441.56250000 
0.12300    24961756.00000000 15979208.00000000 39932788.00000000 9306.02343750   914457.37500000 727372.93750000 
0.12400    24632836.00000000 15774772.00000000 39414452.00000000 9094.93750000   896971.12500000 713492.75000000 
0.12500    24310086.00000000 15574087.00000000 38905088.00000000 8886.93359375   879705.37500000 699802.75000000 
0.12600    23993156.00000000 15376949.00000000 38405436.00000000 8682.13769531   862688.50000000 686297.56250000 
0.12700    23681240.00000000 15183087.00000000 37913012.00000000 8480.55859375   845887.87500000 672976.93750000 
0.12800    23374350.00000000 14992307.00000000 37428876.00000000 8282.20898438   829313.62500000 659818.50000000 
0.12900    23072204.00000000 14804543.00000000 36952580.00000000 8087.10449219   812961.93750000 646844.31250000 
0.13000    22774476.00000000 14619540.00000000 36482984.00000000 7895.18017578   796821.50000000 634030.06250000 
0.13100    22481280.00000000 14437126.00000000 36020172.00000000 7706.50390625   780889.68750000 621394.31250000 
0.13200    22191894.00000000 14257224.00000000 35563600.00000000 7521.11035156   765175.12500000 608913.31250000 
0.13300    21906052.00000000 14079645.00000000 35113256.00000000 7339.09863281   749676.68750000 596606.31250000 
0.13400    21624140.00000000 13904241.00000000 34668220.00000000 7160.32568359   734375.56250000 584454.00000000 
0.13500    21345568.00000000 13730895.00000000 34228720.00000000 6984.95800781   719288.00000000 572471.62500000 
0.13600    21070380.00000000 13559482.00000000 33794056.00000000 6812.93457031   704410.75000000 560645.50000000 
0.13700    20797978.00000000 13389838.00000000 33364300.00000000 6644.24218750   689732.31250000 548985.56250000 
0.13800    20528694.00000000 13222147.00000000 32938968.00000000 6478.95996094   675267.56250000 537491.31250000 
0.13900    20262068.00000000 13055953.00000000 32517948.00000000 6317.06787109   661008.00000000 526152.50000000 
0.14000    19998166.00000000 12891347.00000000 32100838.00000000 6158.62451172   646958.68750000 514975.46875000 
0.14100    19736884.00000000 12728149.00000000 31687792.00000000 6003.55468750   633115.43750000 503965.06250000 
0.14200    19477838.00000000 12566415.00000000 31278356.00000000 5851.76611328   619475.75000000 493113.25000000 
0.14300    19221252.00000000 12405960.00000000 30872580.00000000 5703.50488281   606047.75000000 482425.31250000 
0.14400    18966808.00000000 12246777.00000000 30469862.00000000 5558.55908203   592827.37500000 471898.40625000 
0.14500    18714602.00000000 12088850.00000000 30070594.00000000 5416.99365234   579804.31250000 461535.87500000 
0.14600    18464432.00000000 11931882.00000000 29674162.00000000 5278.75146484   567007.62500000 451336.03125000 
0.14700    18216156.00000000 11776227.00000000 29280926.00000000 5143.89208984   554414.87500000 441300.81250000 
0.14800    17969846.00000000 11621625.00000000 28890480.00000000 5012.29003906   542026.68750000 431431.84375000 
0.14900    17725326.00000000 11467954.00000000 28502728.00000000 4883.90625000   529845.18750000 421721.34375000 
0.15000    17482678.00000000 11315329.00000000 28117834.00000000 4758.82666016   517874.40625000 412173.28125000 
0.15100    17241834.00000000 11163591.00000000 27735488.00000000 4636.90966797   506111.00000000 402794.78125000 
0.15200    17002682.00000000 11012856.00000000 27355626.00000000 4518.20849609   494558.28125000 393574.53125000 
0.15300    16765325.00000000 10863102.00000000 26978424.00000000 4402.56787109   483207.96875000 384513.18750000 
0.15400    16529499.00000000 10714151.00000000 26603668.00000000 4290.01318359   472061.40625000 375617.62500000 
0.15500    16295430.00000000 10566166.00000000 26231212.00000000 4180.50341797   461121.78125000 366883.84375000 
0.15600    16062884.00000000 10418946.00000000 25861308.00000000 4073.97314453   450388.09375000 358307.31250000 
0.15700    15832106.00000000 10272688.00000000 25493698.00000000 3970.36547852   439853.03125000 349894.31250000 
0.15800    15602757.00000000 10127168.00000000 25128268.00000000 3869.61499023   429521.56250000 341636.96875000 
0.15900    15375030.00000000 9982758.00000000 24765520.00000000 3771.72412109   419387.18750000 333533.25000000 
0.16000    15148894.00000000 9838997.00000000 24404892.00000000 3676.58520508   409450.21875000 325590.84375000 
0.16100    14924560.00000000 9696288.00000000 24047062.00000000 3584.20483398   399713.96875000 317804.56250000 
0.16200    14701559.00000000 9554314.00000000 23691044.00000000 3494.45678711   390168.93750000 310169.31250000 
0.16300    14480265.00000000 9413272.00000000 23337814.00000000 3407.34228516   380813.40625000 302683.96875000 
0.16400    14260644.00000000 9273185.00000000 22986864.00000000 3322.78979492   371649.31250000 295353.71875000 
0.16500    14042576.00000000 9133990.00000000 22638594.00000000 3240.69458008   362674.84375000 288164.84375000 
0.16600    13826237.00000000 8995703.00000000 22292456.00000000 3161.08471680   353884.25000000 281127.62500000 
0.16700    13611501.00000000 8858266.00000000 21948910.00000000 3083.82983398   345275.65625000 274234.87500000 
0.16800    13398384.00000000 8721842.00000000 21607962.00000000 3008.93750000   336845.00000000 267485.37500000 
0.16900    13187067.00000000 8586410.00000000 21269590.00000000 2936.35424805   328597.81250000 260873.79687500 
0.17000    12977496.00000000 8452021.00000000 20933984.00000000 2865.98950195   320523.46875000 254404.03125000 
