# SAXS profile: number of points = 501, q_min = 0, q_max = 0.5, delta_q = 0.001
#    q    intensity 
0.00000    162235408.00000000 101202184.00000000 256271440.00000000 113811.46093750 8594158.00000000 6787629.00000000 
0.00100    162203488.00000000 101181176.00000000 256216080.00000000 113780.46093750 8592050.00000000 6786000.00000000 
0.00200    162103648.00000000 101117872.00000000 256057232.00000000 113688.82812500 8585818.00000000 6781097.00000000 
0.00300    161934864.00000000 101013144.00000000 255789216.00000000 113535.39062500 8575342.00000000 6772922.00000000 
0.00400    161697360.00000000 100866640.00000000 255416032.00000000 113320.70312500 8560824.00000000 6761458.50000000 
0.00500    161389600.00000000 100678264.00000000 254935872.00000000 113046.05468750 8542224.00000000 6746813.00000000 
0.00600    161014944.00000000 100447512.00000000 254349760.00000000 112710.93750000 8519470.00000000 6728942.00000000 
0.00700    160575072.00000000 100177648.00000000 253659696.00000000 112315.57031250 8492636.00000000 6707918.00000000 
0.00800    160065584.00000000 99865648.00000000 252866736.00000000 111862.60156250 8461836.00000000 6683699.50000000 
0.00900    159492032.00000000 99515384.00000000 251970480.00000000 111350.37500000 8427085.00000000 6656419.50000000 
0.01000    158856864.00000000 99124888.00000000 250972704.00000000 110781.64843750 8388417.00000000 6626021.00000000 
0.01100    158157744.00000000 98694736.00000000 249875232.00000000 110155.78125000 8345877.00000000 6592652.50000000 
0.01200    157396240.00000000 98226224.00000000 248678944.00000000 109475.64062500 8299567.00000000 6556271.50000000 
0.01300    156573008.00000000 97719328.00000000 247386096.00000000 108741.14062500 8249590.50000000 6517001.50000000 
0.01400    155687328.00000000 97175656.00000000 245998496.00000000 107952.95312500 8195983.50000000 6474857.50000000 
0.01500    154742080.00000000 96594360.00000000 244518416.00000000 107114.28906250 8138768.00000000 6429951.50000000 
0.01600    153739696.00000000 95977920.00000000 242945696.00000000 106225.70312500 8078104.50000000 6382298.50000000 
0.01700    152681360.00000000 95327000.00000000 241285088.00000000 105287.58593750 8014094.00000000 6332029.00000000 
0.01800    151567536.00000000 94642096.00000000 239537392.00000000 104302.48437500 7946833.50000000 6279135.00000000 
0.01900    150398624.00000000 93923776.00000000 237705584.00000000 103272.19531250 7876384.50000000 6223763.00000000 
0.02000    149178432.00000000 93172784.00000000 235791808.00000000 102198.25781250 7802848.00000000 6166019.50000000 
0.02100    147907952.00000000 92391400.00000000 233797888.00000000 101081.65625000 7726345.00000000 6105922.50000000 
0.02200    146588768.00000000 91579096.00000000 231726912.00000000 99925.21875000  7647021.00000000 6043540.50000000 
0.02300    145221968.00000000 90738656.00000000 229582176.00000000 98730.45312500  7564960.00000000 5979072.00000000 
0.02400    143809296.00000000 89869200.00000000 227366224.00000000 97498.64843750  7480315.00000000 5912549.00000000 
0.02500    142353632.00000000 88972984.00000000 225081760.00000000 96232.89062500  7393177.50000000 5843997.50000000 
0.02600    140856432.00000000 88050832.00000000 222731120.00000000 94934.35156250  7303654.50000000 5773684.00000000 
0.02700    139319200.00000000 87103888.00000000 220318736.00000000 93604.82812500  7211922.00000000 5701512.50000000 
0.02800    137743424.00000000 86134304.00000000 217847296.00000000 92246.92187500  7118034.00000000 5627759.00000000 
0.02900    136132976.00000000 85141592.00000000 215317616.00000000 90862.71875000  7022187.50000000 5552436.00000000 
0.03000    134487616.00000000 84127880.00000000 212735440.00000000 89453.56250000  6924520.00000000 5475590.50000000 
0.03100    132810912.00000000 83095008.00000000 210102144.00000000 88021.77343750  6825167.50000000 5397473.50000000 
0.03200    131104752.00000000 82043024.00000000 207422832.00000000 86570.70312500  6724228.50000000 5318080.00000000 
0.03300    129370888.00000000 80974264.00000000 204699616.00000000 85100.14062500  6621859.50000000 5237591.50000000 
0.03400    127610256.00000000 79888944.00000000 201935712.00000000 83614.00000000  6518139.50000000 5156005.50000000 
0.03500    125827544.00000000 78788568.00000000 199135136.00000000 82113.55468750  6413308.50000000 5073512.50000000 
0.03600    124022952.00000000 77674696.00000000 196298176.00000000 80601.16406250  6307396.50000000 4990181.50000000 
0.03700    122198920.00000000 76549016.00000000 193432896.00000000 79078.60937500  6200553.50000000 4906174.50000000 
0.03800    120357088.00000000 75412064.00000000 190539856.00000000 77548.53125000  6092981.50000000 4821512.50000000 
0.03900    118501048.00000000 74266696.00000000 187620720.00000000 76012.69531250  5984780.00000000 4736342.50000000 
0.04000    116631040.00000000 73112120.00000000 184682384.00000000 74472.47656250  5876080.50000000 4650795.50000000 
0.04100    114750272.00000000 71950208.00000000 181724176.00000000 72930.07031250  5766956.00000000 4564927.00000000 
0.04200    112860400.00000000 70782280.00000000 178754256.00000000 71387.92187500  5657653.00000000 4478824.00000000 
0.04300    110963368.00000000 69609696.00000000 175770128.00000000 69847.59375000  5548125.50000000 4392633.00000000 
0.04400    109060968.00000000 68433024.00000000 172777776.00000000 68309.89843750  5438642.00000000 4306402.50000000 
0.04500    107155696.00000000 67254472.00000000 169781632.00000000 66777.93750000  5329243.50000000 4220307.50000000 
0.04600    105248584.00000000 66074652.00000000 166781328.00000000 65252.71484375  5220128.00000000 4134322.00000000 
0.04700    103342856.00000000 64895036.00000000 163782240.00000000 63736.60156250  5111293.50000000 4048624.75000000 
0.04800    101439608.00000000 63716324.00000000 160787776.00000000 62230.11328125  5002956.00000000 3963246.75000000 
0.04900    99540136.00000000 62540132.00000000 157797808.00000000 60736.07031250  4895195.50000000 3878325.75000000 
0.05000    97646824.00000000 61367496.00000000 154817232.00000000 59254.89062500  4788109.50000000 3793926.50000000 
0.05100    95761768.00000000 60198984.00000000 151848176.00000000 57788.41406250  4681727.50000000 3710090.25000000 
0.05200    93885680.00000000 59035968.00000000 148893952.00000000 56338.19140625  4576275.00000000 3626935.00000000 
0.05300    92020872.00000000 57879280.00000000 145957264.00000000 54905.16796875  4471711.00000000 3544528.75000000 
0.05400    90167816.00000000 56729980.00000000 143038288.00000000 53490.34375000  4368253.50000000 3462910.00000000 
0.05500    88329632.00000000 55589120.00000000 140141392.00000000 52095.72265625  4265881.00000000 3382187.25000000 
0.05600    86506616.00000000 54457360.00000000 137268176.00000000 50721.56640625  4164695.00000000 3302372.00000000 
0.05700    84700768.00000000 53335768.00000000 134421920.00000000 49369.05468750  4064823.00000000 3223602.25000000 
0.05800    82912744.00000000 52224716.00000000 131604168.00000000 48039.37500000  3966298.00000000 3145842.00000000 
0.05900    81144728.00000000 51126076.00000000 128815976.00000000 46732.99218750  3869181.00000000 3069205.25000000 
0.06000    79396912.00000000 50039372.00000000 126059320.00000000 45450.99218750  3773560.25000000 2993742.50000000 
0.06100    77671432.00000000 48965808.00000000 123336920.00000000 44194.04687500  3679484.25000000 2919459.00000000 
0.06200    75968248.00000000 47906064.00000000 120650680.00000000 42962.80078125  3586993.75000000 2846428.00000000 
0.06300    74288952.00000000 46860884.00000000 118001128.00000000 41757.37109375  3496148.25000000 2774681.25000000 
0.06400    72635152.00000000 45830852.00000000 115389968.00000000 40578.62500000  3406976.50000000 2704238.50000000 
0.06500    71007576.00000000 44816592.00000000 112819952.00000000 39427.25390625  3319536.75000000 2635162.25000000 
0.06600    69405560.00000000 43818388.00000000 110290624.00000000 38303.16015625  3233856.00000000 2567444.25000000 
0.06700    67831128.00000000 42836944.00000000 107805048.00000000 37206.85546875  3149972.75000000 2501154.25000000 
0.06800    66284704.00000000 41872336.00000000 105362648.00000000 36138.07421875  3067896.00000000 2436256.50000000 
0.06900    64767448.00000000 40925276.00000000 102964616.00000000 35097.56640625  2987663.00000000 2372819.50000000 
0.07000    63278844.00000000 39996056.00000000 100612368.00000000 34085.33593750  2909283.50000000 2310844.75000000 
0.07100    61820216.00000000 39085080.00000000 98306560.00000000 33100.96484375  2832793.75000000 2250301.25000000 
0.07200    60391896.00000000 38192464.00000000 96048288.00000000 32144.83593750  2758152.50000000 2191277.75000000 
0.07300    58993812.00000000 37318744.00000000 93837736.00000000 31216.77734375  2685440.75000000 2133704.00000000 
0.07400    57627028.00000000 36463724.00000000 91676408.00000000 30316.61132812  2614594.00000000 2077622.75000000 
0.07500    56290984.00000000 35627908.00000000 89561968.00000000 29443.90820312  2545633.50000000 2023028.75000000 
0.07600    54986092.00000000 34811024.00000000 87497712.00000000 28598.74609375  2478561.00000000 1969904.00000000 
0.07700    53713284.00000000 34013840.00000000 85482776.00000000 27780.55859375  2413367.25000000 1918264.00000000 
0.07800    52471440.00000000 33236048.00000000 83517024.00000000 26989.26953125  2350029.75000000 1868070.75000000 
0.07900    51261064.00000000 32477806.00000000 81600648.00000000 26224.29101562  2288534.75000000 1819346.37500000 
0.08000    50082068.00000000 31738760.00000000 79734168.00000000 25485.15039062  2228880.75000000 1772067.00000000 
0.08100    48935196.00000000 31019326.00000000 77917784.00000000 24771.47656250  2171040.50000000 1726207.75000000 
0.08200    47819176.00000000 30319316.00000000 76149248.00000000 24082.85937500  2114988.25000000 1681746.25000000 
0.08300    46734448.00000000 29638462.00000000 74430088.00000000 23418.53906250  2060683.50000000 1638662.25000000 
0.08400    45680632.00000000 28976858.00000000 72760168.00000000 22778.20117188  2008119.50000000 1596968.75000000 
0.08500    44657192.00000000 28334206.00000000 71138328.00000000 22161.16015625  1957258.37500000 1556603.00000000 
0.08600    43664288.00000000 27710446.00000000 69564208.00000000 21566.75585938  1908065.75000000 1517550.37500000 
0.08700    42701764.00000000 27105240.00000000 68037088.00000000 20994.23828125  1860513.75000000 1479785.87500000 
0.08800    41768240.00000000 26518480.00000000 66557044.00000000 20443.30273438  1814555.00000000 1443292.00000000 
0.08900    40864168.00000000 25950038.00000000 65123092.00000000 19913.11523438  1770165.62500000 1408018.87500000 
0.09000    39989148.00000000 25399512.00000000 63734956.00000000 19402.72656250  1727283.75000000 1373965.37500000 
0.09100    39142096.00000000 24866600.00000000 62390868.00000000 18911.98242188  1685887.75000000 1341061.00000000 
0.09200    38322828.00000000 24351016.00000000 61091316.00000000 18439.63476562  1645939.50000000 1309304.62500000 
0.09300    37530916.00000000 23852306.00000000 59834320.00000000 17985.46289062  1607390.37500000 1278662.12500000 
0.09400    36765576.00000000 23370358.00000000 58620056.00000000 17548.40234375  1570190.75000000 1249071.75000000 
0.09500    36026312.00000000 22904836.00000000 57445896.00000000 17127.98046875  1534306.37500000 1220530.00000000 
0.09600    35312424.00000000 22455322.00000000 56312804.00000000 16723.43554688  1499690.37500000 1192996.50000000 
0.09700    34623312.00000000 22021352.00000000 55219312.00000000 16334.12109375  1466297.62500000 1166420.87500000 
0.09800    33958464.00000000 21602476.00000000 54163876.00000000 15959.22753906  1434084.75000000 1140793.37500000 
0.09900    33317106.00000000 21198706.00000000 53145900.00000000 15598.24121094  1403005.50000000 1116061.75000000 
0.10000    32698642.00000000 20809290.00000000 52164024.00000000 15250.28125000  1373013.50000000 1092179.50000000 
0.10100    32102512.00000000 20433780.00000000 51217860.00000000 14914.79101562  1344065.62500000 1069132.50000000 
0.10200    31527760.00000000 20071668.00000000 50305588.00000000 14591.17968750  1316126.00000000 1046892.87500000 
0.10300    30974056.00000000 19722978.00000000 49426560.00000000 14278.77636719  1289130.75000000 1025402.93750000 
0.10400    30440408.00000000 19387016.00000000 48579480.00000000 13976.79492188  1263065.12500000 1004640.31250000 
0.10500    29926372.00000000 19063256.00000000 47763216.00000000 13684.96972656  1237867.50000000 984572.37500000 
0.10600    29430562.00000000 18751348.00000000 46976992.00000000 13402.55859375  1213499.75000000 965155.68750000 
0.10700    28953242.00000000 18450842.00000000 46219300.00000000 13129.00781250  1189907.00000000 946373.12500000 
0.10800    28492794.00000000 18161324.00000000 45489220.00000000 12863.74316406  1167077.50000000 928190.93750000 
0.10900    28049360.00000000 17882456.00000000 44785724.00000000 12606.18164062  1144947.62500000 910564.62500000 
0.11000    27621746.00000000 17613984.00000000 44107892.00000000 12356.01367188  1123500.87500000 893478.18750000 
0.11100    27209184.00000000 17354792.00000000 43453956.00000000 12112.65722656  1102677.87500000 876896.62500000 
0.11200    26811462.00000000 17105140.00000000 42822832.00000000 11875.63867188  1082445.50000000 860792.18750000 
0.11300    26427402.00000000 16864342.00000000 42214792.00000000 11644.50195312  1062790.50000000 845133.18750000 
0.11400    26056604.00000000 16632056.00000000 41627516.00000000 11419.04785156  1043661.93750000 829902.43750000 
0.11500    25698512.00000000 16407680.00000000 41060444.00000000 11198.63476562  1025036.75000000 815074.31250000 
0.11600    25352170.00000000 16190982.00000000 40512652.00000000 10983.01464844  1006875.43750000 800612.00000000 
0.11700    25017352.00000000 15981584.00000000 39982856.00000000 10771.86523438  989149.00000000 786505.43750000 
0.11800    24693228.00000000 15778922.00000000 39470124.00000000 10564.81152344  971830.75000000 772721.18750000 
0.11900    24378934.00000000 15582925.00000000 38973844.00000000 10361.56054688  954892.25000000 759248.00000000 
0.12000    24074500.00000000 15392949.00000000 38492648.00000000 10161.89257812  938314.00000000 746056.06250000 
0.12100    23778956.00000000 15208908.00000000 38025724.00000000 9965.61523438   922070.12500000 733131.93750000 
0.12200    23491752.00000000 15030193.00000000 37572616.00000000 9772.31640625   906134.18750000 720460.31250000 
0.12300    23212564.00000000 14856476.00000000 37132276.00000000 9582.01562500   890490.68750000 708024.37500000 
0.12400    22940638.00000000 14687593.00000000 36703408.00000000 9394.35839844   875111.12500000 695795.93750000 
0.12500    22675578.00000000 14523074.00000000 36285712.00000000 9209.12792969   859981.06250000 683768.75000000 
0.12600    22417106.00000000 14362778.00000000 35878568.00000000 9026.50390625   845089.75000000 671936.62500000 
0.12700    22164392.00000000 14206322.00000000 35480712.00000000 8846.08496094   830411.50000000 660272.31250000 
0.12800    21917244.00000000 14053420.00000000 35091784.00000000 8667.62988281   815936.43750000 648773.12500000 
0.12900    21675326.00000000 13903721.00000000 34710952.00000000 8491.37011719   801656.00000000 637426.00000000 
0.13000    21437952.00000000 13757042.00000000 34337892.00000000 8317.07714844   787544.62500000 626220.50000000 
0.13100    21204952.00000000 13613209.00000000 33971668.00000000 8144.68603516   773599.18750000 615143.18750000 
0.13200    20975954.00000000 13471867.00000000 33611652.00000000 7974.06933594   759810.18750000 604196.81250000 
0.13300    20750502.00000000 13332880.00000000 33257116.00000000 7805.41455078   746175.06250000 593368.06250000 
0.13400    20528360.00000000 13195962.00000000 32908192.00000000 7638.49072266   732672.18750000 582648.81250000 
0.13500    20309134.00000000 13060831.00000000 32564066.00000000 7473.29394531   719307.06250000 572037.93750000 
0.13600    20092562.00000000 12927540.00000000 32223906.00000000 7309.90869141   706065.68750000 561523.31250000 
0.13700    19878472.00000000 12795760.00000000 31887900.00000000 7148.31054688   692943.56250000 551110.43750000 
0.13800    19666654.00000000 12665209.00000000 31555174.00000000 6988.51367188   679935.75000000 540787.25000000 
0.13900    19456598.00000000 12535971.00000000 31225376.00000000 6830.54736328   667046.68750000 530553.87500000 
0.14000    19248334.00000000 12407726.00000000 30898526.00000000 6674.38378906   654271.12500000 520415.28125000 
0.14100    19041698.00000000 12280462.00000000 30574030.00000000 6520.11328125   641609.62500000 510361.03125000 
0.14200    18836136.00000000 12153893.00000000 30251340.00000000 6367.82421875   629053.87500000 500393.03125000 
0.14300    18631882.00000000 12028032.00000000 29930538.00000000 6217.40722656   616602.75000000 490507.68750000 
0.14400    18428692.00000000 11902627.00000000 29611234.00000000 6069.00683594   604260.75000000 480708.84375000 
0.14500    18226300.00000000 11777867.00000000 29293066.00000000 5922.68798828   592031.31250000 470998.62500000 
0.14600    18024666.00000000 11653396.00000000 28976164.00000000 5778.47851562   579914.87500000 461374.59375000 
0.14700    17823736.00000000 11529352.00000000 28660328.00000000 5636.44140625   567905.56250000 451839.75000000 
0.14800    17623238.00000000 11405334.00000000 28344824.00000000 5496.56396484   556008.81250000 442387.34375000 
0.14900    17423132.00000000 11281615.00000000 28030146.00000000 5358.98242188   544231.06250000 433029.18750000 
0.15000    17223582.00000000 11157939.00000000 27715962.00000000 5223.73974609   532570.93750000 423762.78125000 
0.15100    17024280.00000000 11034388.00000000 27401834.00000000 5090.82958984   521034.65625000 414590.93750000 
0.15200    16825296.00000000 10910944.00000000 27088262.00000000 4960.35791016   509620.21875000 405513.96875000 
0.15300    16626560.00000000 10787510.00000000 26774924.00000000 4832.32373047   498334.56250000 396538.50000000 
0.15400    16427979.00000000 10663891.00000000 26461550.00000000 4706.76367188   487174.31250000 387664.65625000 
0.15500    16229639.00000000 10540312.00000000 26148262.00000000 4583.78857422   476148.87500000 378889.96875000 
0.15600    16031382.00000000 10416642.00000000 25835110.00000000 4463.39746094   465261.37500000 370221.96875000 
0.15700    15833408.00000000 10293113.00000000 25522226.00000000 4345.64697266   454514.00000000 361666.46875000 
0.15800    15635529.00000000 10169388.00000000 25209108.00000000 4230.45556641   443905.90625000 353220.68750000 
0.15900    15437891.00000000 10045506.00000000 24896274.00000000 4117.96142578   433446.68750000 344883.15625000 
0.16000    15240400.00000000 9921738.00000000 24583448.00000000 4008.20800781   423134.84375000 336668.03125000 
0.16100    15043292.00000000 9797955.00000000 24271038.00000000 3901.14379883   412979.93750000 328571.43750000 
0.16200    14846330.00000000 9674087.00000000 23958498.00000000 3796.81298828   402977.15625000 320595.53125000 
0.16300    14649747.00000000 9550269.00000000 23646430.00000000 3695.13256836   393132.87500000 312735.59375000 
0.16400    14453588.00000000 9426522.00000000 23334596.00000000 3596.24487305   383448.68750000 305008.71875000 
0.16500    14257617.00000000 9302702.00000000 23023236.00000000 3500.08203125   373928.43750000 297407.00000000 
0.16600    14062275.00000000 9179167.00000000 22712416.00000000 3406.62475586   364572.81250000 289934.81250000 
0.16700    13867292.00000000 9055588.00000000 22401980.00000000 3315.89746094   355382.68750000 282590.00000000 
0.16800    13672925.00000000 8932358.00000000 22092056.00000000 3227.80786133   346359.68750000 275377.50000000 
0.16900    13479212.00000000 8809105.00000000 21783320.00000000 3142.46118164   337512.75000000 268301.59375000 
0.17000    13285954.00000000 8686242.00000000 21475090.00000000 3059.69531250   328834.65625000 261356.26562500 
