# SAXS profile: number of points = 501, q_min = 0, q_max = 0.5, delta_q = 0.001
#    q    intensity 
0.00000    162232224.00000000 101202400.00000000 256269392.00000000 102908.17187500 8172117.50000000 6454310.50000000 
0.00100    162195648.00000000 101176992.00000000 256208688.00000000 102875.34375000 8169784.00000000 6452478.00000000 
0.00200    162082480.00000000 101103296.00000000 256022304.00000000 102776.85937500 8162782.00000000 6446966.00000000 
0.00300    161887648.00000000 100981688.00000000 255708272.00000000 102611.31250000 8151113.50000000 6437821.50000000 
0.00400    161607856.00000000 100810320.00000000 255272912.00000000 102381.21875000 8134787.00000000 6425002.50000000 
0.00500    161249920.00000000 100590376.00000000 254713200.00000000 102085.40625000 8113918.50000000 6408587.00000000 
0.00600    160814288.00000000 100321176.00000000 254030736.00000000 101725.34375000 8088483.50000000 6388628.00000000 
0.00700    160297264.00000000 100007480.00000000 253228352.00000000 101302.24218750 8058543.00000000 6365080.00000000 
0.00800    159705808.00000000 99645856.00000000 252304416.00000000 100816.06250000 8024144.00000000 6338080.00000000 
0.00900    159042528.00000000 99237872.00000000 251262752.00000000 100268.67968750 7985364.50000000 6307628.00000000 
0.01000    158307088.00000000 98784976.00000000 250105360.00000000 99661.13281250  7942320.00000000 6273809.50000000 
0.01100    157498256.00000000 98285248.00000000 248833520.00000000 98994.77343750  7895064.50000000 6236675.00000000 
0.01200    156615712.00000000 97742416.00000000 247447920.00000000 98270.28906250  7843682.50000000 6196280.50000000 
0.01300    155661056.00000000 97156072.00000000 245954992.00000000 97490.60156250  7788245.00000000 6152789.50000000 
0.01400    154641344.00000000 96527376.00000000 244354608.00000000 96656.33593750  7728977.00000000 6106162.00000000 
0.01500    153554240.00000000 95858576.00000000 242647760.00000000 95770.20312500  7665876.50000000 6056578.50000000 
0.01600    152403216.00000000 95150224.00000000 240840848.00000000 94832.96875000  7599129.00000000 6004112.50000000 
0.01700    151189472.00000000 94402168.00000000 238936240.00000000 93848.13281250  7528867.00000000 5948819.50000000 
0.01800    149914320.00000000 93617552.00000000 236935472.00000000 92815.98437500  7455114.50000000 5890915.50000000 
0.01900    148580608.00000000 92796216.00000000 234842400.00000000 91740.37500000  7378176.00000000 5830423.00000000 
0.02000    147190880.00000000 91940464.00000000 232661696.00000000 90621.32031250  7298106.50000000 5767488.50000000 
0.02100    145748720.00000000 91051048.00000000 230395520.00000000 89463.77343750  7215071.50000000 5702198.00000000 
0.02200    144253840.00000000 90129992.00000000 228047888.00000000 88268.79687500  7129216.00000000 5634706.00000000 
0.02300    142710512.00000000 89177944.00000000 225623216.00000000 87038.46093750  7040757.00000000 5565080.00000000 
0.02400    141119664.00000000 88196520.00000000 223125408.00000000 85776.07812500  6949768.00000000 5493501.00000000 
0.02500    139484992.00000000 87188936.00000000 220557968.00000000 84483.65625000  6856461.50000000 5420104.00000000 
0.02600    137809632.00000000 86153288.00000000 217923760.00000000 83162.85937500  6760909.00000000 5345000.00000000 
0.02700    136093808.00000000 85095784.00000000 215230848.00000000 81818.00781250  6663451.00000000 5268295.00000000 
0.02800    134342320.00000000 84014656.00000000 212477808.00000000 80450.02343750  6564135.00000000 5190101.50000000 
0.02900    132559168.00000000 82912376.00000000 209672320.00000000 79062.83593750  6463170.50000000 5110659.00000000 
0.03000    130743536.00000000 81790320.00000000 206818560.00000000 77657.59375000  6360682.00000000 5030029.00000000 
0.03100    128899376.00000000 80650768.00000000 203920960.00000000 76237.61718750  6256930.00000000 4948350.00000000 
0.03200    127030688.00000000 79495816.00000000 200981680.00000000 74804.60156250  6151954.50000000 4865721.50000000 
0.03300    125139424.00000000 78326064.00000000 198006432.00000000 73361.96093750  6046043.50000000 4782310.50000000 
0.03400    123228008.00000000 77143888.00000000 195000992.00000000 71911.92187500  5939293.50000000 4698254.00000000 
0.03500    121298160.00000000 75950992.00000000 191964832.00000000 70456.76562500  5831930.00000000 4613653.50000000 
0.03600    119354704.00000000 74748032.00000000 188905792.00000000 68998.36718750  5724000.50000000 4528710.00000000 
0.03700    117399024.00000000 73536184.00000000 185826768.00000000 67539.32031250  5615739.50000000 4443411.50000000 
0.03800    115433128.00000000 72318208.00000000 182732720.00000000 66082.01562500  5507282.50000000 4357983.00000000 
0.03900    113460704.00000000 71095280.00000000 179625664.00000000 64627.91796875  5398835.00000000 4272458.50000000 
0.04000    111484296.00000000 69869520.00000000 176513472.00000000 63179.82812500  5290492.00000000 4187028.75000000 
0.04100    109505624.00000000 68641888.00000000 173395856.00000000 61739.51953125  5182405.00000000 4101790.00000000 
0.04200    107526896.00000000 67414448.00000000 170278720.00000000 60308.69140625  5074674.50000000 4016854.50000000 
0.04300    105551472.00000000 66187736.00000000 167165184.00000000 58889.61328125  4967480.00000000 3932315.75000000 
0.04400    103581168.00000000 64963688.00000000 164058352.00000000 57483.50390625  4860942.00000000 3848283.75000000 
0.04500    101617560.00000000 63743884.00000000 160963408.00000000 56092.72265625  4755183.00000000 3764865.75000000 
0.04600    99663208.00000000 62529184.00000000 157880912.00000000 54717.67968750  4650337.00000000 3682123.50000000 
0.04700    97720776.00000000 61320916.00000000 154817200.00000000 53360.98828125  4546464.00000000 3600124.25000000 
0.04800    95790808.00000000 60120544.00000000 151772032.00000000 52023.11328125  4443758.50000000 3519037.25000000 
0.04900    93877088.00000000 58929340.00000000 148753104.00000000 50706.17968750  4342202.50000000 3438861.00000000 
0.05000    91979888.00000000 57747392.00000000 145758640.00000000 49410.59765625  4241951.50000000 3359707.25000000 
0.05100    90101560.00000000 56577440.00000000 142793504.00000000 48137.84375000  4143138.75000000 3281633.75000000 
0.05200    88243832.00000000 55419360.00000000 139860400.00000000 46888.74218750  4045791.00000000 3204722.75000000 
0.05300    86408096.00000000 54274500.00000000 136960592.00000000 45664.08984375  3949975.50000000 3129018.00000000 
0.05400    84594856.00000000 53144232.00000000 134098736.00000000 44464.75000000  3855780.50000000 3054591.50000000 
0.05500    82807472.00000000 52028604.00000000 131274312.00000000 43292.03125000  3763268.50000000 2981409.50000000 
0.05600    81046432.00000000 50929104.00000000 128489232.00000000 42144.95703125  3672495.75000000 2909659.25000000 
0.05700    79312032.00000000 49845748.00000000 125748440.00000000 41025.15625000  3583491.75000000 2839263.25000000 
0.05800    77605720.00000000 48779504.00000000 123051400.00000000 39933.23828125  3496331.25000000 2770332.00000000 
0.05900    75929416.00000000 47731316.00000000 120400000.00000000 38868.48437500  3411051.75000000 2702848.50000000 
0.06000    74282752.00000000 46701704.00000000 117796160.00000000 37831.55078125  3327630.25000000 2636862.25000000 
0.06100    72666808.00000000 45691224.00000000 115240736.00000000 36823.14843750  3246149.75000000 2572378.75000000 
0.06200    71083224.00000000 44699760.00000000 112734592.00000000 35842.54687500  3166600.75000000 2509423.00000000 
0.06300    69531992.00000000 43728900.00000000 110280352.00000000 34889.72265625  3089073.25000000 2448021.50000000 
0.06400    68013656.00000000 42778080.00000000 107876848.00000000 33965.18359375  3013437.75000000 2388153.75000000 
0.06500    66529092.00000000 41847908.00000000 105525984.00000000 33067.93359375  2939803.25000000 2329835.00000000 
0.06600    65077960.00000000 40938100.00000000 103228472.00000000 32198.60156250  2868139.00000000 2273062.00000000 
0.06700    63660684.00000000 40049780.00000000 100984328.00000000 31356.03515625  2798437.25000000 2217831.25000000 
0.06800    62278020.00000000 39182520.00000000 98794448.00000000 30540.19531250  2730684.75000000 2164146.50000000 
0.06900    60929592.00000000 38337116.00000000 96657768.00000000 29751.01562500  2664906.25000000 2112034.25000000 
0.07000    59615640.00000000 37512240.00000000 94576712.00000000 28987.60937500  2601022.25000000 2061387.12500000 
0.07100    58336060.00000000 36709200.00000000 92549384.00000000 28249.63671875  2539051.00000000 2012281.12500000 
0.07200    57090716.00000000 35927800.00000000 90576040.00000000 27536.36718750  2478929.75000000 1964626.75000000 
0.07300    55879864.00000000 35168008.00000000 88657808.00000000 26847.29492188  2420700.75000000 1918467.37500000 
0.07400    54702764.00000000 34428636.00000000 86792536.00000000 26181.88867188  2364253.00000000 1873720.12500000 
0.07500    53559876.00000000 33711220.00000000 84980312.00000000 25539.43164062  2309595.50000000 1830389.87500000 
0.07600    52449664.00000000 33014738.00000000 83221248.00000000 24919.10937500  2256679.25000000 1788429.12500000 
0.07700    51372720.00000000 32338730.00000000 81514704.00000000 24320.45117188  2205469.50000000 1747833.75000000 
0.07800    50328320.00000000 31683098.00000000 79860032.00000000 23742.43554688  2155934.25000000 1708540.50000000 
0.07900    49316292.00000000 31047704.00000000 78255248.00000000 23184.46679688  2108002.25000000 1670550.87500000 
0.08000    48335636.00000000 30432410.00000000 76701296.00000000 22645.96679688  2061657.12500000 1633802.87500000 
0.08100    47385640.00000000 29836456.00000000 75196616.00000000 22125.95898438  2016821.50000000 1598270.87500000 
0.08200    46466580.00000000 29259910.00000000 73740576.00000000 21624.03125000  1973482.25000000 1563904.62500000 
0.08300    45576712.00000000 28701976.00000000 72331600.00000000 21138.93750000  1931573.25000000 1530677.87500000 
0.08400    44716176.00000000 28162556.00000000 70968568.00000000 20670.40234375  1891056.37500000 1498562.00000000 
0.08500    43884048.00000000 27641288.00000000 69651448.00000000 20217.38476562  1851869.75000000 1467518.37500000 
0.08600    43079756.00000000 27137518.00000000 68378704.00000000 19779.36132812  1813988.00000000 1437486.87500000 
0.08700    42302088.00000000 26650992.00000000 67147912.00000000 19355.64257812  1777320.75000000 1408439.50000000 
0.08800    41550660.00000000 26180968.00000000 65959408.00000000 18945.27148438  1741860.50000000 1380349.50000000 
0.08900    40824708.00000000 25727280.00000000 64811604.00000000 18547.76171875  1707515.00000000 1353162.37500000 
0.09000    40122956.00000000 25289320.00000000 63702656.00000000 18162.62304688  1674290.62500000 1326848.50000000 
0.09100    39445252.00000000 24866692.00000000 62632172.00000000 17788.84375000  1642090.62500000 1301350.00000000 
0.09200    38790988.00000000 24458544.00000000 61598024.00000000 17425.94335938  1610884.62500000 1276669.12500000 
0.09300    38158472.00000000 24064780.00000000 60600268.00000000 17073.46289062  1580652.62500000 1252739.37500000 
0.09400    37547540.00000000 23684588.00000000 59635956.00000000 16730.81640625  1551303.25000000 1229529.37500000 
0.09500    36957000.00000000 23317660.00000000 58705000.00000000 16397.28125000  1522827.87500000 1207008.62500000 
0.09600    36386396.00000000 22963568.00000000 57805372.00000000 16072.54003906  1495171.37500000 1185148.00000000 
0.09700    35834448.00000000 22621622.00000000 56936332.00000000 15756.05761719  1468283.50000000 1163903.50000000 
0.09800    35301240.00000000 22291348.00000000 56096744.00000000 15447.31835938  1442132.50000000 1143252.12500000 
0.09900    34785136.00000000 21972310.00000000 55284892.00000000 15145.88574219  1416692.00000000 1123164.12500000 
0.10000    34285476.00000000 21664020.00000000 54500012.00000000 14851.25488281  1391908.37500000 1103599.50000000 
0.10100    33801668.00000000 21365748.00000000 53739816.00000000 14563.31640625  1367751.50000000 1084530.50000000 
0.10200    33333410.00000000 21077278.00000000 53004320.00000000 14281.47656250  1344182.62500000 1065932.12500000 
0.10300    32879022.00000000 20798118.00000000 52292100.00000000 14005.47265625  1321187.37500000 1047778.87500000 
0.10400    32438550.00000000 20528016.00000000 51601540.00000000 13734.94140625  1298695.12500000 1030054.87500000 
0.10500    32010826.00000000 20265918.00000000 50931672.00000000 13469.73339844  1276722.50000000 1012719.68750000 
0.10600    31595464.00000000 20011510.00000000 50281384.00000000 13209.47851562  1255212.37500000 995757.75000000 
0.10700    31191296.00000000 19764778.00000000 49649168.00000000 12953.97949219  1234133.62500000 979158.81250000 
0.10800    30798298.00000000 19524982.00000000 49035068.00000000 12702.95019531  1213483.87500000 962885.00000000 
0.10900    30415642.00000000 19291700.00000000 48437260.00000000 12456.36718750  1193223.62500000 946916.06250000 
0.11000    30042644.00000000 19064972.00000000 47855012.00000000 12213.85253906  1173337.75000000 931251.50000000 
0.11100    29678568.00000000 18843600.00000000 47286928.00000000 11975.32128906  1153804.75000000 915856.12500000 
0.11200    29322932.00000000 18627698.00000000 46732864.00000000 11740.62695312  1134610.00000000 900740.50000000 
0.11300    28975368.00000000 18417042.00000000 46191024.00000000 11509.65722656  1115723.12500000 885855.81250000 
0.11400    28635096.00000000 18210924.00000000 45661084.00000000 11282.37890625  1097125.62500000 871213.31250000 
0.11500    28301876.00000000 18009214.00000000 45142092.00000000 11058.58203125  1078823.62500000 856789.68750000 
0.11600    27975114.00000000 17811680.00000000 44633764.00000000 10838.20898438  1060793.62500000 842577.62500000 
0.11700    27654178.00000000 17617768.00000000 44134372.00000000 10621.32226562  1043001.93750000 828563.31250000 
0.11800    27338738.00000000 17426998.00000000 43643220.00000000 10407.56640625  1025462.62500000 814737.75000000 
0.11900    27028450.00000000 17239814.00000000 43160776.00000000 10197.09082031  1008154.68750000 801102.56250000 
0.12000    26722804.00000000 17055320.00000000 42685664.00000000 9989.83593750   991064.56250000 787622.75000000 
0.12100    26421708.00000000 16873616.00000000 42217040.00000000 9785.68945312   974200.43750000 774324.75000000 
0.12200    26124484.00000000 16694004.00000000 41755056.00000000 9584.74609375   957539.50000000 761173.87500000 
0.12300    25830740.00000000 16516722.00000000 41298112.00000000 9386.83300781   941076.06250000 748183.62500000 
0.12400    25540396.00000000 16341282.00000000 40846180.00000000 9191.92675781   924805.00000000 735332.50000000 
0.12500    25253062.00000000 16167561.00000000 40399052.00000000 9000.16406250   908713.62500000 722627.50000000 
0.12600    24968596.00000000 15995446.00000000 39955948.00000000 8811.39843750   892810.62500000 710063.00000000 
0.12700    24686630.00000000 15824621.00000000 39516904.00000000 8625.65527344   877083.37500000 697630.25000000 
0.12800    24406754.00000000 15655014.00000000 39080420.00000000 8442.91894531   861525.81250000 685333.43750000 
0.12900    24129010.00000000 15486416.00000000 38647644.00000000 8263.10449219   846140.43750000 673160.06250000 
0.13000    23853058.00000000 15318741.00000000 38217260.00000000 8086.25439453   830916.37500000 661107.06250000 
0.13100    23578542.00000000 15151825.00000000 37788860.00000000 7912.33251953   815862.87500000 649185.25000000 
0.13200    23305906.00000000 14985624.00000000 37362736.00000000 7741.35302734   800971.93750000 637386.18750000 
0.13300    23034348.00000000 14819908.00000000 36937776.00000000 7573.26464844   786225.12500000 625701.25000000 
0.13400    22764014.00000000 14654670.00000000 36515052.00000000 7408.04687500   771648.87500000 614139.25000000 
0.13500    22494554.00000000 14489789.00000000 36093080.00000000 7245.71679688   757226.25000000 602698.93750000 
0.13600    22226270.00000000 14325031.00000000 35672528.00000000 7086.22851562   742951.87500000 591366.12500000 
0.13700    21958536.00000000 14160694.00000000 35252840.00000000 6929.51953125   728831.81250000 580153.18750000 
0.13800    21691810.00000000 13996403.00000000 34833568.00000000 6775.55468750   714874.31250000 569055.00000000 
0.13900    21425520.00000000 13832241.00000000 34415404.00000000 6624.39453125   701063.50000000 558079.31250000 
0.14000    21159870.00000000 13668096.00000000 33997680.00000000 6475.94482422   687399.37500000 547213.75000000 
0.14100    20894878.00000000 13504070.00000000 33580556.00000000 6330.17919922   673890.56250000 536463.75000000 
0.14200    20630530.00000000 13339960.00000000 33163694.00000000 6187.00781250   660527.93750000 525817.75000000 
0.14300    20366310.00000000 13175912.00000000 32747266.00000000 6046.51611328   647322.56250000 515303.87500000 
0.14400    20102708.00000000 13011836.00000000 32331352.00000000 5908.52099609   634258.56250000 504893.75000000 
0.14500    19839730.00000000 12847656.00000000 31915454.00000000 5773.14160156   621353.31250000 494599.21875000 
0.14600    19577048.00000000 12683459.00000000 31500056.00000000 5640.17529297   608588.93750000 484418.81250000 
0.14700    19314868.00000000 12519295.00000000 31084896.00000000 5509.69335938   595979.00000000 474360.96875000 
0.14800    19053094.00000000 12355154.00000000 30670250.00000000 5381.64111328   583512.81250000 464410.37500000 
0.14900    18791826.00000000 12190930.00000000 30255846.00000000 5255.90576172   571200.31250000 454573.62500000 
0.15000    18531180.00000000 12026703.00000000 29842062.00000000 5132.50878906   559032.56250000 444856.15625000 
0.15100    18270834.00000000 11862736.00000000 29428666.00000000 5011.37158203   547014.81250000 435254.78125000 
0.15200    18011438.00000000 11698692.00000000 29016270.00000000 4892.52539062   535149.18750000 425771.15625000 
0.15300    17752366.00000000 11534857.00000000 28604200.00000000 4775.88427734   523428.03125000 416399.28125000 
0.15400    17494186.00000000 11371032.00000000 28192808.00000000 4661.36523438   511857.78125000 407144.00000000 
0.15500    17236670.00000000 11207610.00000000 27782484.00000000 4548.96728516   500435.46875000 398008.25000000 
0.15600    16979810.00000000 11044345.00000000 27372924.00000000 4438.63134766   489158.31250000 388985.93750000 
0.15700    16724181.00000000 10881517.00000000 26964786.00000000 4330.37646484   478035.09375000 380083.56250000 
0.15800    16469432.00000000 10718944.00000000 26557694.00000000 4224.10888672   467056.53125000 371292.62500000 
0.15900    16215530.00000000 10556780.00000000 26151902.00000000 4119.87402344   456228.93750000 362627.96875000 
0.16000    15962601.00000000 10395064.00000000 25747508.00000000 4017.54980469   445547.84375000 354075.18750000 
0.16100    15710995.00000000 10233987.00000000 25344912.00000000 3917.14990234   435021.21875000 345646.53125000 
0.16200    15460645.00000000 10073550.00000000 24944108.00000000 3818.66308594   424640.37500000 337330.28125000 
0.16300    15211494.00000000 9913616.00000000 24545016.00000000 3722.02416992   414409.12500000 329139.90625000 
0.16400    14963662.00000000 9754478.00000000 24147844.00000000 3627.28710938   404329.34375000 321064.56250000 
0.16500    14717517.00000000 9596092.00000000 23753028.00000000 3534.34741211   394396.59375000 313110.50000000 
0.16600    14472938.00000000 9438558.00000000 23360366.00000000 3443.25048828   384619.15625000 305276.31250000 
0.16700    14229782.00000000 9281943.00000000 22970118.00000000 3353.91748047   374986.53125000 297562.81250000 
0.16800    13988510.00000000 9126220.00000000 22582622.00000000 3266.37280273   365505.31250000 289969.09375000 
0.16900    13748932.00000000 8971700.00000000 22197938.00000000 3180.65063477   356180.00000000 282499.18750000 
0.17000    13511370.00000000 8818113.00000000 21815838.00000000 3096.67431641   347004.28125000 275149.12500000 
