# SAXS profile: number of points = 501, q_min = 0, q_max = 0.5, delta_q = 0.001
#    q    intensity 
0.00000    162234032.00000000 101202416.00000000 256270352.00000000 110885.39843750 8482845.00000000 6699802.00000000 
0.00100    162197392.00000000 101177080.00000000 256207984.00000000 110850.46875000 8480531.00000000 6697910.50000000 
0.00200    162082368.00000000 101103680.00000000 256021152.00000000 110747.95312500 8473386.00000000 6692316.00000000 
0.00300    161886560.00000000 100980808.00000000 255709104.00000000 110575.71093750 8461488.00000000 6682964.00000000 
0.00400    161608944.00000000 100809112.00000000 255272992.00000000 110336.14843750 8444942.00000000 6669945.00000000 
0.00500    161250576.00000000 100589216.00000000 254712592.00000000 110028.08593750 8423710.00000000 6653220.50000000 
0.00600    160814320.00000000 100319088.00000000 254028256.00000000 109652.89843750 8397869.00000000 6632850.50000000 
0.00700    160301664.00000000 100003848.00000000 253225952.00000000 109212.32812500 8367368.00000000 6608851.00000000 
0.00800    159710704.00000000 99641120.00000000 252302880.00000000 108705.65625000 8332404.50000000 6581331.50000000 
0.00900    159046944.00000000 99232360.00000000 251259312.00000000 108135.35937500 8292968.50000000 6550323.00000000 
0.01000    158311408.00000000 98777472.00000000 250099776.00000000 107502.21875000 8249104.50000000 6515844.00000000 
0.01100    157502800.00000000 98277616.00000000 248828240.00000000 106807.19531250 8201007.50000000 6477969.00000000 
0.01200    156623408.00000000 97733160.00000000 247443520.00000000 106051.89843750 8148651.50000000 6436810.50000000 
0.01300    155669744.00000000 97144528.00000000 245947856.00000000 105238.75781250 8092250.50000000 6392408.00000000 
0.01400    154650224.00000000 96514976.00000000 244346048.00000000 104368.20312500 8031862.00000000 6344937.50000000 
0.01500    153565104.00000000 95845040.00000000 242640560.00000000 103442.99218750 7967600.50000000 6294325.00000000 
0.01600    152415888.00000000 95134544.00000000 240833360.00000000 102464.64062500 7899600.50000000 6240770.00000000 
0.01700    151202208.00000000 94384984.00000000 238926048.00000000 101434.68750000 7827933.00000000 6184428.50000000 
0.01800    149929760.00000000 93598768.00000000 236924864.00000000 100356.12500000 7752791.50000000 6125280.00000000 
0.01900    148599088.00000000 92775264.00000000 234830592.00000000 99231.05468750  7674421.00000000 6063529.00000000 
0.02000    147210288.00000000 91918272.00000000 232649120.00000000 98060.30468750  7592703.00000000 5999280.50000000 
0.02100    145770032.00000000 91027480.00000000 230383680.00000000 96848.95312500  7508012.00000000 5932600.00000000 
0.02200    144276704.00000000 90104904.00000000 228035408.00000000 95597.58593750  7420395.50000000 5863613.50000000 
0.02300    142736112.00000000 89152016.00000000 225610304.00000000 94308.07812500  7330048.50000000 5792486.00000000 
0.02400    141147520.00000000 88170320.00000000 223112608.00000000 92983.82031250  7237144.50000000 5719338.00000000 
0.02500    139515824.00000000 87160048.00000000 220547008.00000000 91627.28125000  7141823.50000000 5644269.00000000 
0.02600    137841904.00000000 86123968.00000000 217913872.00000000 90240.68750000  7044262.00000000 5567430.50000000 
0.02700    136130368.00000000 85064728.00000000 215219120.00000000 88827.60156250  6944596.00000000 5488987.00000000 
0.02800    134381728.00000000 83983368.00000000 212469584.00000000 87389.40625000  6843027.00000000 5409023.00000000 
0.02900    132600816.00000000 82880440.00000000 209665888.00000000 85929.46875000  6739754.00000000 5327672.50000000 
0.03000    130788128.00000000 81758184.00000000 206814528.00000000 84449.35937500  6634914.50000000 5245071.50000000 
0.03100    128948232.00000000 80618952.00000000 203919072.00000000 82951.96875000  6528624.50000000 5161369.00000000 
0.03200    127083328.00000000 79464384.00000000 200982736.00000000 81441.14843750  6421181.00000000 5076661.00000000 
0.03300    125196200.00000000 78294760.00000000 198010720.00000000 79918.34375000  6312644.50000000 4991219.50000000 
0.03400    123288224.00000000 77113032.00000000 195008320.00000000 78386.21875000  6203216.00000000 4905000.50000000 
0.03500    121364328.00000000 75921272.00000000 191979632.00000000 76846.43750000  6093081.50000000 4818251.00000000 
0.03600    119424664.00000000 74719864.00000000 188925744.00000000 75303.64062500  5982376.50000000 4731062.50000000 
0.03700    117474664.00000000 73510304.00000000 185854080.00000000 73757.71875000  5871294.50000000 4643509.00000000 
0.03800    115514376.00000000 72294768.00000000 182766992.00000000 72211.87500000  5759986.50000000 4555739.50000000 
0.03900    113548312.00000000 71075296.00000000 179669312.00000000 70668.65625000  5648572.00000000 4467956.00000000 
0.04000    111577904.00000000 69852128.00000000 176564768.00000000 69129.65625000  5537205.00000000 4380119.00000000 
0.04100    109605304.00000000 68628688.00000000 173458560.00000000 67597.96875000  5426060.00000000 4292508.50000000 
0.04200    107634568.00000000 67404912.00000000 170353264.00000000 66073.99218750  5315247.00000000 4205149.00000000 
0.04300    105666128.00000000 66183140.00000000 167250640.00000000 64561.11328125  5204982.00000000 4118186.50000000 
0.04400    103704056.00000000 64964084.00000000 164157984.00000000 63060.58203125  5095296.50000000 4031696.75000000 
0.04500    101749456.00000000 63749852.00000000 161075968.00000000 61574.41796875  4986368.00000000 3945798.00000000 
0.04600    99804680.00000000 62541596.00000000 158009456.00000000 60103.69531250  4878351.00000000 3860576.25000000 
0.04700    97871224.00000000 61339952.00000000 154962464.00000000 58650.97656250  4771290.50000000 3776135.25000000 
0.04800    95952136.00000000 60147420.00000000 151934992.00000000 57216.84765625  4665300.00000000 3692543.50000000 
0.04900    94049264.00000000 58963876.00000000 148932848.00000000 55803.04687500  4560590.50000000 3609880.00000000 
0.05000    92163600.00000000 57791176.00000000 145960032.00000000 54410.76562500  4457097.50000000 3528220.25000000 
0.05100    90297192.00000000 56630164.00000000 143015824.00000000 53041.45703125  4355022.50000000 3447676.75000000 
0.05200    88452072.00000000 55482048.00000000 140105360.00000000 51695.76171875  4254423.50000000 3368299.50000000 
0.05300    86629448.00000000 54347620.00000000 137229360.00000000 50374.66796875  4155415.25000000 3290129.75000000 
0.05400    84830680.00000000 53228036.00000000 134390624.00000000 49079.19531250  4057991.00000000 3213233.25000000 
0.05500    83058176.00000000 52124004.00000000 131594232.00000000 47810.21093750  3962265.50000000 3137661.75000000 
0.05600    81311224.00000000 51036204.00000000 128837416.00000000 46568.55859375  3868316.50000000 3063487.75000000 
0.05700    79593248.00000000 49965940.00000000 126124632.00000000 45354.52343750  3776174.25000000 2990721.00000000 
0.05800    77903624.00000000 48913100.00000000 123457192.00000000 44168.60546875  3685877.75000000 2919411.25000000 
0.05900    76244464.00000000 47878876.00000000 120837136.00000000 43010.94531250  3597479.50000000 2849602.50000000 
0.06000    74615632.00000000 46863304.00000000 118265128.00000000 41881.97265625  3511014.25000000 2781307.00000000 
0.06100    73018664.00000000 45867772.00000000 115743112.00000000 40782.25000000  3426501.75000000 2714556.75000000 
0.06200    71454304.00000000 44891852.00000000 113271944.00000000 39711.87109375  3344000.75000000 2649346.25000000 
0.06300    69922720.00000000 43936496.00000000 110853120.00000000 38670.50390625  3263459.25000000 2585733.50000000 
0.06400    68424328.00000000 43001760.00000000 108485560.00000000 37658.00000000  3184951.75000000 2523670.75000000 
0.06500    66960796.00000000 42087960.00000000 106173232.00000000 36674.84375000  3108471.25000000 2463241.00000000 
0.06600    65531208.00000000 41195384.00000000 103913464.00000000 35720.34765625  3033988.25000000 2404370.75000000 
0.06700    64134936.00000000 40324444.00000000 101708272.00000000 34794.50000000  2961525.50000000 2347111.25000000 
0.06800    62774332.00000000 39474412.00000000 99557416.00000000 33896.44531250  2891061.50000000 2291403.00000000 
0.06900    61448688.00000000 38646436.00000000 97461952.00000000 33026.64843750  2822607.75000000 2237297.25000000 
0.07000    60157452.00000000 37840348.00000000 95420856.00000000 32184.27148438  2756117.75000000 2184713.50000000 
0.07100    58900664.00000000 37055192.00000000 93434872.00000000 31368.47070312  2691571.50000000 2133694.75000000 
0.07200    57678976.00000000 36291740.00000000 91503560.00000000 30579.37304688  2628957.50000000 2084198.87500000 
0.07300    56491264.00000000 35550036.00000000 89626136.00000000 29815.92578125  2568251.50000000 2036192.62500000 
0.07400    55337852.00000000 34829116.00000000 87802936.00000000 29077.86718750  2509412.00000000 1989656.87500000 
0.07500    54217968.00000000 34129828.00000000 86032096.00000000 28364.29296875  2452395.25000000 1944566.37500000 
0.07600    53131212.00000000 33451422.00000000 84314784.00000000 27674.40625000  2397179.00000000 1900901.75000000 
0.07700    52077648.00000000 32793238.00000000 82648744.00000000 27007.73437500  2343697.50000000 1858607.62500000 
0.07800    51056616.00000000 32155310.00000000 81035040.00000000 26363.42773438  2291929.00000000 1817667.50000000 
0.07900    50067132.00000000 31537454.00000000 79471504.00000000 25740.84765625  2241815.75000000 1778035.12500000 
0.08000    49109212.00000000 30939214.00000000 77957160.00000000 25139.15039062  2193323.25000000 1739693.00000000 
0.08100    48181632.00000000 30359960.00000000 76491016.00000000 24557.69531250  2146409.25000000 1702572.37500000 
0.08200    47284036.00000000 29799528.00000000 75072232.00000000 23995.58789062  2101007.50000000 1666674.62500000 
0.08300    46415196.00000000 29257510.00000000 73699576.00000000 23452.01757812  2057050.00000000 1631921.87500000 
0.08400    45575332.00000000 28733586.00000000 72372800.00000000 22926.36328125  2014525.50000000 1598284.62500000 
0.08500    44763032.00000000 28226632.00000000 71089528.00000000 22417.57421875  1973349.37500000 1565731.87500000 
0.08600    43976780.00000000 27736894.00000000 69848896.00000000 21925.28125000  1933487.50000000 1534215.50000000 
0.08700    43217736.00000000 27263500.00000000 68649552.00000000 21448.36132812  1894912.12500000 1503693.00000000 
0.08800    42483052.00000000 26805918.00000000 67489824.00000000 20986.32617188  1857503.12500000 1474129.62500000 
0.08900    41773104.00000000 26364068.00000000 66369332.00000000 20538.44921875  1821272.87500000 1445469.00000000 
0.09000    41086704.00000000 25936682.00000000 65286024.00000000 20103.95898438  1786149.00000000 1417693.00000000 
0.09100    40422752.00000000 25524010.00000000 64238868.00000000 19682.08984375  1752049.12500000 1390739.62500000 
0.09200    39780236.00000000 25124944.00000000 63226112.00000000 19272.31640625  1718952.25000000 1364594.12500000 
0.09300    39159284.00000000 24739006.00000000 62247316.00000000 18873.74218750  1686838.12500000 1339185.00000000 
0.09400    38558004.00000000 24365726.00000000 61299512.00000000 18486.05664062  1655586.50000000 1314491.50000000 
0.09500    37975952.00000000 24004418.00000000 60381928.00000000 18108.49023438  1625216.87500000 1290476.37500000 
0.09600    37412116.00000000 23655176.00000000 59493744.00000000 17740.39648438  1595650.75000000 1267098.00000000 
0.09700    36865624.00000000 23316652.00000000 58634376.00000000 17381.66015625  1566857.12500000 1244354.00000000 
0.09800    36335960.00000000 22988882.00000000 57799984.00000000 17031.39257812  1538777.87500000 1222153.25000000 
0.09900    35821980.00000000 22671082.00000000 56991972.00000000 16689.10742188  1511379.87500000 1200497.12500000 
0.10000    35323144.00000000 22362606.00000000 56206928.00000000 16354.40039062  1484621.25000000 1179358.75000000 
0.10100    34838036.00000000 22063170.00000000 55444732.00000000 16026.94824219  1458470.00000000 1158690.62500000 
0.10200    34366624.00000000 21772478.00000000 54703768.00000000 15706.29394531  1432883.50000000 1138471.12500000 
0.10300    33907472.00000000 21489608.00000000 53982996.00000000 15391.87500000  1407848.37500000 1118677.12500000 
0.10400    33460706.00000000 21214414.00000000 53281416.00000000 15083.55078125  1383299.75000000 1099273.50000000 
0.10500    33025044.00000000 20946200.00000000 52597336.00000000 14781.11035156  1359239.75000000 1080251.37500000 
0.10600    32599272.00000000 20684626.00000000 51929852.00000000 14484.01562500  1335596.00000000 1061561.62500000 
0.10700    32184150.00000000 20429332.00000000 51278276.00000000 14192.01757812  1312384.50000000 1043207.43750000 
0.10800    31777732.00000000 20179876.00000000 50641252.00000000 13905.15722656  1289560.62500000 1025169.00000000 
0.10900    31379754.00000000 19935760.00000000 50017772.00000000 13622.89843750  1267095.62500000 1007406.25000000 
0.11000    30989956.00000000 19696614.00000000 49406640.00000000 13345.22753906  1244986.87500000 989921.87500000 
0.11100    30607708.00000000 19462280.00000000 48807608.00000000 13071.94140625  1223202.75000000 972687.93750000 
0.11200    30231946.00000000 19232370.00000000 48219580.00000000 12802.72460938  1201706.87500000 955692.50000000 
0.11300    29862786.00000000 19006074.00000000 47641568.00000000 12537.64257812  1180522.12500000 938931.37500000 
0.11400    29499696.00000000 18783822.00000000 47072800.00000000 12276.57910156  1159612.50000000 922380.18750000 
0.11500    29141686.00000000 18564600.00000000 46512404.00000000 12019.36230469  1138960.25000000 906037.37500000 
0.11600    28789122.00000000 18348956.00000000 45960724.00000000 11765.89550781  1118562.25000000 889887.25000000 
0.11700    28440856.00000000 18135852.00000000 45415724.00000000 11516.16992188  1098412.75000000 873924.75000000 
0.11800    28096878.00000000 17925356.00000000 44877248.00000000 11270.03417969  1078478.37500000 858133.56250000 
0.11900    27756834.00000000 17717426.00000000 44344992.00000000 11027.53320312  1058763.37500000 842519.68750000 
0.12000    27420526.00000000 17511342.00000000 43817964.00000000 10788.55664062  1039278.06250000 827073.25000000 
0.12100    27087392.00000000 17307526.00000000 43296444.00000000 10553.29003906  1020002.12500000 811791.43750000 
0.12200    26757342.00000000 17105296.00000000 42779532.00000000 10321.41699219  1000930.12500000 796670.18750000 
0.12300    26429886.00000000 16904720.00000000 42266908.00000000 10093.05664062  982062.31250000 781696.87500000 
0.12400    26105110.00000000 16705666.00000000 41757988.00000000 9868.26855469   963390.75000000 766883.81250000 
0.12500    25782770.00000000 16507977.00000000 41252504.00000000 9646.94335938   944910.18750000 752221.31250000 
0.12600    25462680.00000000 16311499.00000000 40751032.00000000 9429.20117188   926643.81250000 737711.68750000 
0.12700    25144594.00000000 16115947.00000000 40251912.00000000 9214.95996094   908558.93750000 723350.18750000 
0.12800    24828394.00000000 15921607.00000000 39755484.00000000 9004.23632812   890672.75000000 709141.37500000 
0.12900    24513808.00000000 15728110.00000000 39261820.00000000 8797.09765625   872990.31250000 695082.43750000 
0.13000    24201118.00000000 15535494.00000000 38770644.00000000 8593.42480469   855501.25000000 681174.31250000 
0.13100    23889964.00000000 15343637.00000000 38281740.00000000 8393.37597656   838211.12500000 667421.43750000 
0.13200    23580070.00000000 15152610.00000000 37795020.00000000 8196.89453125   821113.68750000 653826.81250000 
0.13300    23271902.00000000 14962174.00000000 37310180.00000000 8003.95898438   804222.37500000 640382.12500000 
0.13400    22965142.00000000 14772459.00000000 36827544.00000000 7814.62451172   787539.50000000 627097.06250000 
0.13500    22659766.00000000 14583528.00000000 36346648.00000000 7628.81494141   771060.37500000 613972.31250000 
0.13600    22355766.00000000 14395022.00000000 35867936.00000000 7446.58544922   754798.25000000 601012.81250000 
0.13700    22053304.00000000 14207266.00000000 35390860.00000000 7267.91406250   738734.62500000 588210.18750000 
0.13800    21751902.00000000 14020113.00000000 34915756.00000000 7092.77880859   722888.25000000 575584.81250000 
0.13900    21452252.00000000 13833622.00000000 34442468.00000000 6921.21093750   707256.87500000 563120.25000000 
0.14000    21153696.00000000 13647717.00000000 33971452.00000000 6753.12109375   691841.43750000 550823.87500000 
0.14100    20856864.00000000 13462544.00000000 33502120.00000000 6588.58056641   676653.87500000 538702.00000000 
0.14200    20561336.00000000 13278094.00000000 33035152.00000000 6427.45800781   661680.50000000 526750.93750000 
0.14300    20267420.00000000 13094415.00000000 32570146.00000000 6269.76953125   646936.68750000 514982.37500000 
0.14400    19974962.00000000 12911439.00000000 32107334.00000000 6115.54882812   632413.12500000 503383.75000000 
0.14500    19684230.00000000 12729289.00000000 31647068.00000000 5964.61132812   618121.00000000 491967.96875000 
0.14600    19395392.00000000 12547968.00000000 31188832.00000000 5817.10644531   604047.43750000 480728.78125000 
0.14700    19108300.00000000 12367487.00000000 30733730.00000000 5672.83984375   590215.12500000 469671.28125000 
0.14800    18822734.00000000 12187926.00000000 30280694.00000000 5531.80712891   576605.37500000 458793.00000000 
0.14900    18539336.00000000 12009368.00000000 29830534.00000000 5393.99365234   563223.43750000 448096.28125000 
0.15000    18257492.00000000 11831739.00000000 29383194.00000000 5259.30615234   550072.68750000 437580.12500000 
0.15100    17978100.00000000 11655333.00000000 28938702.00000000 5127.72460938   537148.43750000 427247.21875000 
0.15200    17700580.00000000 11479962.00000000 28497390.00000000 4999.21972656   524457.12500000 417099.81250000 
0.15300    17425288.00000000 11305601.00000000 28059120.00000000 4873.59619141   511994.46875000 407128.31250000 
0.15400    17151904.00000000 11132484.00000000 27624146.00000000 4750.92333984   499759.37500000 397337.50000000 
0.15500    16880988.00000000 10960727.00000000 27192650.00000000 4631.16015625   487751.43750000 387729.59375000 
0.15600    16612557.00000000 10790065.00000000 26764590.00000000 4514.11425781   475963.25000000 378300.65625000 
0.15700    16346464.00000000 10620960.00000000 26340042.00000000 4399.86132812   464407.65625000 369048.90625000 
0.15800    16082596.00000000 10453016.00000000 25919002.00000000 4288.31591797   453062.93750000 359975.15625000 
0.15900    15821310.00000000 10286670.00000000 25501958.00000000 4179.36816406   441945.40625000 351079.15625000 
0.16000    15562618.00000000 10121685.00000000 25088714.00000000 4072.96997070   431041.56250000 342349.21875000 
0.16100    15306528.00000000 9958204.00000000 24679548.00000000 3969.10620117   420355.62500000 333799.31250000 
0.16200    15053036.00000000 9796292.00000000 24274202.00000000 3867.67211914   409882.18750000 325418.21875000 
0.16300    14802279.00000000 9635911.00000000 23873346.00000000 3768.64526367   399618.96875000 317202.93750000 
0.16400    14554346.00000000 9477175.00000000 23476312.00000000 3671.95288086   389562.62500000 309154.84375000 
0.16500    14309006.00000000 9320038.00000000 23083664.00000000 3577.53881836   379710.62500000 301270.21875000 
0.16600    14066549.00000000 9164624.00000000 22695616.00000000 3485.35937500   370060.75000000 293549.75000000 
0.16700    13826900.00000000 9010875.00000000 22311442.00000000 3395.36499023   360604.71875000 285983.37500000 
0.16800    13590107.00000000 8858795.00000000 21931910.00000000 3307.47485352   351343.87500000 278576.34375000 
0.16900    13356387.00000000 8708450.00000000 21557116.00000000 3221.72973633   342280.00000000 271322.65625000 
0.17000    13125348.00000000 8559941.00000000 21186768.00000000 3138.03417969   333398.71875000 264221.78125000 
