# SAXS profile: number of points = 501, q_min = 0, q_max = 0.5, delta_q = 0.001
#    q    intensity 
0.00000    162228960.00000000 101201720.00000000 256270816.00000000 107968.21875000 8370591.50000000 6611113.00000000 
0.00100    162202576.00000000 101181288.00000000 256219344.00000000 107937.40625000 8368529.00000000 6609429.00000000 
0.00200    162110112.00000000 101121208.00000000 256066032.00000000 107843.52343750 8362201.00000000 6604520.00000000 
0.00300    161950560.00000000 101020488.00000000 255807792.00000000 107687.32031250 8351758.00000000 6596337.00000000 
0.00400    161718848.00000000 100879752.00000000 255448240.00000000 107468.78906250 8337118.00000000 6584795.50000000 
0.00500    161419312.00000000 100698528.00000000 254985216.00000000 107188.10156250 8318343.50000000 6570132.00000000 
0.00600    161059104.00000000 100478120.00000000 254419840.00000000 106846.34375000 8295521.00000000 6552208.00000000 
0.00700    160629552.00000000 100218376.00000000 253758608.00000000 106444.82031250 8268615.50000000 6531112.50000000 
0.00800    160138640.00000000 99921328.00000000 252995168.00000000 105983.85937500 8237719.00000000 6506855.50000000 
0.00900    159587984.00000000 99585576.00000000 252132816.00000000 105464.64843750 8202864.00000000 6479529.50000000 
0.01000    158976512.00000000 99211280.00000000 251174448.00000000 104887.37500000 8164149.50000000 6449201.00000000 
0.01100    158304928.00000000 98798424.00000000 250118752.00000000 104254.50781250 8121603.50000000 6415804.00000000 
0.01200    157569216.00000000 98349944.00000000 248971040.00000000 103566.46093750 8075360.00000000 6379607.00000000 
0.01300    156774000.00000000 97864624.00000000 247730656.00000000 102825.46875000 8025465.50000000 6340423.00000000 
0.01400    155924272.00000000 97344368.00000000 246401072.00000000 102031.90625000 7972012.50000000 6298487.50000000 
0.01500    155017136.00000000 96790424.00000000 244981104.00000000 101188.13281250 7915149.00000000 6253866.50000000 
0.01600    154054256.00000000 96201376.00000000 243476368.00000000 100295.75000000 7854853.50000000 6206628.50000000 
0.01700    153037792.00000000 95580200.00000000 241886496.00000000 99357.42187500  7791331.50000000 6156790.50000000 
0.01800    151970160.00000000 94926704.00000000 240215040.00000000 98373.21875000  7724738.50000000 6104500.50000000 
0.01900    150850400.00000000 94241816.00000000 238463360.00000000 97346.35937500  7655106.50000000 6049880.50000000 
0.02000    149683632.00000000 93527184.00000000 236637600.00000000 96278.72656250  7582555.00000000 5992954.00000000 
0.02100    148468016.00000000 92783536.00000000 234735520.00000000 95171.56250000  7507293.00000000 5933872.50000000 
0.02200    147205840.00000000 92011656.00000000 232762224.00000000 94028.32812500  7429374.50000000 5872670.50000000 
0.02300    145902112.00000000 91211640.00000000 230720592.00000000 92850.00781250  7348885.00000000 5809549.50000000 
0.02400    144554912.00000000 90386256.00000000 228611280.00000000 91639.60937500  7266107.00000000 5744511.50000000 
0.02500    143169248.00000000 89536152.00000000 226438832.00000000 90398.70312500  7181023.50000000 5677731.50000000 
0.02600    141745248.00000000 88662008.00000000 224206016.00000000 89129.84375000  7093849.50000000 5609313.50000000 
0.02700    140281936.00000000 87764768.00000000 221916928.00000000 87835.17187500  7004741.50000000 5539343.50000000 
0.02800    138785088.00000000 86846728.00000000 219571200.00000000 86517.33593750  6913834.50000000 5467920.50000000 
0.02900    137258352.00000000 85908376.00000000 217176336.00000000 85178.03906250  6821196.50000000 5395147.50000000 
0.03000    135700416.00000000 84949976.00000000 214733152.00000000 83819.94531250  6727045.50000000 5321158.50000000 
0.03100    134110816.00000000 83974528.00000000 212242832.00000000 82445.34375000  6631520.50000000 5246088.00000000 
0.03200    132496544.00000000 82981296.00000000 209709984.00000000 81055.92187500  6534678.50000000 5169951.00000000 
0.03300    130857696.00000000 81973728.00000000 207139360.00000000 79654.26562500  6436687.50000000 5092998.00000000 
0.03400    129195848.00000000 80951472.00000000 204532400.00000000 78242.80468750  6337766.00000000 5015238.00000000 
0.03500    127513696.00000000 79916200.00000000 201893632.00000000 76822.29687500  6238051.00000000 4936825.00000000 
0.03600    125812264.00000000 78867992.00000000 199221264.00000000 75397.09375000  6137490.50000000 4857792.50000000 
0.03700    124094256.00000000 77809408.00000000 196522928.00000000 73967.61718750  6036405.50000000 4778283.00000000 
0.03800    122362408.00000000 76740144.00000000 193801872.00000000 72535.95312500  5934880.00000000 4698380.50000000 
0.03900    120616128.00000000 75662768.00000000 191059040.00000000 71104.46875000  5832977.50000000 4618237.50000000 
0.04000    118858096.00000000 74578040.00000000 188296912.00000000 69674.60937500  5730910.50000000 4537937.50000000 
0.04100    117092016.00000000 73487320.00000000 185522272.00000000 68248.54687500  5628697.50000000 4457430.00000000 
0.04200    115318064.00000000 72390912.00000000 182730976.00000000 66827.59375000  5526569.50000000 4377014.50000000 
0.04300    113537648.00000000 71289928.00000000 179932976.00000000 65413.76562500  5424548.50000000 4296647.00000000 
0.04400    111754592.00000000 70186544.00000000 177125760.00000000 64008.19140625  5322708.50000000 4216493.00000000 
0.04500    109967976.00000000 69080440.00000000 174313792.00000000 62612.87890625  5221235.00000000 4136593.25000000 
0.04600    108181048.00000000 67974280.00000000 171499152.00000000 61229.17968750  5120266.00000000 4056991.25000000 
0.04700    106394176.00000000 66865900.00000000 168687136.00000000 59858.28515625  5019780.00000000 3977813.50000000 
0.04800    104610344.00000000 65759540.00000000 165877040.00000000 58500.78125000  4919894.00000000 3899117.50000000 
0.04900    102829928.00000000 64655068.00000000 163072832.00000000 57159.27734375  4820746.50000000 3820932.50000000 
0.05000    101054152.00000000 63552780.00000000 160275328.00000000 55833.35156250  4722403.00000000 3743389.25000000 
0.05100    99285256.00000000 62454276.00000000 157487216.00000000 54524.91015625  4624930.50000000 3666474.25000000 
0.05200    97524288.00000000 61359864.00000000 154711904.00000000 53234.20312500  4528391.00000000 3590306.50000000 
0.05300    95772648.00000000 60271032.00000000 151948960.00000000 51962.81250000  4432828.50000000 3514877.00000000 
0.05400    94031504.00000000 59186940.00000000 149199936.00000000 50710.87500000  4338316.50000000 3440289.50000000 
0.05500    92301016.00000000 58110024.00000000 146471984.00000000 49479.67187500  4244880.50000000 3366553.75000000 
0.05600    90584864.00000000 57040980.00000000 143761264.00000000 48269.21875000  4152695.75000000 3293742.00000000 
0.05700    88880856.00000000 55979296.00000000 141071456.00000000 47079.72265625  4061687.75000000 3221844.50000000 
0.05800    87191896.00000000 54926300.00000000 138404544.00000000 45912.53906250  3971950.75000000 3150922.00000000 
0.05900    85518824.00000000 53882244.00000000 135760400.00000000 44767.41796875  3883492.00000000 3081031.75000000 
0.06000    83861976.00000000 52848140.00000000 133141808.00000000 43644.38671875  3796344.75000000 3012157.25000000 
0.06100    82222280.00000000 51823664.00000000 130551080.00000000 42544.30468750  3710582.00000000 2944319.00000000 
0.06200    80601160.00000000 50810916.00000000 127987680.00000000 41467.17187500  3626187.25000000 2877605.50000000 
0.06300    78998560.00000000 49808956.00000000 125453168.00000000 40412.51953125  3543186.75000000 2811947.25000000 
0.06400    77414280.00000000 48818436.00000000 122947976.00000000 39380.77734375  3461628.25000000 2747402.50000000 
0.06500    75850408.00000000 47840516.00000000 120474408.00000000 38372.44531250  3381481.50000000 2683970.25000000 
0.06600    74308056.00000000 46873908.00000000 118032112.00000000 37386.50390625  3302777.25000000 2621689.25000000 
0.06700    72786184.00000000 45921120.00000000 115623880.00000000 36423.12109375  3225522.50000000 2560500.50000000 
0.06800    71285984.00000000 44980992.00000000 113248176.00000000 35482.42187500  3149741.75000000 2500472.50000000 
0.06900    69807160.00000000 44054344.00000000 110907400.00000000 34563.93359375  3075380.25000000 2441569.25000000 
0.07000    68351608.00000000 43140952.00000000 108601304.00000000 33667.54296875  3002530.75000000 2383856.25000000 
0.07100    66917976.00000000 42242088.00000000 106331368.00000000 32792.62109375  2931064.25000000 2327215.25000000 
0.07200    65506976.00000000 41357072.00000000 104095864.00000000 31939.04492188  2861039.25000000 2271727.00000000 
0.07300    64119580.00000000 40486188.00000000 101898328.00000000 31106.60546875  2792497.25000000 2217398.25000000 
0.07400    62756096.00000000 39629852.00000000 99736152.00000000 30295.02148438  2725382.00000000 2164149.50000000 
0.07500    61415888.00000000 38788360.00000000 97611792.00000000 29503.50585938  2659641.50000000 2112024.75000000 
0.07600    60098984.00000000 37961388.00000000 95525088.00000000 28731.86914062  2595333.50000000 2061004.75000000 
0.07700    58806372.00000000 37148768.00000000 93475152.00000000 27979.71875000  2532386.50000000 2011068.25000000 
0.07800    57537488.00000000 36351272.00000000 91463216.00000000 27246.81640625  2470805.75000000 1962208.37500000 
0.07900    56292520.00000000 35568996.00000000 89489168.00000000 26532.07031250  2410586.75000000 1914417.75000000 
0.08000    55071636.00000000 34801812.00000000 87553328.00000000 25835.78125000  2351698.50000000 1867668.12500000 
0.08100    53874452.00000000 34049260.00000000 85654672.00000000 25157.21679688  2294099.00000000 1821960.75000000 
0.08200    52702096.00000000 33312398.00000000 83794920.00000000 24495.73046875  2237837.25000000 1777264.50000000 
0.08300    51552328.00000000 32589928.00000000 81972248.00000000 23851.21093750  2182801.25000000 1733578.75000000 
0.08400    50427436.00000000 31882600.00000000 80187616.00000000 23222.79687500  2129044.00000000 1690886.62500000 
0.08500    49325932.00000000 31190030.00000000 78440672.00000000 22610.63671875  2076509.50000000 1649161.75000000 
0.08600    48248012.00000000 30512512.00000000 76732240.00000000 22013.85937500  2025184.75000000 1608389.75000000 
0.08700    47193844.00000000 29849782.00000000 75059312.00000000 21432.26757812  1975049.87500000 1568566.25000000 
0.08800    46162724.00000000 29201624.00000000 73424648.00000000 20865.13281250  1926064.62500000 1529654.62500000 
0.08900    45154936.00000000 28568382.00000000 71826592.00000000 20312.50195312  1878243.87500000 1491665.50000000 
0.09000    44170280.00000000 27949708.00000000 70265200.00000000 19773.66406250  1831539.37500000 1454569.00000000 
0.09100    43208132.00000000 27345470.00000000 68740840.00000000 19248.49804688  1785953.37500000 1418353.25000000 
0.09200    42269168.00000000 26755576.00000000 67251768.00000000 18736.38867188  1741450.62500000 1382997.87500000 
0.09300    41352824.00000000 26180068.00000000 65798812.00000000 18237.50390625  1698021.62500000 1348486.12500000 
0.09400    40458264.00000000 25618352.00000000 64381104.00000000 17750.91992188  1655621.37500000 1314807.25000000 
0.09500    39585948.00000000 25070982.00000000 62998760.00000000 17276.44531250  1614253.12500000 1281943.87500000 
0.09600    38735320.00000000 24537136.00000000 61651424.00000000 16813.91796875  1573899.25000000 1249882.62500000 
0.09700    37906256.00000000 24017264.00000000 60337900.00000000 16363.41308594  1534549.12500000 1218617.62500000 
0.09800    37098628.00000000 23510872.00000000 59058376.00000000 15924.10742188  1496157.50000000 1188127.37500000 
0.09900    36311948.00000000 23017682.00000000 57812524.00000000 15495.97460938  1458735.00000000 1158401.12500000 
0.10000    35545908.00000000 22538014.00000000 56599680.00000000 15078.80566406  1422260.62500000 1129431.50000000 
0.10100    34800512.00000000 22070868.00000000 55419908.00000000 14672.27148438  1386700.87500000 1101192.12500000 
0.10200    34075248.00000000 21616890.00000000 54271988.00000000 14276.34472656  1352070.50000000 1073679.00000000 
0.10300    33369808.00000000 21175638.00000000 53155460.00000000 13890.60058594  1318313.00000000 1046877.43750000 
0.10400    32683908.00000000 20746708.00000000 52070672.00000000 13515.05761719  1285453.12500000 1020784.18750000 
0.10500    32017818.00000000 20330098.00000000 51017016.00000000 13149.46191406  1253463.25000000 995387.68750000 
0.10600    31370132.00000000 19925560.00000000 49993004.00000000 12793.61816406  1222307.12500000 970655.43750000 
0.10700    30741454.00000000 19532736.00000000 48998724.00000000 12447.27832031  1192009.25000000 946609.87500000 
0.10800    30130792.00000000 19151740.00000000 48034164.00000000 12110.51855469  1162532.37500000 923202.81250000 
0.10900    29538640.00000000 18782304.00000000 47098156.00000000 11782.93847656  1133858.87500000 900456.81250000 
0.11000    28964072.00000000 18423860.00000000 46190320.00000000 11464.59082031  1105996.25000000 878338.12500000 
0.11100    28406852.00000000 18076446.00000000 45310492.00000000 11155.22949219  1078914.00000000 856851.00000000 
0.11200    27866670.00000000 17739878.00000000 44457680.00000000 10854.71289062  1052619.25000000 835971.43750000 
0.11300    27343130.00000000 17413900.00000000 43631112.00000000 10563.00781250  1027054.93750000 815712.43750000 
0.11400    26836118.00000000 17098194.00000000 42830452.00000000 10279.92871094  1002264.00000000 796031.25000000 
0.11500    26344964.00000000 16792560.00000000 42055484.00000000 10005.24316406  978192.87500000 776944.56250000 
0.11600    25869436.00000000 16496850.00000000 41304992.00000000 9738.85253906   954854.06250000 758434.31250000 
0.11700    25409224.00000000 16210617.00000000 40579136.00000000 9480.76074219   932214.68750000 740480.81250000 
0.11800    24963896.00000000 15933836.00000000 39876548.00000000 9230.76074219   910270.50000000 723075.43750000 
0.11900    24532854.00000000 15666235.00000000 39197380.00000000 8988.63476562   889006.43750000 706213.87500000 
0.12000    24115960.00000000 15407425.00000000 38540424.00000000 8754.25097656   868397.93750000 689879.87500000 
0.12100    23713126.00000000 15157177.00000000 37904968.00000000 8527.65332031   848460.56250000 674071.18750000 
0.12200    23323498.00000000 14915419.00000000 37290796.00000000 8308.48437500   829146.18750000 658767.25000000 
0.12300    22946836.00000000 14681711.00000000 36697448.00000000 8096.63281250   810467.62500000 643951.43750000 
0.12400    22582454.00000000 14455807.00000000 36123876.00000000 7891.98730469   792382.31250000 629616.31250000 
0.12500    22230302.00000000 14237535.00000000 35569220.00000000 7694.29345703   774894.62500000 615759.56250000 
0.12600    21890270.00000000 14026607.00000000 35033300.00000000 7503.53466797   757992.93750000 602358.75000000 
0.12700    21561514.00000000 13822821.00000000 34515468.00000000 7319.41503906   741639.81250000 589399.68750000 
0.12800    21243522.00000000 13625781.00000000 34014396.00000000 7141.84228516   725837.93750000 576874.43750000 
0.12900    20936212.00000000 13435267.00000000 33530646.00000000 6970.55517578   710562.37500000 564774.25000000 
0.13000    20639136.00000000 13251090.00000000 33062504.00000000 6805.47265625   695805.06250000 553074.25000000 
0.13100    20351616.00000000 13072866.00000000 32609880.00000000 6646.30078125   681532.18750000 541765.68750000 
0.13200    20073514.00000000 12900472.00000000 32171642.00000000 6492.86279297   667746.87500000 530836.06250000 
0.13300    19804492.00000000 12733578.00000000 31747902.00000000 6345.07275391   654419.75000000 520269.87500000 
0.13400    19543768.00000000 12571894.00000000 31337122.00000000 6202.61181641   641533.18750000 510059.18750000 
0.13500    19291286.00000000 12415166.00000000 30939412.00000000 6065.31005859   629083.50000000 500181.75000000 
0.13600    19046600.00000000 12263347.00000000 30553622.00000000 5933.06152344   617033.18750000 490629.25000000 
0.13700    18809084.00000000 12115895.00000000 30179284.00000000 5805.49902344   605376.93750000 481383.59375000 
0.13800    18578508.00000000 11972615.00000000 29815950.00000000 5682.55078125   594089.31250000 472435.71875000 
0.13900    18354640.00000000 11833474.00000000 29462840.00000000 5563.94677734   583161.12500000 463770.06250000 
0.14000    18136980.00000000 11698049.00000000 29119220.00000000 5449.54687500   572576.06250000 455369.15625000 
0.14100    17925098.00000000 11566129.00000000 28784898.00000000 5339.05859375   562312.43750000 447224.96875000 
0.14200    17718486.00000000 11437603.00000000 28458820.00000000 5232.38330078   552350.31250000 439318.43750000 
0.14300    17517290.00000000 11312028.00000000 28140794.00000000 5129.28320312   542672.75000000 431635.93750000 
0.14400    17320330.00000000 11189316.00000000 27830006.00000000 5029.46679688   533269.68750000 424167.68750000 
0.14500    17128066.00000000 11069125.00000000 27525956.00000000 4932.90185547   524117.25000000 416897.28125000 
0.14600    16939800.00000000 10951545.00000000 27228366.00000000 4839.29882812   515201.90625000 409819.31250000 
0.14700    16755226.00000000 10836193.00000000 26936300.00000000 4748.58349609   506512.18750000 402909.87500000 
0.14800    16574261.00000000 10722627.00000000 26649638.00000000 4660.41992188   498025.96875000 396165.96875000 
0.14900    16396035.00000000 10610962.00000000 26367688.00000000 4574.74707031   489730.78125000 389570.25000000 
0.15000    16220845.00000000 10501109.00000000 26090016.00000000 4491.38232422   481612.84375000 383111.15625000 
0.15100    16048080.00000000 10392517.00000000 25816080.00000000 4410.17480469   473657.18750000 376782.03125000 
0.15200    15877572.00000000 10285321.00000000 25545744.00000000 4330.92724609   465856.68750000 370573.62500000 
0.15300    15708906.00000000 10179277.00000000 25278360.00000000 4253.52539062   458188.62500000 364468.90625000 
0.15400    15542155.00000000 10074213.00000000 25013426.00000000 4177.83300781   450646.03125000 358458.65625000 
0.15500    15376787.00000000 9969999.00000000 24750830.00000000 4103.73583984   443213.31250000 352535.37500000 
0.15600    15212786.00000000 9866346.00000000 24490314.00000000 4031.09497070   435884.96875000 346695.46875000 
0.15700    15049874.00000000 9763439.00000000 24231250.00000000 3959.82128906   428651.50000000 340926.87500000 
0.15800    14887623.00000000 9660955.00000000 23973368.00000000 3889.71899414   421491.84375000 335218.46875000 
0.15900    14726291.00000000 9558787.00000000 23716600.00000000 3820.79736328   414412.93750000 329570.40625000 
0.16000    14565381.00000000 9456773.00000000 23460390.00000000 3752.91259766   407394.90625000 323967.90625000 
0.16100    14404953.00000000 9355084.00000000 23205050.00000000 3686.03881836   400439.03125000 318410.84375000 
0.16200    14244680.00000000 9253448.00000000 22949654.00000000 3620.06347656   393528.90625000 312891.06250000 
0.16300    14084512.00000000 9151723.00000000 22694482.00000000 3554.90136719   386665.09375000 307405.40625000 
0.16400    13924390.00000000 9050023.00000000 22439334.00000000 3490.55273438   379838.93750000 301950.25000000 
0.16500    13764148.00000000 8948087.00000000 22183736.00000000 3426.91845703   373046.65625000 296522.90625000 
0.16600    13603787.00000000 8845980.00000000 21927832.00000000 3363.99389648   366289.00000000 291115.71875000 
0.16700    13443041.00000000 8743797.00000000 21671374.00000000 3301.71655273   359554.62500000 285725.06250000 
0.16800    13282085.00000000 8641153.00000000 21414256.00000000 3240.03564453   352843.93750000 280357.84375000 
0.16900    13120734.00000000 8538373.00000000 21156814.00000000 3179.05175781   346157.68750000 275004.25000000 
0.17000    12958901.00000000 8435112.00000000 20898388.00000000 3118.62451172   339489.18750000 269665.43750000 
