# SAXS profile: number of points = 501, q_min = 0, q_max = 0.5, delta_q = 0.001
#    q    intensity 
0.00000    162232544.00000000 101202904.00000000 256270816.00000000 105516.83593750 8274962.50000000 6535585.50000000 
0.00100    162192672.00000000 101175696.00000000 256202240.00000000 105480.13281250 8272450.00000000 6533576.50000000 
0.00200    162071072.00000000 101096104.00000000 256001648.00000000 105370.42968750 8264861.50000000 6527643.50000000 
0.00300    161859856.00000000 100963712.00000000 255663600.00000000 105188.01562500 8252214.50000000 6517647.50000000 
0.00400    161559040.00000000 100778016.00000000 255192928.00000000 104931.55468750 8234490.00000000 6503744.00000000 
0.00500    161170304.00000000 100538920.00000000 254587264.00000000 104603.76562500 8211826.50000000 6485859.50000000 
0.00600    160701200.00000000 100249832.00000000 253850384.00000000 104206.21093750 8184196.00000000 6464191.00000000 
0.00700    160143120.00000000 99909528.00000000 252984688.00000000 103737.82031250 8151728.50000000 6438633.50000000 
0.00800    159507936.00000000 99519120.00000000 251988096.00000000 103201.39843750 8114470.50000000 6409383.50000000 
0.00900    158795600.00000000 99080072.00000000 250866784.00000000 102597.39062500 8072502.00000000 6376377.50000000 
0.01000    158004832.00000000 98589832.00000000 249620032.00000000 101926.72656250 8025921.00000000 6339737.00000000 
0.01100    157135232.00000000 98051936.00000000 248250480.00000000 101193.17968750 7974808.50000000 6299553.00000000 
0.01200    156185408.00000000 97467176.00000000 246762560.00000000 100396.96875000 7919338.00000000 6255944.00000000 
0.01300    155164976.00000000 96836120.00000000 245158736.00000000 99541.17968750  7859606.50000000 6208936.50000000 
0.01400    154073376.00000000 96161728.00000000 243441824.00000000 98626.68750000  7795728.00000000 6158695.00000000 
0.01500    152910976.00000000 95444704.00000000 241615040.00000000 97656.74218750  7727899.00000000 6105372.50000000 
0.01600    151679584.00000000 94685264.00000000 239681856.00000000 96633.55468750  7656187.00000000 6048937.00000000 
0.01700    150385472.00000000 93885288.00000000 237645728.00000000 95559.25000000  7580824.00000000 5989693.00000000 
0.01800    149027040.00000000 93046240.00000000 235512608.00000000 94438.12500000  7501972.00000000 5927609.50000000 
0.01900    147610608.00000000 92170560.00000000 233283200.00000000 93270.58593750  7419802.00000000 5862882.00000000 
0.02000    146134896.00000000 91259568.00000000 230963456.00000000 92060.90625000  7334415.50000000 5795716.50000000 
0.02100    144605824.00000000 90313200.00000000 228557776.00000000 90811.14062500  7246016.00000000 5726156.50000000 
0.02200    143024144.00000000 89335648.00000000 226070896.00000000 89523.33593750  7154888.00000000 5654431.50000000 
0.02300    141394096.00000000 88327360.00000000 223509008.00000000 88202.89843750  7061057.00000000 5580603.50000000 
0.02400    139718688.00000000 87291536.00000000 220871792.00000000 86851.26562500  6964842.00000000 5504858.00000000 
0.02500    137999664.00000000 86228320.00000000 218168400.00000000 85471.55468750  6866425.00000000 5427316.00000000 
0.02600    136240976.00000000 85138912.00000000 215401808.00000000 84066.69531250  6766004.50000000 5348277.00000000 
0.02700    134445184.00000000 84027896.00000000 212577120.00000000 82639.85937500  6663666.50000000 5267668.50000000 
0.02800    132617544.00000000 82895496.00000000 209698256.00000000 81194.31250000  6559651.50000000 5185761.00000000 
0.02900    130757752.00000000 81744112.00000000 206770784.00000000 79732.56250000  6454311.00000000 5102747.00000000 
0.03000    128871400.00000000 80575112.00000000 203801552.00000000 78257.54687500  6347643.00000000 5018713.00000000 
0.03100    126960792.00000000 79391192.00000000 200793168.00000000 76771.66406250  6239939.50000000 4933850.50000000 
0.03200    125027880.00000000 78194336.00000000 197750512.00000000 75278.67968750  6131304.50000000 4848227.00000000 
0.03300    123078208.00000000 76985584.00000000 194680992.00000000 73780.99218750  6022094.00000000 4762171.50000000 
0.03400    121112640.00000000 75766816.00000000 191583840.00000000 72281.53906250  5912306.00000000 4675625.00000000 
0.03500    119135064.00000000 74540048.00000000 188468080.00000000 70782.80468750  5802242.00000000 4588832.00000000 
0.03600    117148928.00000000 73306648.00000000 185338592.00000000 69286.67187500  5691985.50000000 4501900.50000000 
0.03700    115156280.00000000 72069664.00000000 182198816.00000000 67796.48437500  5581781.50000000 4414960.00000000 
0.03800    113160456.00000000 70830008.00000000 179051136.00000000 66314.12500000  5471752.00000000 4328177.50000000 
0.03900    111164472.00000000 69589304.00000000 175904832.00000000 64840.98046875  5362090.00000000 4241675.00000000 
0.04000    109169680.00000000 68349056.00000000 172759392.00000000 63380.42187500  5252901.50000000 4155532.75000000 
0.04100    107179288.00000000 67112664.00000000 169620192.00000000 61934.36718750  5144406.00000000 4069926.00000000 
0.04200    105197488.00000000 65879072.00000000 166494368.00000000 60504.03515625  5036706.50000000 3984901.75000000 
0.04300    103224176.00000000 64651648.00000000 163380736.00000000 59091.55468750  4929949.00000000 3900625.25000000 
0.04400    101263728.00000000 63431024.00000000 160286080.00000000 57698.10546875  4824255.00000000 3817149.50000000 
0.04500    99316168.00000000 62218984.00000000 157214304.00000000 56325.79687500  4719683.00000000 3734630.50000000 
0.04600    97386208.00000000 61016772.00000000 154168240.00000000 54975.46484375  4616411.50000000 3653085.75000000 
0.04700    95474088.00000000 59825408.00000000 151148128.00000000 53649.23437500  4514602.50000000 3572615.50000000 
0.04800    93582544.00000000 58646240.00000000 148162288.00000000 52346.61328125  4414245.50000000 3493321.75000000 
0.04900    91712656.00000000 57480852.00000000 145209984.00000000 51070.12890625  4315421.50000000 3415270.25000000 
0.05000    89866592.00000000 56329564.00000000 142294160.00000000 49819.86328125  4218300.00000000 3338502.25000000 
0.05100    88046008.00000000 55194064.00000000 139419840.00000000 48596.85937500  4122891.00000000 3263121.25000000 
0.05200    86253208.00000000 54074736.00000000 136584896.00000000 47401.34375000  4029301.25000000 3189121.00000000 
0.05300    84487840.00000000 52973076.00000000 133797112.00000000 46234.12109375  3937547.50000000 3116566.75000000 
0.05400    82752328.00000000 51889036.00000000 131053832.00000000 45095.10156250  3847685.50000000 3045540.00000000 
0.05500    81047536.00000000 50824132.00000000 128358464.00000000 43985.38671875  3759761.75000000 2976029.75000000 
0.05600    79374760.00000000 49778392.00000000 125712928.00000000 42904.28125000  3673833.25000000 2908054.25000000 
0.05700    77733744.00000000 48753120.00000000 123118864.00000000 41852.50000000  3589919.00000000 2841691.50000000 
0.05800    76126048.00000000 47747908.00000000 120576288.00000000 40829.42187500  3507980.50000000 2776892.25000000 
0.05900    74551904.00000000 46764048.00000000 118087968.00000000 39835.21093750  3428119.75000000 2713706.00000000 
0.06000    73012832.00000000 45800636.00000000 115652672.00000000 38868.92968750  3350302.50000000 2652134.75000000 
0.06100    71509128.00000000 44859960.00000000 113273568.00000000 37931.70312500  3274515.25000000 2592185.25000000 
0.06200    70040376.00000000 43940956.00000000 110949832.00000000 37022.07812500  3200760.25000000 2533821.25000000 
0.06300    68606616.00000000 43043972.00000000 108681440.00000000 36139.49609375  3129052.00000000 2477080.50000000 
0.06400    67208880.00000000 42168748.00000000 106469568.00000000 35284.41015625  3059313.50000000 2421907.50000000 
0.06500    65846688.00000000 41315928.00000000 104314152.00000000 34454.97265625  2991608.50000000 2368340.50000000 
0.06600    64520640.00000000 40485664.00000000 102214864.00000000 33651.51171875  2925834.50000000 2316302.00000000 
0.06700    63229612.00000000 39677556.00000000 100172736.00000000 32872.68750000  2862001.50000000 2265785.25000000 
0.06800    61974124.00000000 38891228.00000000 98185688.00000000 32118.19531250  2800064.50000000 2216766.50000000 
0.06900    60753808.00000000 38127008.00000000 96254896.00000000 31387.32421875  2739989.50000000 2169236.75000000 
0.07000    59568372.00000000 37384736.00000000 94378288.00000000 30679.23437500  2681720.00000000 2123161.75000000 
0.07100    58416820.00000000 36663952.00000000 92556016.00000000 29992.88476562  2625229.50000000 2078482.00000000 
0.07200    57299132.00000000 35964624.00000000 90787616.00000000 29327.51562500  2570426.00000000 2035143.87500000 
0.07300    56214212.00000000 35285860.00000000 89072032.00000000 28682.67968750  2517360.25000000 1993171.25000000 
0.07400    55162196.00000000 34627816.00000000 87406984.00000000 28057.15429688  2465860.75000000 1952439.25000000 
0.07500    54142540.00000000 33989644.00000000 85795000.00000000 27450.23242188  2415975.75000000 1912990.37500000 
0.07600    53153880.00000000 33372022.00000000 84230568.00000000 26861.07617188  2367571.50000000 1874735.87500000 
0.07700    52195584.00000000 32773236.00000000 82715432.00000000 26289.01562500  2320631.00000000 1837660.62500000 
0.07800    51267172.00000000 32193066.00000000 81246920.00000000 25733.03125000  2275112.25000000 1801672.62500000 
0.07900    50367664.00000000 31631398.00000000 79825368.00000000 25192.32226562  2230921.50000000 1766764.00000000 
0.08000    49495680.00000000 31087328.00000000 78448400.00000000 24666.21289062  2188005.25000000 1732882.75000000 
0.08100    48651288.00000000 30560632.00000000 77114488.00000000 24154.02148438  2146369.25000000 1699993.25000000 
0.08200    47832872.00000000 30050672.00000000 75821760.00000000 23654.97070312  2105888.00000000 1668022.00000000 
0.08300    47039612.00000000 29556890.00000000 74570640.00000000 23168.46679688  2066507.25000000 1636965.00000000 
0.08400    46271144.00000000 29078574.00000000 73358232.00000000 22693.36718750  2028222.62500000 1606728.12500000 
0.08500    45526156.00000000 28615578.00000000 72183560.00000000 22229.74218750  1990930.87500000 1577331.87500000 
0.08600    44803760.00000000 28166832.00000000 71044936.00000000 21776.56835938  1954612.00000000 1548687.87500000 
0.08700    44103252.00000000 27731992.00000000 69940696.00000000 21333.38085938  1919200.75000000 1520765.62500000 
0.08800    43423464.00000000 27310408.00000000 68870088.00000000 20899.41015625  1884650.25000000 1493526.87500000 
0.08900    42763380.00000000 26901702.00000000 67831088.00000000 20474.42773438  1850913.87500000 1466948.37500000 
0.09000    42122396.00000000 26504796.00000000 66821900.00000000 20058.02929688  1817963.12500000 1440971.62500000 
0.09100    41499340.00000000 26119874.00000000 65842424.00000000 19649.53515625  1785723.37500000 1415560.25000000 
0.09200    40893256.00000000 25745588.00000000 64889788.00000000 19248.70898438  1754167.37500000 1390699.50000000 
0.09300    40303852.00000000 25382072.00000000 63963604.00000000 18855.11132812  1723253.25000000 1366360.12500000 
0.09400    39729732.00000000 25028328.00000000 63061952.00000000 18468.39648438  1692935.75000000 1342483.37500000 
0.09500    39170332.00000000 24684034.00000000 62184060.00000000 18088.17968750  1663198.62500000 1319058.75000000 
0.09600    38624728.00000000 24348616.00000000 61328080.00000000 17714.50000000  1633992.00000000 1296069.12500000 
0.09700    38091936.00000000 24021570.00000000 60493492.00000000 17346.81445312  1605299.75000000 1273476.00000000 
0.09800    37571744.00000000 23702476.00000000 59678508.00000000 16985.22851562  1577100.00000000 1251254.12500000 
0.09900    37063084.00000000 23390850.00000000 58881724.00000000 16629.08789062  1549336.62500000 1229382.37500000 
0.10000    36565688.00000000 23085932.00000000 58102388.00000000 16278.75097656  1521988.25000000 1207842.12500000 
0.10100    36077948.00000000 22787910.00000000 57339872.00000000 15933.79882812  1495039.62500000 1186618.12500000 
0.10200    35599964.00000000 22495866.00000000 56592004.00000000 15594.09277344  1468480.75000000 1165698.37500000 
0.10300    35131352.00000000 22209520.00000000 55858936.00000000 15259.58398438  1442288.62500000 1145050.37500000 
0.10400    34670912.00000000 21928480.00000000 55138904.00000000 14930.17871094  1416432.87500000 1124670.25000000 
0.10500    34218404.00000000 21652470.00000000 54432288.00000000 14606.01757812  1390913.50000000 1104554.62500000 
0.10600    33773176.00000000 21381056.00000000 53736624.00000000 14286.67675781  1365707.87500000 1084675.25000000 
0.10700    33334700.00000000 21114050.00000000 53052344.00000000 13972.48828125  1340802.50000000 1065042.37500000 
0.10800    32902796.00000000 20851114.00000000 52377680.00000000 13663.22753906  1316202.00000000 1045618.25000000 
0.10900    32477082.00000000 20591612.00000000 51712812.00000000 13358.92675781  1291880.25000000 1026423.68750000 
0.11000    32056994.00000000 20335918.00000000 51056652.00000000 13059.56835938  1267858.37500000 1007442.81250000 
0.11100    31641768.00000000 20083400.00000000 50408664.00000000 12765.09179688  1244092.25000000 988667.62500000 
0.11200    31231748.00000000 19833776.00000000 49768676.00000000 12475.75781250  1220598.12500000 970105.37500000 
0.11300    30826262.00000000 19586814.00000000 49135296.00000000 12191.22851562  1197378.87500000 951738.87500000 
0.11400    30425448.00000000 19342724.00000000 48508872.00000000 11911.69042969  1174422.75000000 933573.50000000 
0.11500    30028206.00000000 19100706.00000000 47888868.00000000 11637.17578125  1151715.12500000 915612.37500000 
0.11600    29634976.00000000 18861012.00000000 47274560.00000000 11367.58105469  1129283.50000000 897840.18750000 
0.11700    29245502.00000000 18623514.00000000 46665684.00000000 11103.05078125  1107099.00000000 880280.93750000 
0.11800    28859364.00000000 18387900.00000000 46061900.00000000 10843.39550781  1085180.37500000 862902.93750000 
0.11900    28476570.00000000 18154264.00000000 45463224.00000000 10588.80078125  1063521.37500000 845728.56250000 
0.12000    28096740.00000000 17922136.00000000 44869140.00000000 10339.13769531  1042141.81250000 828754.68750000 
0.12100    27720040.00000000 17691682.00000000 44279564.00000000 10094.55664062  1021013.43750000 811994.56250000 
0.12200    27346230.00000000 17463036.00000000 43694284.00000000 9854.88378906   1000158.43750000 795426.68750000 
0.12300    26975294.00000000 17235658.00000000 43112696.00000000 9620.06542969   979567.93750000 779072.56250000 
0.12400    26606808.00000000 17009836.00000000 42535660.00000000 9390.28027344   959245.18750000 762922.25000000 
0.12500    26241422.00000000 16785252.00000000 41962128.00000000 9165.38378906   939203.68750000 746977.68750000 
0.12600    25878438.00000000 16562167.00000000 41392612.00000000 8945.26269531   919440.37500000 731253.93750000 
0.12700    25518034.00000000 16340384.00000000 40827036.00000000 8729.93066406   899957.81250000 715746.87500000 
0.12800    25160280.00000000 16119861.00000000 40265296.00000000 8519.42968750   880760.25000000 700454.81250000 
0.12900    24805048.00000000 15900798.00000000 39706728.00000000 8313.53906250   861833.81250000 685381.00000000 
0.13000    24452518.00000000 15682947.00000000 39152388.00000000 8112.41259766   843207.43750000 670535.18750000 
0.13100    24102254.00000000 15466408.00000000 38601312.00000000 7915.77539062   824858.43750000 655914.62500000 
0.13200    23754864.00000000 15251242.00000000 38054092.00000000 7723.71582031   806805.37500000 641513.75000000 
0.13300    23409952.00000000 15037421.00000000 37510876.00000000 7536.07910156   789044.25000000 627344.12500000 
0.13400    23067712.00000000 14824917.00000000 36971576.00000000 7352.84667969   771578.37500000 613405.06250000 
0.13500    22728224.00000000 14613814.00000000 36435588.00000000 7173.85693359   754400.37500000 599698.31250000 
0.13600    22391434.00000000 14404138.00000000 35903464.00000000 6999.08789062   737520.00000000 586217.37500000 
0.13700    22057416.00000000 14195948.00000000 35376020.00000000 6828.39404297   720929.06250000 572966.81250000 
0.13800    21725946.00000000 13989135.00000000 34852436.00000000 6661.78466797   704635.12500000 559947.93750000 
0.13900    21397262.00000000 13783862.00000000 34332684.00000000 6499.12500000   688633.18750000 547167.43750000 
0.14000    21072052.00000000 13580101.00000000 33817260.00000000 6340.29785156   672935.12500000 534616.81250000 
0.14100    20749390.00000000 13377907.00000000 33306438.00000000 6185.30029297   657516.18750000 522299.31250000 
0.14200    20429638.00000000 13177503.00000000 32800006.00000000 6033.92724609   642391.00000000 510213.31250000 
0.14300    20113140.00000000 12978567.00000000 32297878.00000000 5886.15527344   627559.56250000 498357.37500000 
0.14400    19799558.00000000 12781289.00000000 31800246.00000000 5741.85644531   613011.25000000 486726.62500000 
0.14500    19489054.00000000 12585918.00000000 31307618.00000000 5600.98535156   598749.56250000 475325.75000000 
0.14600    19181828.00000000 12392277.00000000 30819552.00000000 5463.52490234   584767.12500000 464152.15625000 
0.14700    18877780.00000000 12200301.00000000 30336642.00000000 5329.26367188   571069.43750000 453202.12500000 
0.14800    18577058.00000000 12010418.00000000 29858064.00000000 5198.15673828   557641.93750000 442473.75000000 
0.14900    18279416.00000000 11822202.00000000 29384864.00000000 5070.14062500   544489.93750000 431962.53125000 
0.15000    17985508.00000000 11635963.00000000 28916788.00000000 4945.13037109   531614.81250000 421667.93750000 
0.15100    17694536.00000000 11451589.00000000 28453618.00000000 4823.07226562   519000.37500000 411589.15625000 
0.15200    17407336.00000000 11269316.00000000 27995784.00000000 4703.89013672   506652.37500000 401726.65625000 
0.15300    17123312.00000000 11088956.00000000 27543074.00000000 4587.47607422   494557.93750000 392064.21875000 
0.15400    16842838.00000000 10910683.00000000 27095672.00000000 4473.77148438   482722.40625000 382612.15625000 
0.15500    16565843.00000000 10734408.00000000 26653554.00000000 4362.79052734   471136.53125000 373361.21875000 
0.15600    16292225.00000000 10560206.00000000 26217032.00000000 4254.33691406   459795.90625000 364308.87500000 
0.15700    16022260.00000000 10388093.00000000 25786028.00000000 4148.50048828   448701.53125000 355455.68750000 
0.15800    15755518.00000000 10218032.00000000 25360076.00000000 4045.06958008   437838.50000000 346790.62500000 
0.15900    15492516.00000000 10050183.00000000 24939868.00000000 3944.15356445   427212.28125000 338312.65625000 
0.16000    15232989.00000000 9884447.00000000 24524928.00000000 3845.59057617   416815.78125000 330024.18750000 
0.16100    14977080.00000000 9720878.00000000 24115910.00000000 3749.38281250   406648.40625000 321912.40625000 
0.16200    14724694.00000000 9559416.00000000 23712010.00000000 3655.47827148   396698.78125000 313982.78125000 
0.16300    14475760.00000000 9400122.00000000 23313906.00000000 3563.79418945   386962.96875000 306225.34375000 
0.16400    14230467.00000000 9242935.00000000 22921294.00000000 3474.36499023   377441.00000000 298639.87500000 
0.16500    13988577.00000000 9088032.00000000 22534020.00000000 3387.11694336   368122.84375000 291221.84375000 
0.16600    13750261.00000000 8935178.00000000 22152572.00000000 3301.98022461   359014.18750000 283967.56250000 
0.16700    13515434.00000000 8784549.00000000 21776418.00000000 3218.92993164   350099.87500000 276869.93750000 
0.16800    13284014.00000000 8636046.00000000 21405684.00000000 3137.98388672   341377.75000000 269930.40625000 
0.16900    13056171.00000000 8489769.00000000 21040404.00000000 3059.08935547   332853.09375000 263144.09375000 
0.17000    12831628.00000000 8345565.50000000 20680812.00000000 2982.13452148   324509.50000000 256509.70312500 
