# SAXS profile: number of points = 501, q_min = 0, q_max = 0.5, delta_q = 0.001
#    q    intensity 
0.00000    162235680.00000000 101201688.00000000 256270448.00000000 95264.63281250  7862710.50000000 6209950.50000000 
0.00100    162205040.00000000 101181520.00000000 256219680.00000000 95239.88281250  7860922.50000000 6208562.50000000 
0.00200    162108592.00000000 101120904.00000000 256065600.00000000 95167.39062500  7855513.00000000 6204312.00000000 
0.00300    161947632.00000000 101020640.00000000 255809744.00000000 95045.75781250  7846485.50000000 6197241.50000000 
0.00400    161718304.00000000 100879616.00000000 255449840.00000000 94876.33593750  7833936.00000000 6187315.00000000 
0.00500    161424560.00000000 100698216.00000000 254988800.00000000 94658.50000000  7817800.50000000 6174664.50000000 
0.00600    161065088.00000000 100477232.00000000 254426256.00000000 94393.32812500  7798094.00000000 6159211.00000000 
0.00700    160642480.00000000 100216928.00000000 253763664.00000000 94081.52343750  7774947.00000000 6140971.00000000 
0.00800    160156176.00000000 99917656.00000000 253001872.00000000 93722.45312500  7748285.50000000 6120050.00000000 
0.00900    159605616.00000000 99580096.00000000 252140624.00000000 93317.32031250  7718171.50000000 6096383.00000000 
0.01000    158995760.00000000 99204448.00000000 251181856.00000000 92867.29687500  7684692.00000000 6070096.00000000 
0.01100    158324912.00000000 98790880.00000000 250128512.00000000 92372.95312500  7647877.50000000 6041159.50000000 
0.01200    157594912.00000000 98340336.00000000 248980608.00000000 91834.01562500  7607796.50000000 6009648.00000000 
0.01300    156804576.00000000 97852728.00000000 247739600.00000000 91251.79687500  7564495.00000000 5975592.00000000 
0.01400    155954624.00000000 97329328.00000000 246404896.00000000 90627.78906250  7518032.50000000 5939116.50000000 
0.01500    155047616.00000000 96770392.00000000 244982624.00000000 89963.73437500  7468462.00000000 5900142.50000000 
0.01600    154086000.00000000 96177272.00000000 243472528.00000000 89258.79687500  7415870.50000000 5858817.50000000 
0.01700    153069936.00000000 95550936.00000000 241876848.00000000 88515.19531250  7360357.50000000 5815164.50000000 
0.01800    152000928.00000000 94891792.00000000 240196608.00000000 87734.10156250  7301999.50000000 5769288.00000000 
0.01900    150879744.00000000 94200664.00000000 238435984.00000000 86916.96875000  7240849.00000000 5721206.00000000 
0.02000    149706832.00000000 93478056.00000000 236595248.00000000 86063.93750000  7177002.00000000 5671030.50000000 
0.02100    148486080.00000000 92725040.00000000 234679024.00000000 85177.04687500  7110611.50000000 5618844.00000000 
0.02200    147219888.00000000 91943416.00000000 232686976.00000000 84258.64843750  7041700.50000000 5564686.50000000 
0.02300    145905984.00000000 91134056.00000000 230625040.00000000 83308.95312500  6970358.00000000 5508611.00000000 
0.02400    144549232.00000000 90296704.00000000 228493744.00000000 82329.57031250  6896730.00000000 5450715.00000000 
0.02500    143149440.00000000 89434056.00000000 226295760.00000000 81322.06250000  6820905.00000000 5391077.00000000 
0.02600    141711120.00000000 88545560.00000000 224033376.00000000 80287.73437500  6743005.00000000 5329824.50000000 
0.02700    140233008.00000000 87633512.00000000 221711104.00000000 79228.05468750  6663087.00000000 5267011.00000000 
0.02800    138717248.00000000 86698624.00000000 219332736.00000000 78145.66406250  6581293.50000000 5202689.50000000 
0.02900    137167296.00000000 85742664.00000000 216896800.00000000 77041.46875000  6497722.00000000 5136988.50000000 
0.03000    135585520.00000000 84765920.00000000 214410848.00000000 75916.47656250  6412585.00000000 5069951.50000000 
0.03100    133971936.00000000 83769368.00000000 211874880.00000000 74773.11718750  6325811.50000000 5001738.50000000 
0.03200    132329720.00000000 82754520.00000000 209293808.00000000 73612.75781250  6237622.00000000 4932376.00000000 
0.03300    130660264.00000000 81724152.00000000 206668560.00000000 72436.49218750  6148160.00000000 4861956.00000000 
0.03400    128965456.00000000 80677184.00000000 204005328.00000000 71246.32031250  6057456.00000000 4790613.00000000 
0.03500    127247848.00000000 79616504.00000000 201304864.00000000 70044.52343750  5965662.00000000 4718387.50000000 
0.03600    125508232.00000000 78541216.00000000 198570448.00000000 68831.71093750  5872960.00000000 4645428.00000000 
0.03700    123750024.00000000 77454432.00000000 195806240.00000000 67609.92187500  5779320.00000000 4571760.00000000 
0.03800    121974432.00000000 76357032.00000000 193013552.00000000 66380.39843750  5684950.50000000 4497475.50000000 
0.03900    120183904.00000000 75250168.00000000 190198288.00000000 65145.17578125  5589975.00000000 4422710.00000000 
0.04000    118380376.00000000 74135072.00000000 187361200.00000000 63905.15625000  5494430.50000000 4347532.00000000 
0.04100    116564992.00000000 73012600.00000000 184506240.00000000 62662.71875000  5398516.00000000 4272038.50000000 
0.04200    114739952.00000000 71884208.00000000 181635856.00000000 61418.81640625  5302294.50000000 4196287.00000000 
0.04300    112907576.00000000 70750752.00000000 178752864.00000000 60175.12500000  5205862.00000000 4120347.25000000 
0.04400    111070312.00000000 69613832.00000000 175861968.00000000 58932.44921875  5109333.00000000 4044338.00000000 
0.04500    109229016.00000000 68473328.00000000 172964672.00000000 57692.95312500  5012870.00000000 3968331.00000000 
0.04600    107385736.00000000 67332376.00000000 170063312.00000000 56457.39062500  4916436.00000000 3892400.75000000 
0.04700    105542168.00000000 66190552.00000000 167162768.00000000 55227.53125000  4820233.00000000 3816656.25000000 
0.04800    103700152.00000000 65049700.00000000 164262384.00000000 54004.48437500  4724397.50000000 3741112.50000000 
0.04900    101862008.00000000 63911068.00000000 161369632.00000000 52789.80859375  4628907.00000000 3665885.25000000 
0.05000    100028152.00000000 62774832.00000000 158482496.00000000 51583.97656250  4533941.50000000 3591039.50000000 
0.05100    98201464.00000000 61642704.00000000 155606160.00000000 50388.51171875  4439520.00000000 3516632.75000000 
0.05200    96383216.00000000 60515568.00000000 152742672.00000000 49204.42968750  4345743.00000000 3442752.75000000 
0.05300    94574848.00000000 59393852.00000000 149893552.00000000 48032.90625000  4252756.00000000 3369438.25000000 
0.05400    92777208.00000000 58279360.00000000 147062112.00000000 46875.10546875  4160605.75000000 3296758.75000000 
0.05500    90992744.00000000 57172220.00000000 144250864.00000000 45731.15625000  4069311.25000000 3224792.75000000 
0.05600    89222624.00000000 56073492.00000000 141463104.00000000 44602.84375000  3978982.50000000 3153552.00000000 
0.05700    87467304.00000000 54984464.00000000 138697600.00000000 43490.64453125  3889710.00000000 3083156.75000000 
0.05800    85729208.00000000 53904996.00000000 135958288.00000000 42394.90234375  3801531.25000000 3013578.25000000 
0.05900    84009320.00000000 52836704.00000000 133247248.00000000 41316.93359375  3714497.00000000 2944935.75000000 
0.06000    82308680.00000000 51779964.00000000 130565512.00000000 40257.28906250  3628678.50000000 2877219.75000000 
0.06100    80627376.00000000 50735552.00000000 127915712.00000000 39216.23437500  3544131.75000000 2810498.25000000 
0.06200    78968424.00000000 49703920.00000000 125299024.00000000 38194.61718750  3460909.75000000 2744819.50000000 
0.06300    77331464.00000000 48686152.00000000 122716784.00000000 37192.93359375  3379032.50000000 2680188.00000000 
0.06400    75717288.00000000 47682360.00000000 120171000.00000000 36211.15625000  3298548.50000000 2616663.75000000 
0.06500    74127128.00000000 46693180.00000000 117662736.00000000 35250.33593750  3219523.00000000 2554243.50000000 
0.06600    72562136.00000000 45719148.00000000 115193320.00000000 34310.35546875  3141977.75000000 2492997.25000000 
0.06700    71022880.00000000 44760848.00000000 112764152.00000000 33391.64062500  3065924.25000000 2432921.25000000 
0.06800    69509432.00000000 43818584.00000000 110375480.00000000 32494.52734375  2991384.00000000 2374050.25000000 
0.06900    68022832.00000000 42892992.00000000 108029568.00000000 31618.72460938  2918419.00000000 2316403.00000000 
0.07000    66563380.00000000 41983816.00000000 105725816.00000000 30764.82812500  2847018.50000000 2259969.25000000 
0.07100    65132380.00000000 41091552.00000000 103465528.00000000 29932.51171875  2777206.00000000 2204787.25000000 
0.07200    63729648.00000000 40217320.00000000 101250856.00000000 29122.08007812  2708986.75000000 2150851.50000000 
0.07300    62355152.00000000 39360232.00000000 99079504.00000000 28333.83007812  2642370.25000000 2098197.00000000 
0.07400    61009924.00000000 38520976.00000000 96954440.00000000 27566.96875000  2577365.75000000 2046790.75000000 
0.07500    59693720.00000000 37699860.00000000 94875200.00000000 26821.81445312  2513990.50000000 1996649.50000000 
0.07600    58406880.00000000 36896536.00000000 92841592.00000000 26098.06835938  2452216.25000000 1947789.87500000 
0.07700    57149948.00000000 36111680.00000000 90854880.00000000 25395.73242188  2392062.00000000 1900179.37500000 
0.07800    55922396.00000000 35345284.00000000 88914632.00000000 24714.37890625  2333503.75000000 1853854.00000000 
0.07900    54724268.00000000 34596672.00000000 87020672.00000000 24053.79296875  2276539.50000000 1808759.62500000 
0.08000    53555948.00000000 33866480.00000000 85173768.00000000 23413.74218750  2221152.50000000 1764915.00000000 
0.08100    52417068.00000000 33154586.00000000 83372416.00000000 22794.03710938  2167346.00000000 1722299.25000000 
0.08200    51307628.00000000 32460910.00000000 81618120.00000000 22194.09375000  2115066.00000000 1680907.25000000 
0.08300    50227500.00000000 31785172.00000000 79909440.00000000 21613.46875000  2064318.75000000 1640712.62500000 
0.08400    49176524.00000000 31127656.00000000 78245880.00000000 21052.11523438  2015080.37500000 1601709.00000000 
0.08500    48154056.00000000 30487924.00000000 76628712.00000000 20509.39062500  1967335.62500000 1563870.12500000 
0.08600    47160072.00000000 29865750.00000000 75056032.00000000 19984.63281250  1921033.12500000 1527194.25000000 
0.08700    46194332.00000000 29261168.00000000 73527504.00000000 19477.90429688  1876183.62500000 1491633.75000000 
0.08800    45256716.00000000 28673652.00000000 72042608.00000000 18988.33593750  1832719.37500000 1457177.37500000 
0.08900    44345732.00000000 28103226.00000000 70601488.00000000 18515.45507812  1790634.00000000 1423802.62500000 
0.09000    43462416.00000000 27549688.00000000 69202592.00000000 18059.12500000  1749883.12500000 1391482.50000000 
0.09100    42605272.00000000 27012546.00000000 67845032.00000000 17618.23242188  1710430.50000000 1360194.12500000 
0.09200    41774048.00000000 26491576.00000000 66528808.00000000 17192.68945312  1672257.37500000 1329908.00000000 
0.09300    40968316.00000000 25986426.00000000 65252712.00000000 16781.96484375  1635315.87500000 1300611.62500000 
0.09400    40187340.00000000 25496720.00000000 64015984.00000000 16385.22656250  1599577.00000000 1272240.37500000 
0.09500    39430776.00000000 25022402.00000000 62817652.00000000 16002.36718750  1565004.75000000 1244803.25000000 
0.09600    38698340.00000000 24562830.00000000 61656784.00000000 15632.50488281  1531552.37500000 1218257.50000000 
0.09700    37988788.00000000 24117704.00000000 60532908.00000000 15275.32421875  1499200.62500000 1192568.12500000 
0.09800    37301568.00000000 23686652.00000000 59444524.00000000 14930.13378906  1467889.25000000 1167708.00000000 
0.09900    36636528.00000000 23269396.00000000 58390400.00000000 14596.62304688  1437600.12500000 1143653.50000000 
0.10000    35992440.00000000 22865284.00000000 57370104.00000000 14273.97949219  1408278.75000000 1120369.00000000 
0.10100    35369268.00000000 22474192.00000000 56382444.00000000 13961.93554688  1379890.75000000 1097826.00000000 
0.10200    34765532.00000000 22095590.00000000 55426220.00000000 13659.88964844  1352403.12500000 1075995.50000000 
0.10300    34181404.00000000 21729108.00000000 54500740.00000000 13367.39746094  1325787.50000000 1054843.25000000 
0.10400    33616052.00000000 21374226.00000000 53604548.00000000 13083.88574219  1299985.25000000 1034346.25000000 
0.10500    33068318.00000000 21030716.00000000 52736988.00000000 12809.02246094  1274974.87500000 1014475.25000000 
0.10600    32537882.00000000 20697918.00000000 51896348.00000000 12542.25195312  1250713.25000000 995192.25000000 
0.10700    32023954.00000000 20375686.00000000 51082392.00000000 12283.14843750  1227162.00000000 976482.68750000 
0.10800    31526046.00000000 20063494.00000000 50293400.00000000 12031.38964844  1204294.75000000 958310.87500000 
0.10900    31043498.00000000 19760622.00000000 49528704.00000000 11786.36816406  1182073.87500000 940648.00000000 
0.11000    30575244.00000000 19467304.00000000 48787388.00000000 11547.76464844  1160462.87500000 923472.56250000 
0.11100    30121128.00000000 19182440.00000000 48068068.00000000 11315.23535156  1139423.87500000 906755.18750000 
0.11200    29680314.00000000 18906154.00000000 47369836.00000000 11088.51855469  1118939.87500000 890475.43750000 
0.11300    29251784.00000000 18637772.00000000 46691536.00000000 10866.93457031  1098967.62500000 874597.50000000 
0.11400    28835374.00000000 18377084.00000000 46032572.00000000 10650.57519531  1079480.12500000 859111.25000000 
0.11500    28430718.00000000 18123652.00000000 45391532.00000000 10438.78125000  1060453.75000000 843986.18750000 
0.11600    28036448.00000000 17877010.00000000 44767616.00000000 10231.51074219  1041859.18750000 829210.18750000 
0.11700    27652788.00000000 17636726.00000000 44160448.00000000 10028.38769531  1023670.75000000 814750.18750000 
0.11800    27278408.00000000 17402644.00000000 43568464.00000000 9829.05273438   1005858.50000000 800590.93750000 
0.11900    26913342.00000000 17174566.00000000 42990596.00000000 9633.35156250   988394.56250000 786717.25000000 
0.12000    26556636.00000000 16951594.00000000 42426784.00000000 9441.11328125   971259.25000000 773099.56250000 
0.12100    26208176.00000000 16733859.00000000 41875500.00000000 9252.04589844   954449.75000000 759737.56250000 
0.12200    25867174.00000000 16521002.00000000 41336268.00000000 9065.98046875   937917.56250000 746593.00000000 
0.12300    25533194.00000000 16312596.00000000 40808584.00000000 8882.73437500   921661.62500000 733672.81250000 
0.12400    25205956.00000000 16108241.00000000 40291196.00000000 8702.20507812   905653.37500000 720952.68750000 
0.12500    24884776.00000000 15907860.00000000 39783628.00000000 8524.15820312   889880.31250000 708415.81250000 
0.12600    24569460.00000000 15711203.00000000 39285240.00000000 8348.60253906   874331.62500000 696062.43750000 
0.12700    24259250.00000000 15517884.00000000 38795384.00000000 8175.31689453   858984.93750000 683862.31250000 
0.12800    23954058.00000000 15327663.00000000 38313404.00000000 8004.21826172   843830.37500000 671819.62500000 
0.12900    23653500.00000000 15140406.00000000 37838844.00000000 7835.28222656   828862.50000000 659915.81250000 
0.13000    23357126.00000000 14955761.00000000 37370592.00000000 7668.37060547   814059.56250000 648150.18750000 
0.13100    23064570.00000000 14773656.00000000 36908824.00000000 7503.37792969   799406.62500000 636506.93750000 
0.13200    22775708.00000000 14593787.00000000 36452892.00000000 7340.40380859   784916.81250000 624982.62500000 
0.13300    22490138.00000000 14415982.00000000 36002092.00000000 7179.25292969   770561.87500000 613574.56250000 
0.13400    22207640.00000000 14240105.00000000 35556068.00000000 7019.98583984   756342.12500000 602270.12500000 
0.13500    21927974.00000000 14065946.00000000 35114716.00000000 6862.58593750   742250.00000000 591065.37500000 
0.13600    21650854.00000000 13893387.00000000 34676852.00000000 6707.00195312   728287.00000000 579958.00000000 
0.13700    21375962.00000000 13722366.00000000 34243036.00000000 6553.26806641   714450.00000000 568947.25000000 
0.13800    21103290.00000000 13552612.00000000 33812756.00000000 6401.33154297   700717.25000000 558029.75000000 
0.13900    20832804.00000000 13384075.00000000 33385262.00000000 6251.27685547   687098.18750000 547193.31250000 
0.14000    20563830.00000000 13216713.00000000 32960924.00000000 6103.11181641   673598.31250000 536452.93750000 
0.14100    20296678.00000000 13050251.00000000 32538920.00000000 5956.79150391   660206.12500000 525794.68750000 
0.14200    20031128.00000000 12884748.00000000 32119594.00000000 5812.38574219   646922.12500000 515221.53125000 
0.14300    19767122.00000000 12720130.00000000 31702310.00000000 5669.94628906   633750.37500000 504738.62500000 
0.14400    19504136.00000000 12556214.00000000 31286948.00000000 5529.42529297   620683.06250000 494335.75000000 
0.14500    19242804.00000000 12393113.00000000 30874034.00000000 5390.98388672   607732.56250000 484022.90625000 
0.14600    18982438.00000000 12230775.00000000 30462732.00000000 5254.55712891   594893.93750000 473797.37500000 
0.14700    18723378.00000000 12068926.00000000 30053098.00000000 5120.24609375   582172.93750000 463662.12500000 
0.14800    18465370.00000000 11907791.00000000 29645022.00000000 4988.03369141   569565.56250000 453613.06250000 
0.14900    18208462.00000000 11747167.00000000 29238738.00000000 4857.98486328   557077.31250000 443661.59375000 
0.15000    17952638.00000000 11587186.00000000 28833760.00000000 4730.14599609   544709.93750000 433801.40625000 
0.15100    17697780.00000000 11427793.00000000 28430540.00000000 4604.53662109   532469.87500000 424042.34375000 
0.15200    17444166.00000000 11268950.00000000 28029094.00000000 4481.22412109   520354.71875000 414377.50000000 
0.15300    17191620.00000000 11110646.00000000 27629016.00000000 4360.21875000   508372.46875000 404823.50000000 
0.15400    16939944.00000000 10952879.00000000 27230402.00000000 4241.55566406   496526.12500000 395368.84375000 
0.15500    16689626.00000000 10795817.00000000 26833530.00000000 4125.27539062   484819.28125000 386024.09375000 
0.15600    16440230.00000000 10639191.00000000 26438386.00000000 4011.39062500   473253.00000000 376789.71875000 
0.15700    16192285.00000000 10483278.00000000 26044960.00000000 3899.96752930   461835.28125000 367668.96875000 
0.15800    15945331.00000000 10328035.00000000 25653278.00000000 3790.96337891   450563.46875000 358662.56250000 
0.15900    15699925.00000000 10173409.00000000 25263598.00000000 3684.47949219   439447.87500000 349782.21875000 
0.16000    15455635.00000000 10019507.00000000 24875682.00000000 3580.42407227   428481.96875000 341019.53125000 
0.16100    15212939.00000000 9866525.00000000 24490186.00000000 3478.91674805   417685.53125000 332386.43750000 
0.16200    14971615.00000000 9714147.00000000 24106716.00000000 3379.91894531   407045.15625000 323878.56250000 
0.16300    14731879.00000000 9562727.00000000 23725412.00000000 3283.42504883   396573.93750000 315500.34375000 
0.16400    14493724.00000000 9412170.00000000 23346668.00000000 3189.47558594   386271.65625000 307256.96875000 
0.16500    14257160.00000000 9262433.00000000 22970318.00000000 3098.02075195   376140.46875000 299147.62500000 
0.16600    14022396.00000000 9113738.00000000 22596522.00000000 3009.09521484   366182.34375000 291176.71875000 
0.16700    13789410.00000000 8966037.00000000 22225482.00000000 2922.63525391   356400.37500000 283343.87500000 
0.16800    13558362.00000000 8819418.00000000 21857078.00000000 2838.67309570   346795.46875000 275650.90625000 
0.16900    13329300.00000000 8673894.00000000 21492000.00000000 2757.20019531   337376.12500000 268101.84375000 
0.17000    13102176.00000000 8529530.00000000 21129744.00000000 2678.15747070   328135.65625000 260696.56250000 
