# SAXS profile: number of points = 501, q_min = 0, q_max = 0.5, delta_q = 0.001
#    q    intensity 
0.00000    162235968.00000000 101202072.00000000 256270800.00000000 103375.72656250 8190618.00000000 6468924.50000000 
0.00100    162210480.00000000 101185224.00000000 256228688.00000000 103353.11718750 8189009.00000000 6467684.50000000 
0.00200    162131840.00000000 101135752.00000000 256103536.00000000 103284.14843750 8184195.00000000 6463915.00000000 
0.00300    162000256.00000000 101053704.00000000 255895408.00000000 103169.32812500 8176180.00000000 6457610.50000000 
0.00400    161813504.00000000 100938528.00000000 255600368.00000000 103009.06250000 8164944.50000000 6448808.00000000 
0.00500    161572864.00000000 100790944.00000000 255223072.00000000 102803.39843750 8150551.00000000 6437501.00000000 
0.00600    161279728.00000000 100611056.00000000 254763888.00000000 102552.30468750 8132981.00000000 6423705.00000000 
0.00700    160932288.00000000 100397376.00000000 254219424.00000000 102256.24218750 8112290.50000000 6407443.50000000 
0.00800    160533488.00000000 100152376.00000000 253595408.00000000 101915.92187500 8088451.50000000 6388775.00000000 
0.00900    160080448.00000000 99876008.00000000 252889968.00000000 101531.96875000 8061554.00000000 6367621.00000000 
0.01000    159577200.00000000 99568272.00000000 252103152.00000000 101103.99218750 8031561.50000000 6344091.00000000 
0.01100    159023344.00000000 99229360.00000000 251237104.00000000 100633.49218750 7998549.00000000 6318187.50000000 
0.01200    158421408.00000000 98858944.00000000 250291184.00000000 100120.52343750 7962562.50000000 6289919.50000000 
0.01300    157769328.00000000 98458400.00000000 249267792.00000000 99565.76562500  7923638.50000000 6259347.50000000 
0.01400    157068528.00000000 98026920.00000000 248167760.00000000 98970.55468750  7881796.00000000 6226551.50000000 
0.01500    156318400.00000000 97566272.00000000 246992368.00000000 98334.78125000  7837108.00000000 6191489.50000000 
0.01600    155518960.00000000 97076120.00000000 245740880.00000000 97659.92968750  7789644.50000000 6154196.50000000 
0.01700    154674128.00000000 96557200.00000000 244417536.00000000 96946.18750000  7739446.00000000 6114780.00000000 
0.01800    153783440.00000000 96010344.00000000 243021200.00000000 96195.34375000  7686549.50000000 6073268.00000000 
0.01900    152848224.00000000 95435560.00000000 241554976.00000000 95407.96875000  7631030.50000000 6029680.00000000 
0.02000    151869088.00000000 94834272.00000000 240018448.00000000 94585.00000000  7572918.50000000 5984068.50000000 
0.02100    150846240.00000000 94205952.00000000 238416208.00000000 93727.22656250  7512368.00000000 5936490.00000000 
0.02200    149782048.00000000 93551464.00000000 236747232.00000000 92836.28906250  7449402.50000000 5887040.50000000 
0.02300    148675808.00000000 92871952.00000000 235012752.00000000 91912.37500000  7384040.00000000 5835768.00000000 
0.02400    147530880.00000000 92167824.00000000 233216720.00000000 90958.03125000  7316460.00000000 5782649.00000000 
0.02500    146346032.00000000 91440352.00000000 231359344.00000000 89973.60937500  7246642.50000000 5727821.00000000 
0.02600    145123680.00000000 90688888.00000000 229443664.00000000 88960.26562500  7174695.00000000 5671323.00000000 
0.02700    143866208.00000000 89915448.00000000 227469936.00000000 87919.07031250  7100735.00000000 5613222.00000000 
0.02800    142572624.00000000 89119400.00000000 225440880.00000000 86852.30468750  7024746.50000000 5553571.00000000 
0.02900    141244240.00000000 88303408.00000000 223358608.00000000 85760.17187500  6946999.50000000 5492454.00000000 
0.03000    139884112.00000000 87466816.00000000 221225152.00000000 84644.67187500  6867390.00000000 5429900.50000000 
0.03100    138493152.00000000 86610296.00000000 219041872.00000000 83506.78125000  6786066.00000000 5365997.00000000 
0.03200    137070672.00000000 85735104.00000000 216811920.00000000 82347.57031250  6703160.00000000 5300865.00000000 
0.03300    135620672.00000000 84842952.00000000 214536496.00000000 81168.57812500  6618703.50000000 5234496.50000000 
0.03400    134142896.00000000 83933144.00000000 212217104.00000000 79971.79687500  6532760.50000000 5166941.00000000 
0.03500    132639368.00000000 83007520.00000000 209857696.00000000 78757.42187500  6445494.50000000 5098375.50000000 
0.03600    131110936.00000000 82067016.00000000 207458832.00000000 77528.20312500  6356981.50000000 5028781.00000000 
0.03700    129559592.00000000 81111128.00000000 205023776.00000000 76284.40625000  6267277.00000000 4958258.00000000 
0.03800    127986064.00000000 80141456.00000000 202553440.00000000 75028.14062500  6176486.50000000 4886874.00000000 
0.03900    126392000.00000000 79159472.00000000 200050304.00000000 73759.58593750  6084733.50000000 4814731.00000000 
0.04000    124779168.00000000 78165480.00000000 197517840.00000000 72481.92187500  5991999.00000000 4741839.50000000 
0.04100    123148256.00000000 77160368.00000000 194957952.00000000 71195.58593750  5898579.50000000 4668303.50000000 
0.04200    121502512.00000000 76145632.00000000 192371680.00000000 69901.44531250  5804368.50000000 4594234.50000000 
0.04300    119840552.00000000 75121064.00000000 189762528.00000000 68601.10937500  5709537.00000000 4519660.00000000 
0.04400    118165568.00000000 74088184.00000000 187131904.00000000 67296.59375000  5614184.00000000 4444613.50000000 
0.04500    116479352.00000000 73047728.00000000 184481536.00000000 65988.56250000  5518376.50000000 4369244.00000000 
0.04600    114781864.00000000 72000576.00000000 181815584.00000000 64678.66796875  5422228.00000000 4293554.00000000 
0.04700    113075232.00000000 70947384.00000000 179133664.00000000 63367.78125000  5325766.00000000 4217656.50000000 
0.04800    111361096.00000000 69888880.00000000 176440704.00000000 62057.44531250  5229100.50000000 4141575.25000000 
0.04900    109640480.00000000 68826656.00000000 173735008.00000000 60748.79687500  5132346.50000000 4065405.50000000 
0.05000    107915136.00000000 67760296.00000000 171022896.00000000 59443.20703125  5035598.50000000 3989226.25000000 
0.05100    106185552.00000000 66691588.00000000 168303856.00000000 58141.42578125  4938898.50000000 3913088.50000000 
0.05200    104453576.00000000 65621176.00000000 165580736.00000000 56844.93359375  4842336.00000000 3837046.75000000 
0.05300    102721504.00000000 64550096.00000000 162856032.00000000 55554.98437500  4746015.00000000 3761165.75000000 
0.05400    100988536.00000000 63478476.00000000 160130304.00000000 54272.17187500  4649952.00000000 3685501.00000000 
0.05500    99257832.00000000 62407668.00000000 157407504.00000000 52997.94921875  4554300.00000000 3610121.00000000 
0.05600    97528896.00000000 61338128.00000000 154687424.00000000 51733.14843750  4459067.00000000 3535075.00000000 
0.05700    95804712.00000000 60270920.00000000 151973968.00000000 50479.12500000  4364376.00000000 3460437.00000000 
0.05800    94085464.00000000 59206680.00000000 149269088.00000000 49236.35937500  4270219.50000000 3386246.25000000 
0.05900    92372584.00000000 58145648.00000000 146571824.00000000 48005.98046875  4176754.25000000 3312560.75000000 
0.06000    90666728.00000000 57088940.00000000 143887040.00000000 46789.04296875  4083997.00000000 3239430.50000000 
0.06100    88969672.00000000 56037272.00000000 141213728.00000000 45585.91015625  3992044.50000000 3166895.00000000 
0.06200    87282784.00000000 54991224.00000000 138556624.00000000 44397.43750000  3900911.75000000 3095036.25000000 
0.06300    85606000.00000000 53951372.00000000 135915824.00000000 43224.85546875  3810708.50000000 3023845.50000000 
0.06400    83940704.00000000 52918184.00000000 133293712.00000000 42068.17187500  3721413.25000000 2953381.00000000 
0.06500    82287992.00000000 51892848.00000000 130690056.00000000 40928.88281250  3633146.00000000 2883718.50000000 
0.06600    80649464.00000000 50875316.00000000 128107000.00000000 39807.00390625  3545934.00000000 2814890.50000000 
0.06700    79024776.00000000 49866500.00000000 125546520.00000000 38703.44531250  3459828.25000000 2746890.00000000 
0.06800    77415320.00000000 48866772.00000000 123009992.00000000 37618.25781250  3374874.00000000 2679797.75000000 
0.06900    75822760.00000000 47877064.00000000 120498040.00000000 36552.67578125  3291098.25000000 2613645.25000000 
0.07000    74247136.00000000 46897268.00000000 118012904.00000000 35506.45703125  3208559.00000000 2548442.50000000 
0.07100    72688656.00000000 45928140.00000000 115554928.00000000 34480.42187500  3127298.50000000 2484208.25000000 
0.07200    71148640.00000000 44970200.00000000 113125944.00000000 33474.72265625  3047317.75000000 2421008.00000000 
0.07300    69629056.00000000 44024040.00000000 110726800.00000000 32490.00195312  2968694.00000000 2358860.00000000 
0.07400    68128360.00000000 43089600.00000000 108358376.00000000 31526.25390625  2891418.00000000 2297755.75000000 
0.07500    66647480.00000000 42167708.00000000 106021920.00000000 30583.88867188  2815543.00000000 2237749.50000000 
0.07600    65189012.00000000 41258472.00000000 103717688.00000000 29662.90039062  2741066.00000000 2178836.00000000 
0.07700    63751264.00000000 40362064.00000000 101447544.00000000 28763.97656250  2668053.25000000 2121084.50000000 
0.07800    62335784.00000000 39479476.00000000 99211600.00000000 27886.50195312  2596481.50000000 2064408.37500000 
0.07900    60942724.00000000 38610288.00000000 97011072.00000000 27031.10351562  2526370.75000000 2008915.87500000 
0.08000    59572728.00000000 37755072.00000000 94846000.00000000 26197.73437500  2457750.00000000 1954585.50000000 
0.08100    58226176.00000000 36914244.00000000 92717120.00000000 25386.38671875  2390610.75000000 1901427.25000000 
0.08200    56903028.00000000 36087660.00000000 90625768.00000000 24597.06250000  2324996.00000000 1849432.37500000 
0.08300    55603968.00000000 35275684.00000000 88571880.00000000 23829.57421875  2260877.75000000 1798635.12500000 
0.08400    54329184.00000000 34478668.00000000 86555392.00000000 23084.03710938  2198284.00000000 1749021.50000000 
0.08500    53079088.00000000 33696440.00000000 84577144.00000000 22360.31640625  2137194.50000000 1700596.00000000 
0.08600    51853568.00000000 32929358.00000000 82638368.00000000 21657.96289062  2077651.50000000 1653371.25000000 
0.08700    50653076.00000000 32177726.00000000 80738280.00000000 20977.30273438  2019597.75000000 1607323.37500000 
0.08800    49477284.00000000 31441144.00000000 78876760.00000000 20317.86718750  1963057.62500000 1562465.62500000 
0.08900    48326736.00000000 30720172.00000000 77054936.00000000 19679.43750000  1908037.37500000 1518794.87500000 
0.09000    47201720.00000000 30014450.00000000 75272416.00000000 19061.71484375  1854509.12500000 1476287.12500000 
0.09100    46101340.00000000 29324360.00000000 73529112.00000000 18464.50585938  1802458.00000000 1434964.37500000 
0.09200    45026472.00000000 28649530.00000000 71826128.00000000 17887.57031250  1751886.25000000 1394785.62500000 
0.09300    43976584.00000000 27990542.00000000 70162352.00000000 17330.42968750  1702780.87500000 1355762.12500000 
0.09400    42952200.00000000 27346846.00000000 68537520.00000000 16792.73828125  1655111.75000000 1317883.75000000 
0.09500    41952520.00000000 26718480.00000000 66952492.00000000 16274.44335938  1608869.87500000 1281120.50000000 
0.09600    40977824.00000000 26105630.00000000 65406496.00000000 15774.87011719  1564044.00000000 1245465.87500000 
0.09700    40027884.00000000 25508044.00000000 63899372.00000000 15293.69726562  1520611.25000000 1210910.00000000 
0.09800    39102788.00000000 24925626.00000000 62431368.00000000 14830.42773438  1478542.87500000 1177438.12500000 
0.09900    38202096.00000000 24358458.00000000 61001784.00000000 14384.91308594  1437827.87500000 1145026.62500000 
0.10000    37325260.00000000 23806060.00000000 59609336.00000000 13956.42382812  1398438.37500000 1113655.50000000 
0.10100    36472744.00000000 23268700.00000000 58255156.00000000 13544.65429688  1360335.75000000 1083316.75000000 
0.10200    35643788.00000000 22745728.00000000 56938768.00000000 13149.22460938  1323522.62500000 1053985.37500000 
0.10300    34838164.00000000 22237296.00000000 55658372.00000000 12769.46875000  1287954.87500000 1025628.87500000 
0.10400    34055512.00000000 21743342.00000000 54414788.00000000 12405.07519531  1253600.00000000 998250.37500000 
0.10500    33295832.00000000 21263660.00000000 53207552.00000000 12055.65429688  1220441.37500000 971806.37500000 
0.10600    32558622.00000000 20797644.00000000 52035156.00000000 11720.45019531  1188454.50000000 946286.00000000 
0.10700    31843304.00000000 20345448.00000000 50897436.00000000 11399.27050781  1157589.12500000 921657.75000000 
0.10800    31149926.00000000 19906752.00000000 49794240.00000000 11091.46289062  1127841.50000000 897904.68750000 
0.10900    30477836.00000000 19481390.00000000 48724624.00000000 10796.57714844  1099160.87500000 875007.93750000 
0.11000    29826542.00000000 19069116.00000000 47688060.00000000 10514.17675781  1071525.62500000 852941.50000000 
0.11100    29195744.00000000 18669602.00000000 46683812.00000000 10243.70019531  1044915.12500000 831670.31250000 
0.11200    28585166.00000000 18282508.00000000 45711580.00000000 9984.69921875   1019267.50000000 811182.93750000 
0.11300    27994092.00000000 17907792.00000000 44769928.00000000 9736.79199219   994590.06250000 791458.87500000 
0.11400    27422328.00000000 17545048.00000000 43858972.00000000 9499.53027344   970826.68750000 772452.31250000 
0.11500    26869186.00000000 17194050.00000000 42977644.00000000 9272.20996094   947952.81250000 754153.18750000 
0.11600    26334284.00000000 16854488.00000000 42125112.00000000 9054.55566406   925930.31250000 736539.56250000 
0.11700    25817212.00000000 16526104.00000000 41300748.00000000 8846.15429688   904738.68750000 719583.81250000 
0.11800    25317532.00000000 16208532.00000000 40504056.00000000 8646.37890625   884338.75000000 703247.56250000 
0.11900    24834504.00000000 15901543.00000000 39733632.00000000 8454.92968750   864700.81250000 687539.18750000 
0.12000    24367958.00000000 15604796.00000000 38989380.00000000 8271.40039062   845801.81250000 672403.31250000 
0.12100    23917236.00000000 15318115.00000000 38270520.00000000 8095.33496094   827603.25000000 657829.12500000 
0.12200    23482046.00000000 15041066.00000000 37575692.00000000 7926.30126953   810084.25000000 643796.43750000 
0.12300    23061648.00000000 14773451.00000000 36904812.00000000 7763.94580078   793203.00000000 630275.00000000 
0.12400    22655570.00000000 14514896.00000000 36256700.00000000 7607.82666016   776943.62500000 617240.81250000 
0.12500    22263508.00000000 14265066.00000000 35630744.00000000 7457.61181641   761259.81250000 604675.25000000 
0.12600    21884838.00000000 14023973.00000000 35026136.00000000 7312.98291016   746141.87500000 592565.87500000 
0.12700    21519196.00000000 13790825.00000000 34442000.00000000 7173.55029297   731553.12500000 580874.06250000 
0.12800    21165924.00000000 13565675.00000000 33877888.00000000 7038.91406250   717466.93750000 569589.93750000 
0.12900    20824758.00000000 13348169.00000000 33332900.00000000 6908.84472656   703864.18750000 558685.56250000 
0.13000    20494920.00000000 13137864.00000000 32806182.00000000 6782.97802734   690708.87500000 548151.68750000 
0.13100    20176174.00000000 12934631.00000000 32297042.00000000 6660.96875000   677988.25000000 537949.87500000 
0.13200    19868130.00000000 12738032.00000000 31804810.00000000 6542.72607422   665659.25000000 528077.87500000 
0.13300    19570258.00000000 12548090.00000000 31329030.00000000 6427.78564453   653722.68750000 518514.53125000 
0.13400    19282004.00000000 12364340.00000000 30868532.00000000 6315.94335938   642140.25000000 509236.31250000 
0.13500    19003070.00000000 12186371.00000000 30422808.00000000 6206.97314453   630888.12500000 500229.56250000 
0.13600    18732802.00000000 12013947.00000000 29991248.00000000 6100.66552734   619963.18750000 491475.78125000 
0.13700    18471032.00000000 11847065.00000000 29573062.00000000 5996.69531250   609322.43750000 482962.84375000 
0.13800    18217294.00000000 11685192.00000000 29167794.00000000 5894.96923828   598959.93750000 474667.84375000 
0.13900    17971032.00000000 11528232.00000000 28774348.00000000 5795.27343750   588855.00000000 466584.21875000 
0.14000    17731968.00000000 11375811.00000000 28392650.00000000 5697.38525391   578989.62500000 458692.71875000 
0.14100    17499854.00000000 11227817.00000000 28021662.00000000 5601.17236328   569346.93750000 450982.87500000 
0.14200    17273996.00000000 11083847.00000000 27661116.00000000 5506.50097656   559907.31250000 443440.25000000 
0.14300    17054134.00000000 10943910.00000000 27310344.00000000 5413.16845703   550661.81250000 436051.50000000 
0.14400    16839986.00000000 10807546.00000000 26968566.00000000 5321.06298828   541586.75000000 428803.09375000 
0.14500    16631359.00000000 10674671.00000000 26635404.00000000 5230.04394531   532674.75000000 421690.53125000 
0.14600    16427654.00000000 10545088.00000000 26310430.00000000 5140.08251953   523917.90625000 414698.56250000 
0.14700    16228720.00000000 10418531.00000000 25992978.00000000 5051.04199219   515290.37500000 407821.87500000 
0.14800    16034122.00000000 10294763.00000000 25682476.00000000 4962.76416016   506793.40625000 401044.00000000 
0.14900    15843617.00000000 10173666.00000000 25378914.00000000 4875.22802734   498407.34375000 394358.71875000 
0.15000    15656883.00000000 10055022.00000000 25081218.00000000 4788.40429688   490130.28125000 387759.90625000 
0.15100    15473736.00000000 9938642.00000000 24789390.00000000 4702.15917969   481946.15625000 381241.31250000 
0.15200    15293942.00000000 9824517.00000000 24502706.00000000 4616.54101562   473853.15625000 374798.56250000 
0.15300    15117136.00000000 9712295.00000000 24220876.00000000 4531.37988281   465835.50000000 368414.46875000 
0.15400    14942962.00000000 9601902.00000000 23943642.00000000 4446.68750000   457889.71875000 362091.00000000 
0.15500    14771522.00000000 9493216.00000000 23670648.00000000 4362.52294922   450011.00000000 355825.81250000 
0.15600    14602332.00000000 9385940.00000000 23401062.00000000 4278.74707031   442190.68750000 349606.59375000 
0.15700    14435374.00000000 9280175.00000000 23135314.00000000 4195.40527344   434427.56250000 343435.81250000 
0.15800    14270248.00000000 9175528.00000000 22872398.00000000 4112.49072266   426712.81250000 337302.93750000 
0.15900    14106906.00000000 9072201.00000000 22612450.00000000 4029.97216797   419046.65625000 331207.87500000 
0.16000    13945103.00000000 8969763.00000000 22355164.00000000 3947.89428711   411420.06250000 325151.25000000 
0.16100    13784896.00000000 8868401.00000000 22100280.00000000 3866.29833984   403837.87500000 319126.06250000 
0.16200    13625823.00000000 8767805.00000000 21847298.00000000 3785.10717773   396289.65625000 313131.06250000 
0.16300    13467946.00000000 8668035.00000000 21596176.00000000 3704.38500977   388774.50000000 307165.59375000 
0.16400    13311132.00000000 8568838.00000000 21346668.00000000 3624.15429688   381297.12500000 301229.59375000 
0.16500    13155055.00000000 8470222.00000000 21098590.00000000 3544.44775391   373852.00000000 295315.31250000 
0.16600    12999869.00000000 8372173.50000000 20852096.00000000 3465.32006836   366438.62500000 289431.56250000 
0.16700    12845352.00000000 8274540.50000000 20606336.00000000 3386.73852539   359054.15625000 283569.03125000 
0.16800    12691398.00000000 8177246.00000000 20361544.00000000 3308.75024414   351703.87500000 277733.75000000 
0.16900    12538022.00000000 8080383.50000000 20117682.00000000 3231.46337891   344385.68750000 271924.59375000 
0.17000    12385047.00000000 7983717.50000000 19874500.00000000 3154.83349609   337099.59375000 266141.09375000 
