# SAXS profile: number of points = 501, q_min = 0, q_max = 0.5, delta_q = 0.001
#    q    intensity 
0.00000    162234320.00000000 101201864.00000000 256270560.00000000 107519.68750000 8353216.00000000 6597317.50000000 
0.00100    162190208.00000000 101172472.00000000 256196720.00000000 107482.44531250 8350521.50000000 6595234.50000000 
0.00200    162054016.00000000 101086704.00000000 255977104.00000000 107371.86718750 8342533.00000000 6588942.00000000 
0.00300    161824336.00000000 100941848.00000000 255608992.00000000 107186.89843750 8329305.00000000 6578570.50000000 
0.00400    161495488.00000000 100740136.00000000 255094640.00000000 106928.73437500 8310745.00000000 6564023.00000000 
0.00500    161073728.00000000 100480416.00000000 254436736.00000000 106597.41406250 8287055.00000000 6545357.50000000 
0.00600    160562496.00000000 100164200.00000000 253632080.00000000 106194.64843750 8258143.50000000 6522646.00000000 
0.00700    159955696.00000000 99793608.00000000 252688256.00000000 105720.67187500 8224133.00000000 6495869.00000000 
0.00800    159263424.00000000 99368296.00000000 251604304.00000000 105177.91406250 8185140.50000000 6465220.00000000 
0.00900    158485520.00000000 98888888.00000000 250380384.00000000 104566.27343750 8141172.00000000 6430603.50000000 
0.01000    157624592.00000000 98355520.00000000 249022208.00000000 103887.75000000 8092408.00000000 6392320.50000000 
0.01100    156677504.00000000 97770032.00000000 247533024.00000000 103143.50000000 8038870.50000000 6350210.50000000 
0.01200    155643568.00000000 97133560.00000000 245910560.00000000 102336.64843750 7980761.50000000 6304522.00000000 
0.01300    154530688.00000000 96446824.00000000 244165168.00000000 101466.97656250 7918169.00000000 6255267.50000000 
0.01400    153341664.00000000 95712520.00000000 242295648.00000000 100539.14843750 7851218.50000000 6202668.00000000 
0.01500    152077984.00000000 94932200.00000000 240307888.00000000 99553.31250000  7780101.00000000 6146724.00000000 
0.01600    150738736.00000000 94105928.00000000 238204208.00000000 98512.63281250  7704914.00000000 6087604.50000000 
0.01700    149329744.00000000 93236152.00000000 235990256.00000000 97419.85937500  7625871.00000000 6025433.50000000 
0.01800    147853504.00000000 92324872.00000000 233670800.00000000 96276.72656250  7543186.50000000 5960337.50000000 
0.01900    146312304.00000000 91372856.00000000 231247152.00000000 95086.52343750  7456941.00000000 5892534.00000000 
0.02000    144708624.00000000 90383448.00000000 228729152.00000000 93850.87500000  7367275.50000000 5822019.00000000 
0.02100    143048320.00000000 89357320.00000000 226116336.00000000 92573.37500000  7274555.50000000 5749052.50000000 
0.02200    141330784.00000000 88296600.00000000 223417680.00000000 91256.63281250  7178822.00000000 5673746.50000000 
0.02300    139562240.00000000 87202776.00000000 220636192.00000000 89904.77343750  7080343.00000000 5596229.50000000 
0.02400    137744672.00000000 86079512.00000000 217778128.00000000 88518.26562500  6979276.00000000 5516728.00000000 
0.02500    135881984.00000000 84927320.00000000 214847952.00000000 87102.02343750  6875826.50000000 5435316.50000000 
0.02600    133975856.00000000 83749552.00000000 211852768.00000000 85658.27343750  6770294.00000000 5352215.00000000 
0.02700    132032256.00000000 82546712.00000000 208794624.00000000 84190.49218750  6662766.00000000 5267549.50000000 
0.02800    130053808.00000000 81323440.00000000 205682192.00000000 82700.28906250  6553446.50000000 5181494.00000000 
0.02900    128043264.00000000 80079584.00000000 202518992.00000000 81192.17187500  6442618.50000000 5094270.00000000 
0.03000    126005640.00000000 78817776.00000000 199312128.00000000 79668.34375000  6330428.00000000 5005934.50000000 
0.03100    123942320.00000000 77540192.00000000 196066272.00000000 78131.49218750  6217162.50000000 4916713.00000000 
0.03200    121858976.00000000 76250360.00000000 192787232.00000000 76585.49218750  6102925.50000000 4826691.50000000 
0.03300    119757928.00000000 74949528.00000000 189480448.00000000 75032.60937500  5987957.50000000 4736206.50000000 
0.03400    117642760.00000000 73640344.00000000 186150848.00000000 73475.05468750  5872497.00000000 4645200.50000000 
0.03500    115517376.00000000 72322776.00000000 182802544.00000000 71916.17187500  5756650.50000000 4553956.00000000 
0.03600    113384832.00000000 71000632.00000000 179445696.00000000 70358.46875000  5640700.00000000 4462577.50000000 
0.03700    111247912.00000000 69675384.00000000 176079376.00000000 68804.67968750  5524715.50000000 4371207.00000000 
0.03800    109110360.00000000 68348944.00000000 172712448.00000000 67256.05468750  5408995.00000000 4279979.00000000 
0.03900    106974896.00000000 67024456.00000000 169347568.00000000 65717.04687500  5293665.50000000 4189044.25000000 
0.04000    104845152.00000000 65702540.00000000 165992896.00000000 64187.51171875  5178896.50000000 4098564.50000000 
0.04100    102724280.00000000 64385500.00000000 162648992.00000000 62671.21875000  5064878.00000000 4008597.50000000 
0.04200    100614720.00000000 63075128.00000000 159323904.00000000 61170.32812500  4951650.50000000 3919365.00000000 
0.04300    98518544.00000000 61773160.00000000 156019648.00000000 59686.09765625  4839520.00000000 3830914.25000000 
0.04400    96440200.00000000 60481500.00000000 152741824.00000000 58220.64062500  4728525.00000000 3743359.00000000 
0.04500    94380216.00000000 59201308.00000000 149494144.00000000 56775.98437500  4618863.50000000 3656816.75000000 
0.04600    92343448.00000000 57934128.00000000 146280384.00000000 55352.99218750  4510636.50000000 3571383.25000000 
0.04700    90330000.00000000 56681812.00000000 143105024.00000000 53953.52343750  4403944.50000000 3487204.50000000 
0.04800    88342392.00000000 55445600.00000000 139970192.00000000 52578.67187500  4298924.00000000 3404267.50000000 
0.04900    86383616.00000000 54226364.00000000 136880480.00000000 51229.89453125  4195638.50000000 3322758.75000000 
0.05000    84456280.00000000 53025912.00000000 133837648.00000000 49908.69921875  4094155.00000000 3242668.00000000 
0.05100    82559880.00000000 51844424.00000000 130844872.00000000 48615.16796875  3994672.50000000 3164078.75000000 
0.05200    80697904.00000000 50684388.00000000 127905016.00000000 47350.63671875  3897193.75000000 3087082.50000000 
0.05300    78871200.00000000 49545980.00000000 125020536.00000000 46115.62109375  3801774.00000000 3011727.75000000 
0.05400    77081576.00000000 48429912.00000000 122194520.00000000 44911.24609375  3708508.50000000 2938057.75000000 
0.05500    75330256.00000000 47337508.00000000 119427704.00000000 43737.37500000  3617442.75000000 2866089.75000000 
0.05600    73617624.00000000 46268780.00000000 116721912.00000000 42594.12109375  3528614.75000000 2795887.00000000 
0.05700    71945640.00000000 45225868.00000000 114080136.00000000 41482.49609375  3442058.75000000 2727458.75000000 
0.05800    70314328.00000000 44207396.00000000 111502360.00000000 40402.39843750  3357788.75000000 2660860.25000000 
0.05900    68725440.00000000 43214804.00000000 108990624.00000000 39353.59765625  3275840.25000000 2596075.25000000 
0.06000    67178672.00000000 42248548.00000000 106545464.00000000 38336.16796875  3196218.00000000 2533120.00000000 
0.06100    65674468.00000000 41308868.00000000 104167384.00000000 37350.02734375  3118961.00000000 2472028.00000000 
0.06200    64213072.00000000 40395768.00000000 101857632.00000000 36395.27734375  3043972.50000000 2412735.75000000 
0.06300    62796360.00000000 39509840.00000000 99616744.00000000 35470.95312500  2971371.75000000 2355303.50000000 
0.06400    61422104.00000000 38650504.00000000 97443776.00000000 34576.46093750  2901058.00000000 2299670.75000000 
0.06500    60091656.00000000 37818292.00000000 95339072.00000000 33712.28515625  2833011.00000000 2245861.00000000 
0.06600    58804460.00000000 37013260.00000000 93303096.00000000 32877.09765625  2767265.25000000 2193835.75000000 
0.06700    57560048.00000000 36234792.00000000 91334248.00000000 32070.46484375  2703708.75000000 2143558.50000000 
0.06800    56359032.00000000 35482932.00000000 89434640.00000000 31291.78320312  2642368.00000000 2095018.50000000 
0.06900    55199932.00000000 34757392.00000000 87600592.00000000 30540.47460938  2583165.00000000 2048195.50000000 
0.07000    54082688.00000000 34058384.00000000 85832784.00000000 29815.73828125  2526062.75000000 2003020.00000000 
0.07100    53006096.00000000 33384954.00000000 84129840.00000000 29116.26367188  2471037.25000000 1959487.37500000 
0.07200    51970836.00000000 32736820.00000000 82491640.00000000 28441.89843750  2418010.50000000 1917507.37500000 
0.07300    50974672.00000000 32113598.00000000 80915216.00000000 27791.23242188  2366935.00000000 1877100.37500000 
0.07400    50017788.00000000 31514454.00000000 79400936.00000000 27163.74414062  2317725.50000000 1838147.37500000 
0.07500    49097800.00000000 30939286.00000000 77946096.00000000 26558.31445312  2270322.75000000 1800689.62500000 
0.07600    48215044.00000000 30387342.00000000 76549632.00000000 25973.92187500  2224680.25000000 1764574.25000000 
0.07700    47368476.00000000 29857816.00000000 75210544.00000000 25410.03125000  2180763.75000000 1729828.75000000 
0.07800    46556004.00000000 29350048.00000000 73926456.00000000 24865.35156250  2138444.50000000 1696363.75000000 
0.07900    45777944.00000000 28863712.00000000 72695816.00000000 24339.13671875  2097685.25000000 1664142.12500000 
0.08000    45031328.00000000 28397856.00000000 71516672.00000000 23830.30273438  2058413.75000000 1633076.12500000 
0.08100    44316620.00000000 27951530.00000000 70386272.00000000 23338.00390625  2020561.25000000 1603165.62500000 
0.08200    43631672.00000000 27524308.00000000 69304760.00000000 22861.65429688  1984056.25000000 1574305.50000000 
0.08300    42975628.00000000 27115466.00000000 68268352.00000000 22399.73242188  1948801.75000000 1546468.12500000 
0.08400    42346600.00000000 26723912.00000000 67276352.00000000 21951.93945312  1914791.00000000 1519579.37500000 
0.08500    41744248.00000000 26349176.00000000 66325892.00000000 21517.18554688  1881901.25000000 1493618.25000000 
0.08600    41166336.00000000 25990178.00000000 65414856.00000000 21094.85937500  1850082.75000000 1468495.37500000 
0.08700    40612252.00000000 25646336.00000000 64542124.00000000 20683.91406250  1819277.87500000 1444182.50000000 
0.08800    40080340.00000000 25316714.00000000 63704648.00000000 20283.66406250  1789404.87500000 1420608.62500000 
0.08900    39569772.00000000 25000420.00000000 62900996.00000000 19893.60546875  1760422.62500000 1397740.12500000 
0.09000    39078812.00000000 24697024.00000000 62129140.00000000 19512.93359375  1732264.50000000 1375539.00000000 
0.09100    38606884.00000000 24405500.00000000 61386960.00000000 19140.96875000  1704840.62500000 1353922.50000000 
0.09200    38151912.00000000 24124898.00000000 60671788.00000000 18776.96875000  1678124.87500000 1332863.37500000 
0.09300    37713260.00000000 23854760.00000000 59983420.00000000 18420.69531250  1652064.25000000 1312320.87500000 
0.09400    37289448.00000000 23594308.00000000 59319144.00000000 18071.46484375  1626596.00000000 1292261.00000000 
0.09500    36878864.00000000 23342794.00000000 58676376.00000000 17728.67968750  1601667.12500000 1272638.75000000 
0.09600    36481424.00000000 23099246.00000000 58054044.00000000 17391.97460938  1577232.87500000 1253390.75000000 
0.09700    36095780.00000000 22863360.00000000 57450556.00000000 17060.88476562  1553271.87500000 1234518.37500000 
0.09800    35720588.00000000 22634270.00000000 56864064.00000000 16735.15429688  1529709.37500000 1215971.75000000 
0.09900    35354896.00000000 22411314.00000000 56292936.00000000 16414.38671875  1506532.37500000 1197725.12500000 
0.10000    34997716.00000000 22194028.00000000 55735612.00000000 16098.06347656  1483677.25000000 1179736.62500000 
0.10100    34648052.00000000 21981480.00000000 55190244.00000000 15786.27929688  1461125.75000000 1161979.00000000 
0.10200    34305324.00000000 21773434.00000000 54656024.00000000 15478.58300781  1438843.75000000 1144444.25000000 
0.10300    33968516.00000000 21569486.00000000 54130784.00000000 15174.72753906  1416806.62500000 1127103.12500000 
0.10400    33636948.00000000 21368412.00000000 53614840.00000000 14874.56347656  1394988.87500000 1109923.62500000 
0.10500    33309906.00000000 21170574.00000000 53105680.00000000 14577.98925781  1373357.00000000 1092902.75000000 
0.10600    32986086.00000000 20974776.00000000 52601900.00000000 14284.83593750  1351916.25000000 1075994.12500000 
0.10700    32665690.00000000 20781150.00000000 52103532.00000000 13995.02050781  1330608.37500000 1059231.25000000 
0.10800    32347598.00000000 20589102.00000000 51608920.00000000 13708.46191406  1309448.87500000 1042565.81250000 
0.10900    32031252.00000000 20398082.00000000 51117124.00000000 13425.14062500  1288416.12500000 1025991.81250000 
0.11000    31716142.00000000 20207890.00000000 50627312.00000000 13144.86621094  1267489.50000000 1009501.81250000 
0.11100    31402236.00000000 20018318.00000000 50139460.00000000 12867.74414062  1246680.37500000 993090.00000000 
0.11200    31088726.00000000 19828826.00000000 49651840.00000000 12593.82031250  1225971.87500000 976755.56250000 
0.11300    30775400.00000000 19639514.00000000 49163816.00000000 12322.97265625  1205339.00000000 960478.50000000 
0.11400    30461404.00000000 19449782.00000000 48675988.00000000 12055.44726562  1184818.75000000 944281.75000000 
0.11500    30147322.00000000 19259598.00000000 48186760.00000000 11790.98828125  1164365.62500000 928136.00000000 
0.11600    29832184.00000000 19068832.00000000 47696088.00000000 11529.87109375  1144009.00000000 912051.75000000 
0.11700    29516008.00000000 18877258.00000000 47203548.00000000 11271.98437500  1123740.12500000 896036.62500000 
0.11800    29198692.00000000 18684718.00000000 46708820.00000000 11017.43261719  1103553.37500000 880071.68750000 
0.11900    28879920.00000000 18491204.00000000 46211572.00000000 10766.36621094  1083461.62500000 864182.56250000 
0.12000    28559762.00000000 18296500.00000000 45711984.00000000 10518.79296875  1063468.50000000 848356.37500000 
0.12100    28237832.00000000 18100484.00000000 45209308.00000000 10274.70898438  1043588.18750000 832607.50000000 
0.12200    27914554.00000000 17903534.00000000 44704228.00000000 10034.24804688  1023807.12500000 816936.93750000 
0.12300    27589636.00000000 17704992.00000000 44195868.00000000 9797.47949219   1004145.25000000 801355.75000000 
0.12400    27263238.00000000 17505256.00000000 43685448.00000000 9564.45898438   984606.87500000 785861.93750000 
0.12500    26935100.00000000 17304402.00000000 43171272.00000000 9335.20800781   965196.31250000 770456.06250000 
0.12600    26605590.00000000 17102186.00000000 42654528.00000000 9109.93554688   945942.25000000 755170.43750000 
0.12700    26274590.00000000 16898898.00000000 42135684.00000000 8888.36621094   926829.25000000 739986.37500000 
0.12800    25942168.00000000 16694206.00000000 41613892.00000000 8670.92187500   907873.50000000 724918.81250000 
0.12900    25608940.00000000 16488691.00000000 41090160.00000000 8457.46875000   889088.43750000 709980.31250000 
0.13000    25274244.00000000 16282039.00000000 40564108.00000000 8247.97656250   870476.18750000 695171.56250000 
0.13100    24938790.00000000 16074541.00000000 40036336.00000000 8042.57275391   852048.50000000 680506.56250000 
0.13200    24602852.00000000 15866335.00000000 39506908.00000000 7841.31152344   833816.43750000 665982.06250000 
0.13300    24266110.00000000 15657478.00000000 38976032.00000000 7644.14306641   815791.06250000 651618.62500000 
0.13400    23929122.00000000 15447949.00000000 38445084.00000000 7451.08349609   797974.93750000 637409.75000000 
0.13500    23592028.00000000 15237945.00000000 37912292.00000000 7262.24609375   780382.50000000 623375.50000000 
0.13600    23254872.00000000 15027710.00000000 37379944.00000000 7077.43994141   763007.18750000 609512.81250000 
0.13700    22918080.00000000 14817373.00000000 36846992.00000000 6896.78369141   745879.31250000 595839.62500000 
0.13800    22581658.00000000 14606701.00000000 36314368.00000000 6720.23437500   728984.06250000 582347.31250000 
0.13900    22245924.00000000 14396472.00000000 35782836.00000000 6547.79589844   712351.56250000 569044.25000000 
0.14000    21911236.00000000 14186281.00000000 35252288.00000000 6379.46923828   695965.12500000 555943.75000000 
0.14100    21577594.00000000 13976527.00000000 34723048.00000000 6215.12744141   679842.06250000 543052.25000000 
0.14200    21245246.00000000 13767291.00000000 34195596.00000000 6054.82812500   663984.06250000 530361.18750000 
0.14300    20914752.00000000 13558685.00000000 33670212.00000000 5898.46777344   648403.62500000 517886.53125000 
0.14400    20585628.00000000 13350950.00000000 33147160.00000000 5746.02099609   633087.12500000 505621.62500000 
0.14500    20258776.00000000 13144118.00000000 32627096.00000000 5597.47119141   618064.25000000 493581.59375000 
0.14600    19933962.00000000 12938420.00000000 32109772.00000000 5452.77978516   603314.18750000 481762.15625000 
0.14700    19611564.00000000 12733876.00000000 31596032.00000000 5311.82714844   588852.25000000 470166.65625000 
0.14800    19291660.00000000 12530663.00000000 31086012.00000000 5174.56250000   574670.93750000 458792.31250000 
0.14900    18974634.00000000 12328931.00000000 30580162.00000000 5041.01367188   560776.00000000 447649.56250000 
0.15000    18660582.00000000 12128774.00000000 30078612.00000000 4911.02392578   547184.31250000 436733.31250000 
0.15100    18349438.00000000 11930390.00000000 29581482.00000000 4784.60644531   533876.18750000 426047.34375000 
0.15200    18041752.00000000 11733757.00000000 29089548.00000000 4661.66308594   520858.81250000 415592.21875000 
0.15300    17737362.00000000 11539152.00000000 28602610.00000000 4542.13134766   508126.68750000 405368.28125000 
0.15400    17436516.00000000 11346402.00000000 28121082.00000000 4425.94287109   495681.18750000 395363.37500000 
0.15500    17139382.00000000 11155930.00000000 27645146.00000000 4312.99609375   483526.78125000 385594.71875000 
0.15600    16846162.00000000 10967584.00000000 27174852.00000000 4203.28955078   471653.12500000 376046.40625000 
0.15700    16556815.00000000 10781521.00000000 26710850.00000000 4096.81640625   460063.96875000 366730.43750000 
0.15800    16271414.00000000 10597784.00000000 26252618.00000000 3993.32641602   448754.21875000 357631.03125000 
0.15900    15990100.00000000 10416517.00000000 25800944.00000000 3892.90869141   437724.62500000 348756.06250000 
0.16000    15712923.00000000 10237743.00000000 25355582.00000000 3795.46289062   426964.81250000 340093.18750000 
0.16100    15440129.00000000 10061545.00000000 24917098.00000000 3700.92846680   416477.71875000 331654.71875000 
0.16200    15171532.00000000 9888043.00000000 24485190.00000000 3609.21337891   406262.28125000 323427.46875000 
0.16300    14907290.00000000 9716995.00000000 24060020.00000000 3520.29272461   396302.53125000 315407.68750000 
0.16400    14647527.00000000 9548780.00000000 23641836.00000000 3434.10791016   386605.68750000 307597.15625000 
0.16500    14392212.00000000 9383139.00000000 23230632.00000000 3350.60839844   377159.62500000 299988.50000000 
0.16600    14141259.00000000 9220232.00000000 22826156.00000000 3269.70922852   367964.12500000 292577.25000000 
0.16700    13894902.00000000 9060162.00000000 22428772.00000000 3191.32836914   359012.59375000 285360.56250000 
0.16800    13652826.00000000 8902830.00000000 22038374.00000000 3115.47241211   350296.56250000 278337.81250000 
0.16900    13415323.00000000 8748283.00000000 21655278.00000000 3042.06127930   341822.31250000 271503.31250000 
0.17000    13182297.00000000 8596411.00000000 21279126.00000000 2971.02099609   333574.03125000 264853.06250000 
