# SAXS profile: number of points = 501, q_min = 0, q_max = 0.5, delta_q = 0.001
#    q    intensity 
0.00000    162236864.00000000 101202064.00000000 256271904.00000000 98155.07812500  7981120.00000000 6303466.00000000 
0.00100    162202608.00000000 101179536.00000000 256214048.00000000 98129.35156250  7979171.00000000 6301937.50000000 
0.00200    162096928.00000000 101113056.00000000 256045520.00000000 98050.75000000  7973336.50000000 6297348.50000000 
0.00300    161918304.00000000 101001712.00000000 255764480.00000000 97920.68750000  7963604.50000000 6289670.00000000 
0.00400    161667184.00000000 100847616.00000000 255369264.00000000 97738.56250000  7949978.00000000 6278958.50000000 
0.00500    161344496.00000000 100648120.00000000 254863968.00000000 97505.63281250  7932482.00000000 6265259.00000000 
0.00600    160950208.00000000 100404312.00000000 254244624.00000000 97221.06250000  7911205.50000000 6248461.00000000 
0.00700    160488640.00000000 100118504.00000000 253517344.00000000 96886.85156250  7886125.00000000 6228732.50000000 
0.00800    159954432.00000000 99789768.00000000 252681168.00000000 96501.93750000  7857279.00000000 6206050.50000000 
0.00900    159352896.00000000 99419320.00000000 251736784.00000000 96068.42968750  7824791.00000000 6180473.50000000 
0.01000    158684896.00000000 99006712.00000000 250686960.00000000 95586.14843750  7788619.50000000 6152038.00000000 
0.01100    157950992.00000000 98553120.00000000 249532128.00000000 95056.10156250  7748833.00000000 6120736.00000000 
0.01200    157152640.00000000 98058744.00000000 248274352.00000000 94479.41406250  7705569.00000000 6086669.00000000 
0.01300    156287984.00000000 97524648.00000000 246915600.00000000 93857.18750000  7658849.00000000 6049902.50000000 
0.01400    155359904.00000000 96952296.00000000 245457328.00000000 93190.20312500  7608692.00000000 6010474.00000000 
0.01500    154369712.00000000 96339880.00000000 243902448.00000000 92479.55468750  7555319.50000000 5968465.00000000 
0.01600    153321136.00000000 95691984.00000000 242253600.00000000 91727.19531250  7498678.00000000 5923912.50000000 
0.01700    152214288.00000000 95007624.00000000 240511856.00000000 90933.60156250  7438963.00000000 5876920.00000000 
0.01800    151049936.00000000 94288352.00000000 238681312.00000000 90099.85937500  7376188.50000000 5827531.50000000 
0.01900    149831088.00000000 93535048.00000000 236764848.00000000 89228.35156250  7310507.50000000 5775848.00000000 
0.02000    148558608.00000000 92748320.00000000 234763520.00000000 88320.11718750  7241981.50000000 5721919.00000000 
0.02100    147234688.00000000 91929264.00000000 232681584.00000000 87375.78906250  7170734.00000000 5665829.50000000 
0.02200    145859440.00000000 91080320.00000000 230521152.00000000 86398.43750000  7096879.50000000 5607732.50000000 
0.02300    144438464.00000000 90200688.00000000 228285408.00000000 85389.35156250  7020549.00000000 5547642.00000000 
0.02400    142972208.00000000 89294896.00000000 225978864.00000000 84349.22656250  6941816.50000000 5485711.50000000 
0.02500    141462656.00000000 88360464.00000000 223601856.00000000 83280.30468750  6860856.50000000 5421973.50000000 
0.02600    139909184.00000000 87400216.00000000 221160592.00000000 82184.08593750  6777725.00000000 5356525.00000000 
0.02700    138318512.00000000 86416528.00000000 218658768.00000000 81062.47656250  6692606.00000000 5289544.50000000 
0.02800    136690544.00000000 85409520.00000000 216097104.00000000 79916.77343750  6605594.00000000 5221059.00000000 
0.02900    135026992.00000000 84380672.00000000 213481136.00000000 78749.53125000  6516774.00000000 5151115.50000000 
0.03000    133330704.00000000 83331504.00000000 210814272.00000000 77562.20312500  6426353.50000000 5079926.50000000 
0.03100    131605488.00000000 82264048.00000000 208099024.00000000 76355.82031250  6334398.50000000 5007560.50000000 
0.03200    129851048.00000000 81178184.00000000 205338256.00000000 75133.58593750  6241079.00000000 4934053.50000000 
0.03300    128071128.00000000 80076456.00000000 202539056.00000000 73896.50000000  6146517.50000000 4859636.50000000 
0.03400    126268632.00000000 78961152.00000000 199702384.00000000 72645.98437500  6050808.50000000 4784243.00000000 
0.03500    124444680.00000000 77831896.00000000 196830896.00000000 71384.18750000  5954132.50000000 4708117.00000000 
0.03600    122601360.00000000 76690504.00000000 193931744.00000000 70112.49218750  5856569.50000000 4631289.50000000 
0.03700    120742312.00000000 75539024.00000000 191005488.00000000 68833.60156250  5758282.00000000 4553851.50000000 
0.03800    118868800.00000000 74378768.00000000 188055104.00000000 67547.78906250  5659407.50000000 4475997.00000000 
0.03900    116983104.00000000 73211432.00000000 185088704.00000000 66258.50781250  5560021.00000000 4397714.00000000 
0.04000    115087264.00000000 72037832.00000000 182104352.00000000 64966.10937500  5460280.50000000 4319142.50000000 
0.04100    113184936.00000000 70859504.00000000 179110096.00000000 63672.52734375  5360302.50000000 4240364.50000000 
0.04200    111276824.00000000 69677056.00000000 176104160.00000000 62379.47265625  5260148.00000000 4161479.75000000 
0.04300    109365552.00000000 68492424.00000000 173095008.00000000 61088.47265625  5160017.00000000 4082589.00000000 
0.04400    107453696.00000000 67306984.00000000 170085664.00000000 59800.64453125  5060012.50000000 4003779.00000000 
0.04500    105542208.00000000 66122320.00000000 167075376.00000000 58518.22265625  4960216.50000000 3925145.00000000 
0.04600    103633992.00000000 64939460.00000000 164071024.00000000 57241.67187500  4860754.50000000 3846751.75000000 
0.04700    101731064.00000000 63759544.00000000 161073872.00000000 55973.29687500  4761713.50000000 3768706.00000000 
0.04800    99835472.00000000 62583596.00000000 158087568.00000000 54714.29296875  4663199.00000000 3691062.50000000 
0.04900    97948168.00000000 61413072.00000000 155115504.00000000 53464.75000000  4565364.00000000 3613938.00000000 
0.05000    96071336.00000000 60248772.00000000 152158192.00000000 52227.46875000  4468213.00000000 3537347.50000000 
0.05100    94207728.00000000 59092312.00000000 149222592.00000000 51002.76953125  4371888.00000000 3461410.50000000 
0.05200    92357312.00000000 57944340.00000000 146306976.00000000 49791.83203125  4276460.00000000 3386181.25000000 
0.05300    90523160.00000000 56806108.00000000 143416208.00000000 48596.03515625  4182019.75000000 3311733.50000000 
0.05400    88705992.00000000 55677940.00000000 140553136.00000000 47415.52734375  4088691.00000000 3238095.75000000 
0.05500    86908152.00000000 54561336.00000000 137718480.00000000 46251.90234375  3996456.75000000 3165367.75000000 
0.05600    85130256.00000000 53457124.00000000 134917120.00000000 45105.83984375  3905438.25000000 3093560.00000000 
0.05700    83373352.00000000 52366268.00000000 132148792.00000000 43978.32031250  3815716.75000000 3022784.75000000 
0.05800    81639624.00000000 51289180.00000000 129415520.00000000 42869.49218750  3727314.50000000 2953070.25000000 
0.05900    79929752.00000000 50226864.00000000 126719904.00000000 41780.84765625  3640290.00000000 2884428.50000000 
0.06000    78245056.00000000 49180064.00000000 124063608.00000000 40712.38281250  3554728.50000000 2816910.25000000 
0.06100    76586288.00000000 48148684.00000000 121448096.00000000 39664.50390625  3470672.25000000 2750575.25000000 
0.06200    74954784.00000000 47134744.00000000 118875912.00000000 38638.28515625  3388138.50000000 2685440.25000000 
0.06300    73350880.00000000 46137944.00000000 116346376.00000000 37633.40234375  3307193.00000000 2621556.00000000 
0.06400    71776584.00000000 45158320.00000000 113863008.00000000 36650.69921875  3227856.75000000 2558917.00000000 
0.06500    70231264.00000000 44197004.00000000 111425576.00000000 35690.26953125  3150146.50000000 2497601.25000000 
0.06600    68716368.00000000 43254652.00000000 109035424.00000000 34752.37500000  3074096.50000000 2437574.00000000 
0.06700    67231560.00000000 42331036.00000000 106693520.00000000 33837.42968750  2999731.25000000 2378837.00000000 
0.06800    65778436.00000000 41426812.00000000 104400712.00000000 32944.88671875  2927098.75000000 2321477.75000000 
0.06900    64357032.00000000 40541852.00000000 102157400.00000000 32075.51757812  2856151.25000000 2265487.50000000 
0.07000    62967448.00000000 39676860.00000000 99964360.00000000 31228.92968750  2786951.00000000 2210817.50000000 
0.07100    61609892.00000000 38831676.00000000 97822384.00000000 30405.27148438  2719463.50000000 2157515.50000000 
0.07200    60285136.00000000 38006500.00000000 95731528.00000000 29604.11523438  2653732.75000000 2105561.25000000 
0.07300    58992816.00000000 37201812.00000000 93691544.00000000 28825.63867188  2589714.50000000 2054998.37500000 
0.07400    57733340.00000000 36417280.00000000 91703440.00000000 28069.64453125  2527422.75000000 2005788.12500000 
0.07500    56506520.00000000 35652912.00000000 89766680.00000000 27335.58007812  2466832.25000000 1957920.25000000 
0.07600    55312088.00000000 34908932.00000000 87880744.00000000 26623.72460938  2407966.75000000 1911393.87500000 
0.07700    54150620.00000000 34184708.00000000 86046640.00000000 25933.14843750  2350739.50000000 1866191.25000000 
0.07800    53021104.00000000 33480590.00000000 84263048.00000000 25264.18164062  2295236.50000000 1822293.12500000 
0.07900    51923676.00000000 32796590.00000000 82529856.00000000 24615.79687500  2241346.50000000 1779710.87500000 
0.08000    50858188.00000000 32132148.00000000 80847152.00000000 23988.15820312  2189102.25000000 1738389.62500000 
0.08100    49823872.00000000 31487264.00000000 79214208.00000000 23380.35156250  2138448.75000000 1698342.25000000 
0.08200    48820888.00000000 30861918.00000000 77629528.00000000 22792.12109375  2089327.50000000 1659518.25000000 
0.08300    47848480.00000000 30255446.00000000 76093744.00000000 22223.04101562  2041768.37500000 1621914.12500000 
0.08400    46906040.00000000 29667644.00000000 74604776.00000000 21672.58593750  1995724.37500000 1585480.50000000 
0.08500    45993280.00000000 29098436.00000000 73162880.00000000 21140.24804688  1951133.12500000 1550216.12500000 
0.08600    45109524.00000000 28547228.00000000 71767368.00000000 20625.35156250  1907989.12500000 1516075.50000000 
0.08700    44254504.00000000 28013706.00000000 70415704.00000000 20127.65625000  1866218.12500000 1483035.37500000 
0.08800    43426964.00000000 27497618.00000000 69109000.00000000 19646.45507812  1825811.00000000 1451077.00000000 
0.08900    42626532.00000000 26998328.00000000 67844768.00000000 19180.97851562  1786708.00000000 1420141.00000000 
0.09000    41852584.00000000 26515524.00000000 66621656.00000000 18730.88281250  1748886.00000000 1390222.12500000 
0.09100    41104512.00000000 26048962.00000000 65440208.00000000 18295.61132812  1712290.87500000 1361268.00000000 
0.09200    40381432.00000000 25597764.00000000 64297872.00000000 17874.56054688  1676895.25000000 1333247.12500000 
0.09300    39682636.00000000 25161870.00000000 63193860.00000000 17467.20703125  1642658.50000000 1306143.62500000 
0.09400    39007084.00000000 24740710.00000000 62126404.00000000 17072.84960938  1609513.00000000 1279907.37500000 
0.09500    38354184.00000000 24333508.00000000 61095496.00000000 16690.88281250  1577418.62500000 1254501.37500000 
0.09600    37723452.00000000 23940026.00000000 60099052.00000000 16320.93945312  1546346.62500000 1229910.25000000 
0.09700    37113820.00000000 23560056.00000000 59135816.00000000 15962.45996094  1516248.87500000 1206087.25000000 
0.09800    36524256.00000000 23192580.00000000 58205192.00000000 15614.87304688  1487089.12500000 1182992.62500000 
0.09900    35954480.00000000 22837206.00000000 57304968.00000000 15277.67187500  1458811.37500000 1160607.37500000 
0.10000    35403100.00000000 22493698.00000000 56434384.00000000 14950.09765625  1431384.12500000 1138883.87500000 
0.10100    34869716.00000000 22161298.00000000 55591556.00000000 14632.03027344  1404756.50000000 1117796.37500000 
0.10200    34352872.00000000 21839512.00000000 54776480.00000000 14322.65039062  1378904.12500000 1097316.37500000 
0.10300    33852784.00000000 21527938.00000000 53986588.00000000 14021.73242188  1353759.37500000 1077400.87500000 
0.10400    33367800.00000000 21226234.00000000 53221724.00000000 13728.74804688  1329306.37500000 1058033.75000000 
0.10500    32897672.00000000 20933548.00000000 52479480.00000000 13443.15722656  1305519.75000000 1039190.87500000 
0.10600    32441686.00000000 20649754.00000000 51759756.00000000 13164.69628906  1282322.62500000 1020809.06250000 
0.10700    31998432.00000000 20374042.00000000 51060588.00000000 12892.83984375  1259702.00000000 1002891.43750000 
0.10800    31567692.00000000 20106114.00000000 50381156.00000000 12627.22949219  1237627.12500000 985394.18750000 
0.10900    31148860.00000000 19845590.00000000 49720024.00000000 12367.59960938  1216055.62500000 968299.75000000 
0.11000    30740662.00000000 19591966.00000000 49076080.00000000 12113.55664062  1194952.87500000 951581.50000000 
0.11100    30342842.00000000 19344748.00000000 48448856.00000000 11864.80761719  1174319.75000000 935210.50000000 
0.11200    29954614.00000000 19103434.00000000 47836756.00000000 11620.86718750  1154083.75000000 919169.68750000 
0.11300    29575222.00000000 18867956.00000000 47238632.00000000 11381.67773438  1134228.50000000 903437.18750000 
0.11400    29204516.00000000 18637564.00000000 46653552.00000000 11146.98144531  1114757.00000000 887986.18750000 
0.11500    28841140.00000000 18412168.00000000 46081320.00000000 10916.33984375  1095603.87500000 872796.18750000 
0.11600    28485224.00000000 18190912.00000000 45520072.00000000 10689.78320312  1076766.12500000 857854.31250000 
0.11700    28135646.00000000 17974164.00000000 44969124.00000000 10466.97949219  1058230.37500000 843147.50000000 
0.11800    27792390.00000000 17761074.00000000 44427740.00000000 10247.59375000  1039959.43750000 828648.00000000 
0.11900    27454514.00000000 17551546.00000000 43895284.00000000 10031.73046875  1021942.62500000 814347.50000000 
0.12000    27121634.00000000 17344982.00000000 43371100.00000000 9818.95898438   1004155.81250000 800225.25000000 
0.12100    26793820.00000000 17141524.00000000 42853796.00000000 9609.45214844   986597.93750000 786283.50000000 
0.12200    26469816.00000000 16940510.00000000 42343592.00000000 9402.90625000   969239.18750000 772498.12500000 
0.12300    26149736.00000000 16741948.00000000 41838972.00000000 9199.32128906   952070.50000000 758857.62500000 
0.12400    25833040.00000000 16545462.00000000 41339972.00000000 8998.42578125   935083.12500000 745359.81250000 
0.12500    25519642.00000000 16350784.00000000 40845820.00000000 8800.35742188   918254.25000000 731990.00000000 
0.12600    25208976.00000000 16158018.00000000 40356072.00000000 8605.03027344   901603.68750000 718753.06250000 
0.12700    24900878.00000000 15966531.00000000 39870100.00000000 8412.20312500   885096.68750000 705625.93750000 
0.12800    24594812.00000000 15776570.00000000 39387916.00000000 8222.09179688   868734.93750000 692614.75000000 
0.12900    24290758.00000000 15587737.00000000 38908424.00000000 8034.55810547   852515.31250000 679711.06250000 
0.13000    23988558.00000000 15399805.00000000 38431436.00000000 7849.57812500   836431.12500000 666906.56250000 
0.13100    23687862.00000000 15213017.00000000 37957028.00000000 7667.11572266   820473.81250000 654202.31250000 
0.13200    23388710.00000000 15026858.00000000 37485216.00000000 7487.22363281   804645.00000000 641599.06250000 
0.13300    23090602.00000000 14841441.00000000 37014704.00000000 7309.89550781   788945.68750000 629096.25000000 
0.13400    22793654.00000000 14656511.00000000 36545896.00000000 7135.21533203   773367.12500000 616683.50000000 
0.13500    22497774.00000000 14472166.00000000 36078544.00000000 6963.11230469   757914.18750000 604370.00000000 
0.13600    22202946.00000000 14288358.00000000 35612632.00000000 6793.60498047   742596.75000000 592152.93750000 
0.13700    21908842.00000000 14104940.00000000 35147900.00000000 6626.84130859   727396.31250000 580033.62500000 
0.13800    21615418.00000000 13921867.00000000 34683960.00000000 6462.66357422   712329.62500000 568012.12500000 
0.13900    21322936.00000000 13739120.00000000 34221600.00000000 6301.21337891   697393.87500000 556095.06250000 
0.14000    21031140.00000000 13556809.00000000 33759812.00000000 6142.63769531   682588.93750000 544280.62500000 
0.14100    20739980.00000000 13374753.00000000 33299220.00000000 5986.79931641   667927.56250000 532569.62500000 
0.14200    20449748.00000000 13193093.00000000 32839792.00000000 5833.79199219   653405.18750000 520967.62500000 
0.14300    20160180.00000000 13011739.00000000 32381436.00000000 5683.66552734   639035.18750000 509482.34375000 
0.14400    19871492.00000000 12830711.00000000 31923944.00000000 5536.40136719   624801.18750000 498106.71875000 
0.14500    19583604.00000000 12650152.00000000 31467886.00000000 5392.07958984   610729.43750000 486853.68750000 
0.14600    19296696.00000000 12470055.00000000 31013100.00000000 5250.75439453   596819.93750000 475725.90625000 
0.14700    19010634.00000000 12290332.00000000 30559452.00000000 5112.42285156   583068.00000000 464725.00000000 
0.14800    18725718.00000000 12111232.00000000 30107294.00000000 4977.06982422   569481.18750000 453848.90625000 
0.14900    18441956.00000000 11932618.00000000 29656992.00000000 4844.73730469   556069.25000000 443115.09375000 
0.15000    18159340.00000000 11754641.00000000 29208104.00000000 4715.47851562   542833.18750000 432512.18750000 
0.15100    17878172.00000000 11577289.00000000 28761598.00000000 4589.25732422   529780.00000000 422054.09375000 
0.15200    17598352.00000000 11400796.00000000 28317002.00000000 4466.15429688   516916.71875000 411743.59375000 
0.15300    17320126.00000000 11225045.00000000 27874284.00000000 4346.10546875   504240.40625000 401586.31250000 
0.15400    17043298.00000000 11050057.00000000 27434256.00000000 4229.10693359   491760.09375000 391574.93750000 
0.15500    16768409.00000000 10876204.00000000 26996706.00000000 4115.24658203   479476.25000000 381721.50000000 
0.15600    16495375.00000000 10703296.00000000 26561998.00000000 4004.36499023   467393.00000000 372027.75000000 
0.15700    16224249.00000000 10531447.00000000 26130344.00000000 3896.57397461   455521.46875000 362496.31250000 
0.15800    15955014.00000000 10360730.00000000 25701318.00000000 3791.80029297   443855.03125000 353127.40625000 
0.15900    15688111.00000000 10191265.00000000 25275886.00000000 3690.02856445   432396.90625000 343930.40625000 
0.16000    15423399.00000000 10023068.00000000 24853794.00000000 3591.23437500   421156.21875000 334900.53125000 
0.16100    15161107.00000000 9856302.00000000 24435502.00000000 3495.42431641   410131.53125000 326041.65625000 
0.16200    14901382.00000000 9690978.00000000 24020888.00000000 3402.47949219   399322.40625000 317356.50000000 
0.16300    14644119.00000000 9527084.00000000 23610068.00000000 3312.38354492   388735.12500000 308843.93750000 
0.16400    14389604.00000000 9364823.00000000 23203578.00000000 3225.14062500   378368.03125000 300509.31250000 
0.16500    14137854.00000000 9204124.00000000 22801300.00000000 3140.64819336   368222.87500000 292347.06250000 
0.16600    13888997.00000000 9045135.00000000 22403294.00000000 3058.90429688   358300.46875000 284365.93750000 
0.16700    13642934.00000000 8887948.00000000 22009920.00000000 2979.77978516   348596.71875000 276557.96875000 
0.16800    13399965.00000000 8732432.00000000 21621134.00000000 2903.23559570   339111.93750000 268927.50000000 
0.16900    13160168.00000000 8578874.00000000 21237458.00000000 2829.30737305   329856.90625000 261474.00000000 
0.17000    12923552.00000000 8427226.00000000 20858394.00000000 2757.84399414   320815.03125000 254195.71875000 
