# SAXS profile: number of points = 501, q_min = 0, q_max = 0.5, delta_q = 0.001
#    q    intensity 
0.00000    162235024.00000000 101201648.00000000 256271056.00000000 107930.43750000 8369111.50000000 6609905.50000000 
0.00100    162201040.00000000 101179368.00000000 256214320.00000000 107900.22656250 8367015.50000000 6608239.00000000 
0.00200    162095488.00000000 101112552.00000000 256046016.00000000 107810.09375000 8360703.00000000 6603277.50000000 
0.00300    161919024.00000000 101000480.00000000 255760880.00000000 107660.28125000 8350126.50000000 6594988.50000000 
0.00400    161666288.00000000 100844960.00000000 255364784.00000000 107451.18750000 8335393.50000000 6583352.00000000 
0.00500    161341648.00000000 100644944.00000000 254855616.00000000 107182.63281250 8316503.00000000 6568487.00000000 
0.00600    160944528.00000000 100399600.00000000 254232656.00000000 106855.10156250 8293453.00000000 6550309.50000000 
0.00700    160482016.00000000 100111664.00000000 253501568.00000000 106470.18750000 8266298.00000000 6528952.50000000 
0.00800    159941440.00000000 99781360.00000000 252661488.00000000 106027.58593750 8235112.00000000 6504396.00000000 
0.00900    159337152.00000000 99409032.00000000 251712912.00000000 105529.31250000 8199943.50000000 6476709.50000000 
0.01000    158665920.00000000 98994816.00000000 250656784.00000000 104973.90625000 8160814.50000000 6445891.50000000 
0.01100    157929568.00000000 98538768.00000000 249496096.00000000 104364.90625000 8117804.50000000 6412082.50000000 
0.01200    157128048.00000000 98041024.00000000 248231920.00000000 103702.42187500 8071048.00000000 6375263.00000000 
0.01300    156259312.00000000 97503944.00000000 246865968.00000000 102987.60156250 8020550.00000000 6335469.00000000 
0.01400    155325328.00000000 96927736.00000000 245400880.00000000 102222.40625000 7966388.50000000 6292869.50000000 
0.01500    154332336.00000000 96312704.00000000 243839328.00000000 101406.59375000 7908684.50000000 6247451.50000000 
0.01600    153279328.00000000 95661608.00000000 242182400.00000000 100543.75000000 7847546.50000000 6199274.50000000 
0.01700    152167984.00000000 94974104.00000000 240432816.00000000 99633.71093750  7783128.00000000 6148542.00000000 
0.01800    150999136.00000000 94250984.00000000 238593968.00000000 98678.32031250  7715403.50000000 6095227.50000000 
0.01900    149774576.00000000 93493480.00000000 236667792.00000000 97680.61718750  7644570.00000000 6039440.50000000 
0.02000    148497392.00000000 92703248.00000000 234657472.00000000 96641.17968750  7570701.50000000 5981279.50000000 
0.02100    147168672.00000000 91880736.00000000 232567504.00000000 95561.96093750  7493948.50000000 5920812.50000000 
0.02200    145789632.00000000 91028016.00000000 230398320.00000000 94444.17187500  7414399.00000000 5858199.50000000 
0.02300    144363184.00000000 90145800.00000000 228155360.00000000 93291.28125000  7332287.50000000 5793478.00000000 
0.02400    142891840.00000000 89234624.00000000 225839056.00000000 92103.91406250  7247585.50000000 5726794.50000000 
0.02500    141375360.00000000 88296792.00000000 223453632.00000000 90885.32031250  7160505.00000000 5658201.00000000 
0.02600    139819600.00000000 87333048.00000000 221004752.00000000 89636.59375000  7071200.00000000 5587850.00000000 
0.02700    138223408.00000000 86344808.00000000 218493936.00000000 88358.97656250  6979748.00000000 5515863.50000000 
0.02800    136591344.00000000 85333936.00000000 215923456.00000000 87055.88281250  6886350.50000000 5442253.00000000 
0.02900    134924304.00000000 84301048.00000000 213300128.00000000 85729.57812500  6791083.50000000 5367209.00000000 
0.03000    133225008.00000000 83247848.00000000 210624464.00000000 84381.15625000  6694173.00000000 5290833.50000000 
0.03100    131494832.00000000 82176376.00000000 207901376.00000000 83013.72656250  6595685.50000000 5213271.00000000 
0.03200    129737560.00000000 81087656.00000000 205135072.00000000 81628.08593750  6495785.00000000 5134561.50000000 
0.03300    127955272.00000000 79982832.00000000 202328592.00000000 80227.00781250  6394639.00000000 5054852.50000000 
0.03400    126149392.00000000 78863920.00000000 199485504.00000000 78813.49218750  6292333.00000000 4974234.50000000 
0.03500    124322400.00000000 77731576.00000000 196608688.00000000 77387.76562500  6189071.00000000 4892832.50000000 
0.03600    122477304.00000000 76587408.00000000 193702448.00000000 75953.41406250  6084931.00000000 4810782.50000000 
0.03700    120615936.00000000 75434088.00000000 190771664.00000000 74511.60937500  5980105.00000000 4728161.50000000 
0.03800    118740576.00000000 74271152.00000000 187818624.00000000 73065.13281250  5874718.00000000 4645114.50000000 
0.03900    116853704.00000000 73101200.00000000 184846432.00000000 71614.89843750  5768890.00000000 4561735.00000000 
0.04000    114957392.00000000 71925024.00000000 181857776.00000000 70163.50000000  5662773.50000000 4478048.00000000 
0.04100    113054880.00000000 70743856.00000000 178860992.00000000 68713.04687500  5556509.00000000 4394283.00000000 
0.04200    111145776.00000000 69559184.00000000 175853344.00000000 67264.14843750  5450168.00000000 4310454.00000000 
0.04300    109234776.00000000 68372296.00000000 172841584.00000000 65820.46093750  5343923.00000000 4226659.00000000 
0.04400    107322904.00000000 67185536.00000000 169828912.00000000 64381.41796875  5237864.50000000 4143049.00000000 
0.04500    105412560.00000000 65999320.00000000 166817712.00000000 62950.81640625  5132179.50000000 4059694.25000000 
0.04600    103505712.00000000 64815316.00000000 163813248.00000000 61528.95703125  5026910.50000000 3976677.75000000 
0.04700    101603400.00000000 63633840.00000000 160814192.00000000 60117.69921875  4922198.50000000 3894104.50000000 
0.04800    99709608.00000000 62456628.00000000 157828192.00000000 58718.75781250  4818150.50000000 3812014.75000000 
0.04900    97824344.00000000 61285296.00000000 154856384.00000000 57333.37890625  4714862.00000000 3730577.25000000 
0.05000    95950504.00000000 60120456.00000000 151899776.00000000 55962.77734375  4612447.50000000 3649775.75000000 
0.05100    94088576.00000000 58963356.00000000 148964192.00000000 54608.51562500  4511018.00000000 3569758.25000000 
0.05200    92241424.00000000 57814656.00000000 146050208.00000000 53271.32421875  4410617.00000000 3490530.75000000 
0.05300    90409480.00000000 56675532.00000000 143162176.00000000 51952.67187500  4311326.00000000 3412226.25000000 
0.05400    88595960.00000000 55547212.00000000 140300768.00000000 50653.66015625  4213303.00000000 3334862.25000000 
0.05500    86800976.00000000 54430320.00000000 137468880.00000000 49375.07031250  4116576.50000000 3258504.25000000 
0.05600    85025504.00000000 53325720.00000000 134669120.00000000 48117.37109375  4021190.75000000 3183232.25000000 
0.05700    83272312.00000000 52234772.00000000 131903256.00000000 46882.58593750  3927244.50000000 3109086.00000000 
0.05800    81542032.00000000 51157288.00000000 129173448.00000000 45669.98828125  3834802.00000000 3036115.75000000 
0.05900    79835608.00000000 50095364.00000000 126479280.00000000 44481.19921875  3743893.25000000 2964367.25000000 
0.06000    78154352.00000000 49048268.00000000 123825920.00000000 43316.75781250  3654576.75000000 2893855.25000000 
0.06100    76498616.00000000 48017516.00000000 121213656.00000000 42176.69140625  3566913.25000000 2824644.00000000 
0.06200    74870944.00000000 47002976.00000000 118643520.00000000 41061.70703125  3480964.25000000 2756765.00000000 
0.06300    73270256.00000000 46006148.00000000 116117344.00000000 39972.25390625  3396727.75000000 2690246.00000000 
0.06400    71699752.00000000 45026708.00000000 113636136.00000000 38908.58593750  3314248.25000000 2625119.75000000 
0.06500    70157440.00000000 44065604.00000000 111201096.00000000 37870.82031250  3233536.75000000 2561395.50000000 
0.06600    68645296.00000000 43122988.00000000 108813464.00000000 36859.32812500  3154660.50000000 2499067.75000000 
0.06700    67163312.00000000 42199396.00000000 106473128.00000000 35873.76953125  3077596.75000000 2438195.50000000 
0.06800    65712912.00000000 41295036.00000000 104182448.00000000 34914.24609375  3002374.75000000 2378762.75000000 
0.06900    64293500.00000000 40409776.00000000 101941296.00000000 33981.26562500  2929001.00000000 2320788.75000000 
0.07000    62906688.00000000 39544512.00000000 99749584.00000000 33074.38281250  2857460.25000000 2264285.50000000 
0.07100    61550808.00000000 38699152.00000000 97608688.00000000 32193.18945312  2787787.50000000 2209235.25000000 
0.07200    60227724.00000000 37873352.00000000 95518312.00000000 31338.22265625  2719946.25000000 2155636.50000000 
0.07300    58936648.00000000 37067900.00000000 93478416.00000000 30508.58398438  2653981.50000000 2103496.25000000 
0.07400    57678188.00000000 36282500.00000000 91490584.00000000 29704.00195312  2589809.00000000 2052787.00000000 
0.07500    56452468.00000000 35517132.00000000 89553136.00000000 28924.48437500  2527456.25000000 2003518.87500000 
0.07600    55257996.00000000 34772024.00000000 87666808.00000000 28169.50976562  2466927.50000000 1955668.75000000 
0.07700    54096584.00000000 34046844.00000000 85830928.00000000 27438.48046875  2408176.25000000 1909227.00000000 
0.07800    52966660.00000000 33341794.00000000 84045744.00000000 26731.00976562  2351164.00000000 1864140.87500000 
0.07900    51868788.00000000 32656474.00000000 82310712.00000000 26046.78906250  2295857.00000000 1820464.12500000 
0.08000    50802164.00000000 31990962.00000000 80625040.00000000 25385.11718750  2242270.75000000 1778100.62500000 
0.08100    49766788.00000000 31344384.00000000 78988816.00000000 24745.68554688  2190357.00000000 1737044.00000000 
0.08200    48762148.00000000 30717454.00000000 77401384.00000000 24127.52539062  2140070.25000000 1697289.50000000 
0.08300    47787644.00000000 30109334.00000000 75861696.00000000 23530.35742188  2091381.50000000 1658794.00000000 
0.08400    46842800.00000000 29519596.00000000 74369440.00000000 22953.50585938  2044267.25000000 1621535.37500000 
0.08500    45927064.00000000 28948430.00000000 72922712.00000000 22396.25390625  1998659.37500000 1585471.75000000 
0.08600    45040472.00000000 28395222.00000000 71521704.00000000 21858.01953125  1954532.00000000 1550577.87500000 
0.08700    44182040.00000000 27859588.00000000 70166008.00000000 21338.37109375  1911845.25000000 1516817.37500000 
0.08800    43350776.00000000 27341314.00000000 68852752.00000000 20836.41796875  1870543.00000000 1484164.87500000 
0.08900    42546760.00000000 26840058.00000000 67582328.00000000 20351.46484375  1830603.25000000 1452578.62500000 
0.09000    41768868.00000000 26354944.00000000 66353992.00000000 19882.91992188  1791954.87500000 1422024.37500000 
0.09100    41016076.00000000 25885994.00000000 65165524.00000000 19430.10742188  1754596.62500000 1392463.00000000 
0.09200    40288352.00000000 25432612.00000000 64016420.00000000 18992.54687500  1718417.12500000 1363861.50000000 
0.09300    39585040.00000000 24994462.00000000 62906340.00000000 18569.39257812  1683431.12500000 1336188.00000000 
0.09400    38904456.00000000 24570758.00000000 61831968.00000000 18160.08203125  1649553.75000000 1309398.12500000 
0.09500    38246300.00000000 24161596.00000000 60794044.00000000 17763.78710938  1616771.37500000 1283471.12500000 
0.09600    37610436.00000000 23765948.00000000 59790772.00000000 17380.25585938  1584997.00000000 1258344.37500000 
0.09700    36995516.00000000 23383502.00000000 58820556.00000000 17008.70898438  1554228.50000000 1234017.25000000 
0.09800    36400760.00000000 23014040.00000000 57883284.00000000 16648.42578125  1524402.37500000 1210422.25000000 
0.09900    35825344.00000000 22656792.00000000 56976400.00000000 16299.07519531  1495468.75000000 1187530.87500000 
0.10000    35268844.00000000 22311398.00000000 56099048.00000000 15959.70800781  1467398.87500000 1165336.00000000 
0.10100    34730276.00000000 21977000.00000000 55249964.00000000 15630.13281250  1440129.12500000 1143762.00000000 
0.10200    34208668.00000000 21653772.00000000 54428468.00000000 15309.85351562  1413625.12500000 1122814.12500000 
0.10300    33703516.00000000 21340874.00000000 53633132.00000000 14998.02636719  1387862.12500000 1102425.00000000 
0.10400    33213930.00000000 21037674.00000000 52862524.00000000 14694.44140625  1362785.00000000 1082592.12500000 
0.10500    32739138.00000000 20744082.00000000 52115372.00000000 14398.58105469  1338366.75000000 1063266.62500000 
0.10600    32278596.00000000 20459170.00000000 51390724.00000000 14109.89257812  1314548.87500000 1044425.62500000 
0.10700    31831302.00000000 20182754.00000000 50687276.00000000 13828.13085938  1291320.87500000 1026055.75000000 
0.10800    31396606.00000000 19914524.00000000 50004280.00000000 13552.65722656  1268630.62500000 1008105.18750000 
0.10900    30973944.00000000 19653670.00000000 49340064.00000000 13283.39257812  1246446.12500000 990555.75000000 
0.11000    30562672.00000000 19400346.00000000 48693784.00000000 13019.73144531  1224740.12500000 973388.50000000 
0.11100    30161886.00000000 19153318.00000000 48064220.00000000 12761.32226562  1203492.37500000 956572.12500000 
0.11200    29771192.00000000 18912572.00000000 47451024.00000000 12508.17089844  1182654.00000000 940082.56250000 
0.11300    29389748.00000000 18678010.00000000 46852300.00000000 12259.51464844  1162224.50000000 923899.43750000 
0.11400    29017086.00000000 18448768.00000000 46267520.00000000 12015.54003906  1142140.87500000 908015.43750000 
0.11500    28652706.00000000 18225018.00000000 45695916.00000000 11775.73730469  1122416.62500000 892397.81250000 
0.11600    28295882.00000000 18005882.00000000 45136432.00000000 11539.97558594  1103010.75000000 877027.81250000 
0.11700    27946072.00000000 17790960.00000000 44587896.00000000 11307.98437500  1083891.75000000 861898.87500000 
0.11800    27602800.00000000 17580356.00000000 44049600.00000000 11079.55078125  1065051.25000000 846976.62500000 
0.11900    27265698.00000000 17373378.00000000 43521288.00000000 10854.59277344  1046482.62500000 832261.93750000 
0.12000    26933860.00000000 17170032.00000000 43001148.00000000 10632.84667969  1028143.06250000 817741.50000000 
0.12100    26607706.00000000 16969964.00000000 42489876.00000000 10414.25000000  1010045.00000000 803401.00000000 
0.12200    26285898.00000000 16772873.00000000 41986236.00000000 10198.80078125  992156.25000000 789219.43750000 
0.12300    25968434.00000000 16578196.00000000 41488792.00000000 9986.12792969   974473.56250000 775199.87500000 
0.12400    25655104.00000000 16386070.00000000 40998064.00000000 9776.30371094   956968.18750000 761327.68750000 
0.12500    25345238.00000000 16196171.00000000 40512136.00000000 9569.23730469   939655.25000000 747585.50000000 
0.12600    25038928.00000000 16008242.00000000 40032276.00000000 9364.95996094   922508.87500000 733991.81250000 
0.12700    24735300.00000000 15822107.00000000 39556868.00000000 9163.15722656   905526.06250000 720513.62500000 
0.12800    24434428.00000000 15637664.00000000 39085268.00000000 8964.03417969   888699.12500000 707161.18750000 
0.12900    24136168.00000000 15454632.00000000 38617584.00000000 8767.44628906   872026.56250000 693923.18750000 
0.13000    23839864.00000000 15272824.00000000 38153080.00000000 8573.41406250   855495.31250000 680797.18750000 
0.13100    23545748.00000000 15092168.00000000 37691748.00000000 8381.81542969   839106.31250000 667781.25000000 
0.13200    23253384.00000000 14912567.00000000 37233128.00000000 8192.80957031   822858.43750000 654876.75000000 
0.13300    22962748.00000000 14733732.00000000 36776704.00000000 8006.27880859   806750.43750000 642075.18750000 
0.13400    22673568.00000000 14555807.00000000 36322656.00000000 7822.33105469   790776.87500000 629373.81250000 
0.13500    22385614.00000000 14378530.00000000 35870920.00000000 7640.84277344   774941.75000000 616783.81250000 
0.13600    22098948.00000000 14201802.00000000 35420304.00000000 7461.94091797   759240.00000000 604297.93750000 
0.13700    21813340.00000000 14025769.00000000 34971552.00000000 7285.56982422   743672.18750000 591917.12500000 
0.13800    21528818.00000000 13850109.00000000 34524552.00000000 7111.77636719   728248.62500000 579644.68750000 
0.13900    21245146.00000000 13674931.00000000 34078472.00000000 6940.55029297   712963.68750000 567480.43750000 
0.14000    20962614.00000000 13500166.00000000 33633592.00000000 6771.97949219   697816.25000000 555421.18750000 
0.14100    20680960.00000000 13325689.00000000 33190138.00000000 6606.08398438   682821.56250000 543479.62500000 
0.14200    20400014.00000000 13151649.00000000 32747652.00000000 6442.81835938   667964.43750000 531644.81250000 
0.14300    20120146.00000000 12977915.00000000 32306520.00000000 6282.29052734   653265.43750000 519933.71875000 
0.14400    19840722.00000000 12804450.00000000 31865968.00000000 6124.40478516   638709.25000000 508336.40625000 
0.14500    19562446.00000000 12631464.00000000 31427100.00000000 5969.27929688   624324.37500000 496867.18750000 
0.14600    19285132.00000000 12458797.00000000 30989174.00000000 5816.95019531   610089.25000000 485521.65625000 
0.14700    19008576.00000000 12286491.00000000 30552382.00000000 5667.36132812   596026.93750000 474307.90625000 
0.14800    18732972.00000000 12114569.00000000 30116784.00000000 5520.59130859   582128.68750000 463220.03125000 
0.14900    18458354.00000000 11942967.00000000 29682538.00000000 5376.57617188   568398.37500000 452265.81250000 
0.15000    18184652.00000000 11771870.00000000 29249816.00000000 5235.41357422   554848.81250000 441453.68750000 
0.15100    17912380.00000000 11601339.00000000 28818402.00000000 5097.11132812   541475.18750000 430779.93750000 
0.15200    17641024.00000000 11431290.00000000 28388728.00000000 4961.62597656   528286.50000000 420255.50000000 
0.15300    17370894.00000000 11261825.00000000 27960906.00000000 4828.94384766   515284.00000000 409871.59375000 
0.15400    17102186.00000000 11092881.00000000 27534492.00000000 4699.06982422   502470.40625000 399638.46875000 
0.15500    16834726.00000000 10924718.00000000 27110342.00000000 4572.08789062   489851.15625000 389557.46875000 
0.15600    16568810.00000000 10757251.00000000 26688128.00000000 4447.88330078   477418.68750000 379627.81250000 
0.15700    16304381.00000000 10590466.00000000 26268238.00000000 4326.53125000   465195.43750000 369861.18750000 
0.15800    16041623.00000000 10424603.00000000 25850318.00000000 4207.92578125   453163.87500000 360248.65625000 
0.15900    15780545.00000000 10259688.00000000 25435362.00000000 4092.10400391   441338.59375000 350798.06250000 
0.16000    15521188.00000000 10095571.00000000 25022718.00000000 3979.08032227   429719.87500000 341506.06250000 
0.16100    15263909.00000000 9932549.00000000 24613094.00000000 3868.79101562   418305.50000000 332385.53125000 
0.16200    15008479.00000000 9770573.00000000 24206178.00000000 3761.21020508   407098.84375000 323424.96875000 
0.16300    14754994.00000000 9609664.00000000 23802382.00000000 3656.32446289   396103.21875000 314632.12500000 
0.16400    14503774.00000000 9450014.00000000 23401580.00000000 3554.09765625   385320.25000000 306008.31250000 
0.16500    14254785.00000000 9291497.00000000 23004310.00000000 3454.51318359   374743.71875000 297551.46875000 
0.16600    14007998.00000000 9134337.00000000 22610526.00000000 3357.52099609   364380.37500000 289263.87500000 
0.16700    13763449.00000000 8978498.00000000 22219926.00000000 3263.04882812   354224.25000000 281143.56250000 
0.16800    13521496.00000000 8823979.00000000 21833242.00000000 3171.12939453   344284.71875000 273189.56250000 
0.16900    13281984.00000000 8670958.00000000 21450462.00000000 3081.70605469   334555.65625000 265409.03125000 
0.17000    13045051.00000000 8519451.00000000 21071550.00000000 2994.72436523   325038.31250000 257795.26562500 
