# SAXS profile: number of points = 501, q_min = 0, q_max = 0.5, delta_q = 0.001
#    q    intensity 
0.00000    162235312.00000000 101201528.00000000 256271504.00000000 94833.58593750  7844911.50000000 6195912.00000000 
0.00100    162203632.00000000 101180808.00000000 256218448.00000000 94808.85937500  7843086.00000000 6194445.50000000 
0.00200    162105040.00000000 101117712.00000000 256057344.00000000 94733.67968750  7837500.00000000 6190075.50000000 
0.00300    161936192.00000000 101012232.00000000 255790464.00000000 94609.72656250  7828245.50000000 6182747.50000000 
0.00400    161698400.00000000 100864744.00000000 255416128.00000000 94435.75781250  7815270.00000000 6172580.00000000 
0.00500    161392832.00000000 100675912.00000000 254936048.00000000 94212.78125000  7798684.50000000 6159485.50000000 
0.00600    161018832.00000000 100444960.00000000 254349104.00000000 93940.88281250  7778426.50000000 6143556.00000000 
0.00700    160580592.00000000 100173808.00000000 253660208.00000000 93621.56250000  7754576.00000000 6124782.00000000 
0.00800    160073568.00000000 99861296.00000000 252867008.00000000 93254.00781250  7727167.50000000 6103179.50000000 
0.00900    159504544.00000000 99509344.00000000 251972704.00000000 92839.58593750  7696271.00000000 6078850.00000000 
0.01000    158872704.00000000 99118120.00000000 250975776.00000000 92378.92187500  7661868.00000000 6051758.00000000 
0.01100    158178272.00000000 98687704.00000000 249880976.00000000 91873.60156250  7624062.50000000 6022045.00000000 
0.01200    157421568.00000000 98218640.00000000 248688432.00000000 91323.33593750  7582947.00000000 5989649.50000000 
0.01300    156601936.00000000 97711024.00000000 247399888.00000000 90730.06250000  7538579.50000000 5954709.50000000 
0.01400    155723136.00000000 97166600.00000000 246018944.00000000 90094.09375000  7490942.50000000 5917208.50000000 
0.01500    154787392.00000000 96586696.00000000 244544656.00000000 89417.07031250  7440293.00000000 5877299.50000000 
0.01600    153793744.00000000 95972272.00000000 242981648.00000000 88700.77343750  7386487.50000000 5834920.00000000 
0.01700    152746512.00000000 95323120.00000000 241331584.00000000 87944.93750000  7329810.50000000 5790297.00000000 
0.01800    151644208.00000000 94640424.00000000 239595024.00000000 87151.38281250  7270269.50000000 5743398.00000000 
0.01900    150488944.00000000 93924568.00000000 237779808.00000000 86323.09375000  7207972.00000000 5694278.50000000 
0.02000    149284976.00000000 93178344.00000000 235882448.00000000 85459.60937500  7143002.50000000 5643146.00000000 
0.02100    148031152.00000000 92401824.00000000 233908208.00000000 84563.17968750  7075459.00000000 5589932.50000000 
0.02200    146730048.00000000 91595232.00000000 231860224.00000000 83635.60937500  7005474.00000000 5534861.50000000 
0.02300    145385072.00000000 90761384.00000000 229743040.00000000 82677.73437500  6933138.50000000 5477828.50000000 
0.02400    143996816.00000000 89901464.00000000 227554064.00000000 81691.85156250  6858616.00000000 5419114.00000000 
0.02500    142565440.00000000 89014616.00000000 225302144.00000000 80679.26562500  6781951.50000000 5358701.50000000 
0.02600    141097824.00000000 88103456.00000000 222989488.00000000 79641.45312500  6703256.50000000 5296737.50000000 
0.02700    139590480.00000000 87169088.00000000 220618432.00000000 78580.80468750  6622726.50000000 5233293.00000000 
0.02800    138049680.00000000 86214176.00000000 218189776.00000000 77498.12500000  6540414.00000000 5168430.50000000 
0.02900    136476800.00000000 85237400.00000000 215709760.00000000 76395.75781250  6456469.00000000 5102257.00000000 
0.03000    134870672.00000000 84240656.00000000 213181584.00000000 75275.17968750  6370982.00000000 5034904.50000000 
0.03100    133236432.00000000 83227720.00000000 210607712.00000000 74138.17968750  6284149.00000000 4966435.50000000 
0.03200    131575976.00000000 82197096.00000000 207991776.00000000 72985.77343750  6195969.00000000 4896983.00000000 
0.03300    129890576.00000000 81151704.00000000 205335888.00000000 71821.25000000  6106705.50000000 4826586.50000000 
0.03400    128183264.00000000 80092040.00000000 202645456.00000000 70644.61718750  6016414.50000000 4755400.00000000 
0.03500    126456112.00000000 79019600.00000000 199922880.00000000 69458.83593750  5925149.00000000 4683469.00000000 
0.03600    124710088.00000000 77934624.00000000 197171232.00000000 68264.86718750  5833135.50000000 4610951.00000000 
0.03700    122948632.00000000 76841112.00000000 194395184.00000000 67064.37500000  5740456.50000000 4537862.00000000 
0.03800    121173424.00000000 75739104.00000000 191598272.00000000 65859.74218750  5647196.50000000 4464344.00000000 
0.03900    119386240.00000000 74629144.00000000 188780336.00000000 64651.54296875  5553556.00000000 4390486.00000000 
0.04000    117589096.00000000 73512328.00000000 185947040.00000000 63441.36718750  5459560.00000000 4316338.00000000 
0.04100    115785440.00000000 72390736.00000000 183103264.00000000 62231.70703125  5365357.00000000 4242082.00000000 
0.04200    113975368.00000000 71265824.00000000 180248336.00000000 61022.87890625  5271076.00000000 4167656.25000000 
0.04300    112161616.00000000 70137888.00000000 177388736.00000000 59816.91406250  5176796.50000000 4093286.00000000 
0.04400    110345664.00000000 69009288.00000000 174525232.00000000 58614.95703125  5082594.50000000 4018981.50000000 
0.04500    108531232.00000000 67880584.00000000 171662704.00000000 57418.82421875  4988638.50000000 3944862.25000000 
0.04600    106717816.00000000 66752928.00000000 168802784.00000000 56229.41406250  4894986.00000000 3870988.00000000 
0.04700    104908376.00000000 65626900.00000000 165948688.00000000 55047.66015625  4801760.00000000 3797405.25000000 
0.04800    103104472.00000000 64504664.00000000 163102864.00000000 53875.16796875  4709005.50000000 3724212.50000000 
0.04900    101307984.00000000 63386684.00000000 160268016.00000000 52713.25000000  4616860.50000000 3651496.25000000 
0.05000    99521256.00000000 62273840.00000000 157447440.00000000 51562.21875000  4525402.50000000 3579272.75000000 
0.05100    97743584.00000000 61167444.00000000 154642752.00000000 50423.57031250  4434660.50000000 3507655.00000000 
0.05200    95978264.00000000 60068172.00000000 151855808.00000000 49298.16796875  4344730.50000000 3436692.75000000 
0.05300    94226480.00000000 58977392.00000000 149090032.00000000 48186.92578125  4255766.50000000 3366418.25000000 
0.05400    92489552.00000000 57895292.00000000 146349376.00000000 47090.42187500  4167760.75000000 3296925.25000000 
0.05500    90768240.00000000 56822696.00000000 143632448.00000000 46009.64453125  4080742.25000000 3228241.75000000 
0.05600    89064528.00000000 55760972.00000000 140941024.00000000 44945.19921875  3994834.25000000 3160372.25000000 
0.05700    87379072.00000000 54710896.00000000 138280640.00000000 43897.59375000  3910073.00000000 3093458.00000000 
0.05800    85714360.00000000 53672572.00000000 135651760.00000000 42867.59765625  3826523.50000000 3027468.00000000 
0.05900    84069704.00000000 52647072.00000000 133053544.00000000 41855.58593750  3744225.50000000 2962454.50000000 
0.06000    82446016.00000000 51634764.00000000 130490576.00000000 40862.11328125  3663197.00000000 2898453.25000000 
0.06100    80845456.00000000 50636388.00000000 127962728.00000000 39887.02734375  3583498.75000000 2835486.75000000 
0.06200    79267624.00000000 49652932.00000000 125470816.00000000 38931.21875000  3505164.50000000 2773614.50000000 
0.06300    77714544.00000000 48683716.00000000 123017376.00000000 37994.94921875  3428222.75000000 2712824.50000000 
0.06400    76186160.00000000 47730004.00000000 120602568.00000000 37078.39843750  3352702.75000000 2653163.00000000 
0.06500    74683320.00000000 46792264.00000000 118228096.00000000 36181.08984375  3278617.25000000 2594615.75000000 
0.06600    73206384.00000000 45870224.00000000 115894440.00000000 35304.17187500  3206006.75000000 2537230.50000000 
0.06700    71755848.00000000 44964756.00000000 113601856.00000000 34446.82421875  3134846.25000000 2480995.50000000 
0.06800    70332296.00000000 44075860.00000000 111352704.00000000 33609.46093750  3065177.25000000 2425924.25000000 
0.06900    68935352.00000000 43203948.00000000 109145192.00000000 32791.64062500  2996995.50000000 2372036.25000000 
0.07000    67566280.00000000 42349160.00000000 106981408.00000000 31993.96289062  2930303.00000000 2319344.25000000 
0.07100    66224604.00000000 41511768.00000000 104861936.00000000 31215.45117188  2865112.75000000 2267822.75000000 
0.07200    64910696.00000000 40691336.00000000 102785048.00000000 30456.57226562  2801380.75000000 2217479.25000000 
0.07300    63625240.00000000 39888532.00000000 100753528.00000000 29717.06445312  2739182.50000000 2168314.50000000 
0.07400    62368008.00000000 39102948.00000000 98765944.00000000 28996.43750000  2678445.75000000 2120283.00000000 
0.07500    61137780.00000000 38334872.00000000 96821768.00000000 28294.36132812  2619176.00000000 2073444.00000000 
0.07600    59935780.00000000 37584360.00000000 94922024.00000000 27610.70312500  2561318.75000000 2027739.62500000 
0.07700    58761852.00000000 36851116.00000000 93066528.00000000 26945.18945312  2504944.75000000 1983166.37500000 
0.07800    57615484.00000000 36135144.00000000 91254416.00000000 26297.20117188  2449941.00000000 1939708.12500000 
0.07900    56496268.00000000 35436312.00000000 89485904.00000000 25666.61132812  2396352.50000000 1897358.87500000 
0.08000    55404144.00000000 34754528.00000000 87759880.00000000 25052.89648438  2344139.75000000 1856092.62500000 
0.08100    54339052.00000000 34089660.00000000 86076360.00000000 24455.84375000  2293249.25000000 1815882.50000000 
0.08200    53300220.00000000 33441040.00000000 84435184.00000000 23874.53125000  2243683.00000000 1776713.25000000 
0.08300    52287272.00000000 32809242.00000000 82835088.00000000 23308.96679688  2195391.25000000 1738569.62500000 
0.08400    51300192.00000000 32193350.00000000 81274944.00000000 22758.62109375  2148380.25000000 1701423.62500000 
0.08500    50338428.00000000 31593192.00000000 79756112.00000000 22223.04687500  2102575.50000000 1665250.62500000 
0.08600    49401284.00000000 31009006.00000000 78275592.00000000 21701.57421875  2057970.37500000 1630028.12500000 
0.08700    48488576.00000000 30439990.00000000 76834232.00000000 21193.91406250  2014534.87500000 1595718.37500000 
0.08800    47599616.00000000 29885470.00000000 75430440.00000000 20699.50585938  1972234.50000000 1562309.00000000 
0.08900    46733636.00000000 29345946.00000000 74063616.00000000 20218.03515625  1931026.62500000 1529765.00000000 
0.09000    45890368.00000000 28820758.00000000 72731800.00000000 19748.96289062  1890864.87500000 1498073.62500000 
0.09100    45069044.00000000 28309476.00000000 71436088.00000000 19291.68164062  1851746.37500000 1467184.50000000 
0.09200    44269280.00000000 27811460.00000000 70174024.00000000 18846.00976562  1813604.75000000 1437081.37500000 
0.09300    43490132.00000000 27327136.00000000 68945080.00000000 18411.24218750  1776437.25000000 1407748.25000000 
0.09400    42731344.00000000 26855300.00000000 67748072.00000000 17987.24609375  1740183.37500000 1379146.37500000 
0.09500    41992232.00000000 26396022.00000000 66582700.00000000 17573.32812500  1704813.12500000 1351241.75000000 
0.09600    41271992.00000000 25948656.00000000 65447800.00000000 17169.18164062  1670304.37500000 1324017.75000000 
0.09700    40570320.00000000 25512944.00000000 64341844.00000000 16774.36328125  1636618.25000000 1297449.50000000 
0.09800    39886176.00000000 25088772.00000000 63264184.00000000 16388.86132812  1603725.12500000 1271511.62500000 
0.09900    39219520.00000000 24675168.00000000 62213772.00000000 16011.59765625  1571582.00000000 1246168.50000000 
0.10000    38568692.00000000 24272038.00000000 61189696.00000000 15642.79296875  1540159.37500000 1221406.25000000 
0.10100    37934176.00000000 23879330.00000000 60190856.00000000 15281.83398438  1509445.50000000 1197180.25000000 
0.10200    37315000.00000000 23495734.00000000 59215676.00000000 14928.45117188  1479394.00000000 1173488.75000000 
0.10300    36710500.00000000 23121922.00000000 58264904.00000000 14582.46289062  1449967.87500000 1150294.75000000 
0.10400    36119804.00000000 22756850.00000000 57336372.00000000 14243.63378906  1421160.12500000 1127600.62500000 
0.10500    35542684.00000000 22400526.00000000 56428988.00000000 13911.41796875  1392936.62500000 1105353.25000000 
0.10600    34978920.00000000 22052108.00000000 55542328.00000000 13585.70996094  1365255.87500000 1083553.00000000 
0.10700    34426832.00000000 21711848.00000000 54675628.00000000 13266.29296875  1338131.37500000 1062179.50000000 
0.10800    33887076.00000000 21378896.00000000 53827584.00000000 12953.04980469  1311498.25000000 1041197.87500000 
0.10900    33358642.00000000 21053374.00000000 52997500.00000000 12645.62792969  1285368.00000000 1020597.31250000 
0.11000    32840610.00000000 20734506.00000000 52185060.00000000 12343.95117188  1259686.50000000 1000372.12500000 
0.11100    32333298.00000000 20422356.00000000 51388460.00000000 12047.74707031  1234461.50000000 980495.68750000 
0.11200    31835754.00000000 20116402.00000000 50607800.00000000 11757.02636719  1209665.87500000 960959.50000000 
0.11300    31347520.00000000 19816100.00000000 49841968.00000000 11471.40625000  1185286.62500000 941745.25000000 
0.11400    30868342.00000000 19521774.00000000 49090852.00000000 11191.12402344  1161310.00000000 922839.75000000 
0.11500    30397576.00000000 19232790.00000000 48352592.00000000 10915.69433594  1137705.25000000 904234.50000000 
0.11600    29935290.00000000 18948978.00000000 47627816.00000000 10645.31152344  1114465.87500000 885924.25000000 
0.11700    29480384.00000000 18670082.00000000 46915060.00000000 10379.79589844  1091601.62500000 867881.18750000 
0.11800    29033168.00000000 18395528.00000000 46214156.00000000 10119.09277344  1069066.25000000 850110.37500000 
0.11900    28592710.00000000 18125482.00000000 45524416.00000000 9863.06738281   1046858.18750000 832601.25000000 
0.12000    28159380.00000000 17859888.00000000 44845256.00000000 9611.69335938   1024980.75000000 815337.68750000 
0.12100    27732416.00000000 17598312.00000000 44176252.00000000 9365.17675781   1003421.50000000 798324.12500000 
0.12200    27311544.00000000 17340274.00000000 43517400.00000000 9123.09277344   982176.93750000 781541.43750000 
0.12300    26896658.00000000 17086122.00000000 42867560.00000000 8885.69140625   961233.56250000 765006.37500000 
0.12400    26487676.00000000 16835458.00000000 42226592.00000000 8652.82324219   940586.18750000 748693.18750000 
0.12500    26083766.00000000 16587907.00000000 41594168.00000000 8424.50781250   920228.93750000 732607.93750000 
0.12600    25685378.00000000 16343771.00000000 40970196.00000000 8200.89355469   900168.18750000 716744.31250000 
0.12700    25292294.00000000 16102738.00000000 40354040.00000000 7981.71044922   880389.87500000 701097.87500000 
0.12800    24903862.00000000 15864595.00000000 39745408.00000000 7767.16015625   860897.75000000 685668.62500000 
0.12900    24520406.00000000 15629363.00000000 39144576.00000000 7557.14306641   841682.56250000 670461.50000000 
0.13000    24141432.00000000 15396815.00000000 38550600.00000000 7351.71240234   822751.50000000 655468.06250000 
0.13100    23766880.00000000 15166948.00000000 37963220.00000000 7150.82763672   804099.31250000 640683.62500000 
0.13200    23396612.00000000 14939752.00000000 37382940.00000000 6954.47607422   785721.87500000 626114.62500000 
0.13300    23031098.00000000 14715040.00000000 36809216.00000000 6762.71826172   767626.75000000 611756.00000000 
0.13400    22669492.00000000 14492725.00000000 36241644.00000000 6575.56054688   749803.87500000 597617.00000000 
0.13500    22312028.00000000 14272867.00000000 35681080.00000000 6392.98681641   732258.31250000 583685.18750000 
0.13600    21958660.00000000 14055225.00000000 35125888.00000000 6214.87353516   715000.87500000 569967.68750000 
0.13700    21609412.00000000 13840184.00000000 34577528.00000000 6041.35302734   698017.37500000 556464.68750000 
0.13800    21264204.00000000 13627156.00000000 34034540.00000000 5872.40332031   681316.43750000 543179.68750000 
0.13900    20922660.00000000 13416568.00000000 33497930.00000000 5707.89990234   664897.00000000 530106.56250000 
0.14000    20585196.00000000 13208114.00000000 32967238.00000000 5547.91601562   648757.25000000 517251.84375000 
0.14100    20251668.00000000 13001937.00000000 32442322.00000000 5392.42041016   632909.93750000 504618.62500000 
0.14200    19921912.00000000 12798062.00000000 31923458.00000000 5241.32958984   617337.06250000 492203.50000000 
0.14300    19596400.00000000 12596223.00000000 31410272.00000000 5094.63867188   602053.25000000 480009.21875000 
0.14400    19274256.00000000 12396605.00000000 30903042.00000000 4952.29736328   587055.93750000 468029.68750000 
0.14500    18956294.00000000 12199098.00000000 30401554.00000000 4814.30468750   572341.12500000 456275.93750000 
0.14600    18642216.00000000 12003957.00000000 29906114.00000000 4680.53271484   557917.68750000 444744.03125000 
0.14700    18332068.00000000 11811007.00000000 29416580.00000000 4550.96777344   543784.62500000 433434.50000000 
0.14800    18025786.00000000 11620248.00000000 28932772.00000000 4425.51953125   529935.43750000 422349.78125000 
0.14900    17723366.00000000 11431628.00000000 28454818.00000000 4304.13525391   516369.93750000 411482.28125000 
0.15000    17424828.00000000 11245370.00000000 27982910.00000000 4186.73291016   503092.25000000 400843.96875000 
0.15100    17130268.00000000 11061218.00000000 27516844.00000000 4073.22900391   490096.84375000 390423.78125000 
0.15200    16839876.00000000 10879384.00000000 27057004.00000000 3963.58276367   477393.93750000 380229.18750000 
0.15300    16553343.00000000 10699883.00000000 26603110.00000000 3857.65405273   464972.03125000 370254.93750000 
0.15400    16270681.00000000 10522459.00000000 26154962.00000000 3755.38818359   452824.40625000 360497.37500000 
0.15500    15992095.00000000 10347429.00000000 25713250.00000000 3656.66552734   440963.40625000 350962.56250000 
0.15600    15717451.00000000 10174595.00000000 25277236.00000000 3561.34912109   429375.46875000 341642.71875000 
0.15700    15446960.00000000 10004315.00000000 24847612.00000000 3469.42919922   418065.62500000 332543.90625000 
0.15800    15180221.00000000 9836143.00000000 24423908.00000000 3380.69775391   407020.03125000 323654.40625000 
0.15900    14917705.00000000 9670342.00000000 24006314.00000000 3295.16137695   396250.12500000 314978.53125000 
0.16000    14659104.00000000 9506795.00000000 23594910.00000000 3212.60473633   385741.18750000 306511.84375000 
0.16100    14404583.00000000 9345694.00000000 23189630.00000000 3133.01367188   375495.50000000 298255.68750000 
0.16200    14153987.00000000 9186834.00000000 22790542.00000000 3056.17651367   365504.65625000 290198.81250000 
0.16300    13907397.00000000 9030353.00000000 22397606.00000000 2982.02172852   355773.34375000 282344.46875000 
0.16400    13664898.00000000 8876215.00000000 22010514.00000000 2910.51318359   346285.28125000 274691.90625000 
0.16500    13426291.00000000 8724360.00000000 21629814.00000000 2841.41870117   337042.25000000 267232.31250000 
0.16600    13191633.00000000 8574860.00000000 21254958.00000000 2774.68505859   328040.28125000 259965.59375000 
0.16700    12960794.00000000 8427685.00000000 20886204.00000000 2710.20703125   319272.75000000 252884.18750000 
0.16800    12733936.00000000 8282772.50000000 20523578.00000000 2647.82153320   310731.09375000 245986.70312500 
0.16900    12510970.00000000 8140269.00000000 20166888.00000000 2587.52343750   302418.53125000 239271.18750000 
0.17000    12291777.00000000 8000028.50000000 19816064.00000000 2529.10107422   294317.78125000 232732.98437500 
