# SAXS profile: number of points = 501, q_min = 0, q_max = 0.5, delta_q = 0.001
#    q    intensity 
0.00000    162233904.00000000 101202848.00000000 256269760.00000000 101874.94531250 8130944.00000000 6421785.50000000 
0.00100    162196672.00000000 101177472.00000000 256205664.00000000 101841.35937500 8128624.50000000 6419970.50000000 
0.00200    162081296.00000000 101102544.00000000 256019136.00000000 101741.42968750 8121538.00000000 6414413.50000000 
0.00300    161883344.00000000 100978760.00000000 255703936.00000000 101574.25781250 8109760.50000000 6405145.00000000 
0.00400    161602576.00000000 100805936.00000000 255262384.00000000 101340.85937500 8093363.00000000 6392214.00000000 
0.00500    161240224.00000000 100583920.00000000 254697776.00000000 101042.30468750 8072265.00000000 6375635.00000000 
0.00600    160802704.00000000 100311728.00000000 254008960.00000000 100678.11718750 8046665.00000000 6355469.50000000 
0.00700    160282032.00000000 99993840.00000000 253199904.00000000 100250.32031250 8016464.00000000 6331739.00000000 
0.00800    159687136.00000000 99628224.00000000 252267888.00000000 99759.00000000  7981851.50000000 6304499.00000000 
0.00900    159020000.00000000 99216976.00000000 251216896.00000000 99206.44531250  7942754.50000000 6273786.00000000 
0.01000    158278016.00000000 98758736.00000000 250051088.00000000 98592.94531250  7899408.00000000 6239694.00000000 
0.01100    157465072.00000000 98254696.00000000 248768128.00000000 97919.88281250  7851839.00000000 6202263.50000000 
0.01200    156576992.00000000 97707568.00000000 247374160.00000000 97190.47656250  7800184.50000000 6161619.00000000 
0.01300    155617760.00000000 97115760.00000000 245870368.00000000 96404.32812500  7744467.00000000 6117763.50000000 
0.01400    154592816.00000000 96482256.00000000 244257952.00000000 95564.30468750  7684859.00000000 6070886.00000000 
0.01500    153503952.00000000 95808720.00000000 242542672.00000000 94672.49218750  7621532.00000000 6021015.50000000 
0.01600    152348704.00000000 95095368.00000000 240727152.00000000 93729.92968750  7554508.50000000 5968265.00000000 
0.01700    151128880.00000000 94342880.00000000 238814224.00000000 92740.45312500  7483982.00000000 5912778.00000000 
0.01800    149852352.00000000 93553688.00000000 236804736.00000000 91704.57812500  7410106.00000000 5854651.00000000 
0.01900    148517968.00000000 92728984.00000000 234707376.00000000 90626.17968750  7333056.50000000 5793976.00000000 
0.02000    147126496.00000000 91870344.00000000 232520544.00000000 89506.35156250  7252909.50000000 5730899.50000000 
0.02100    145684160.00000000 90978216.00000000 230250624.00000000 88347.44531250  7169865.00000000 5665548.00000000 
0.02200    144190944.00000000 90054512.00000000 227902064.00000000 87153.56250000  7084074.00000000 5598006.50000000 
0.02300    142648368.00000000 89101224.00000000 225478208.00000000 85925.17187500  6995747.00000000 5528419.00000000 
0.02400    141063264.00000000 88120832.00000000 222984048.00000000 84666.67187500  6904987.50000000 5456984.00000000 
0.02500    139434512.00000000 87112400.00000000 220420944.00000000 83380.37500000  6812000.00000000 5383721.50000000 
0.02600    137766464.00000000 86080208.00000000 217797104.00000000 82067.68750000  6716923.00000000 5308834.50000000 
0.02700    136059952.00000000 85024600.00000000 215112352.00000000 80731.44531250  6619979.00000000 5232502.00000000 
0.02800    134319824.00000000 83947632.00000000 212375504.00000000 79375.19531250  6521386.50000000 5154816.50000000 
0.02900    132550048.00000000 82851528.00000000 209589168.00000000 78001.53906250  6421211.00000000 5075864.50000000 
0.03000    130750728.00000000 81737296.00000000 206757456.00000000 76612.75000000  6319647.00000000 4995887.50000000 
0.03100    128924264.00000000 80605656.00000000 203883104.00000000 75210.96875000  6216900.50000000 4914905.00000000 
0.03200    127076240.00000000 79460784.00000000 200971712.00000000 73799.64062500  6113173.50000000 4833140.00000000 
0.03300    125208304.00000000 78303224.00000000 198030432.00000000 72381.61718750  6008618.50000000 4750755.50000000 
0.03400    123322056.00000000 77133928.00000000 195060848.00000000 70957.04687500  5903366.50000000 4667790.50000000 
0.03500    121421600.00000000 75955960.00000000 192069104.00000000 69530.93750000  5797584.50000000 4584423.50000000 
0.03600    119509064.00000000 74769992.00000000 189055440.00000000 68104.68750000  5691509.00000000 4500768.50000000 
0.03700    117587072.00000000 73577688.00000000 186027712.00000000 66680.16406250  5585215.00000000 4416986.50000000 
0.03800    115658808.00000000 72379904.00000000 182988896.00000000 65259.64062500  5478889.00000000 4333090.50000000 
0.03900    113726600.00000000 71180400.00000000 179942800.00000000 63845.89843750  5372771.50000000 4249359.00000000 
0.04000    111791432.00000000 69978528.00000000 176893600.00000000 62439.96875000  5266804.00000000 4165772.75000000 
0.04100    109857920.00000000 68777176.00000000 173846320.00000000 61044.83593750  5161333.50000000 4082544.75000000 
0.04200    107928104.00000000 67578192.00000000 170802592.00000000 59661.51953125  5056361.50000000 3999721.25000000 
0.04300    106003216.00000000 66381936.00000000 167768480.00000000 58292.27343750  4952084.00000000 3917429.50000000 
0.04400    104087424.00000000 65190124.00000000 164746400.00000000 56938.79296875  4848650.00000000 3835737.00000000 
0.04500    102180064.00000000 64003868.00000000 161737376.00000000 55602.62500000  4746080.00000000 3754814.00000000 
0.04600    100285776.00000000 62825080.00000000 158746976.00000000 54284.39843750  4644616.50000000 3674681.25000000 
0.04700    98403944.00000000 61654536.00000000 155779568.00000000 52986.53515625  4544211.50000000 3595435.50000000 
0.04800    96539936.00000000 60493312.00000000 152836560.00000000 51709.80468750  4445120.00000000 3517159.00000000 
0.04900    94691952.00000000 59342916.00000000 149921248.00000000 50455.08984375  4347295.00000000 3439934.25000000 
0.05000    92864360.00000000 58204732.00000000 147036864.00000000 49223.52734375  4250967.50000000 3363808.75000000 
0.05100    91056632.00000000 57078892.00000000 144183776.00000000 48016.54687500  4156125.25000000 3288866.00000000 
0.05200    89272176.00000000 55966152.00000000 141364688.00000000 46833.82812500  4062804.75000000 3215165.75000000 
0.05300    87511912.00000000 54868260.00000000 138585360.00000000 45676.72656250  3971162.25000000 3142743.50000000 
0.05400    85776480.00000000 53785992.00000000 135843872.00000000 44546.25781250  3881215.75000000 3071666.50000000 
0.05500    84066960.00000000 52719900.00000000 133144808.00000000 43441.51171875  3793008.25000000 3001948.50000000 
0.05600    82385368.00000000 51670688.00000000 130488048.00000000 42364.66406250  3706597.25000000 2933654.50000000 
0.05700    80731984.00000000 50639184.00000000 127876496.00000000 41314.34765625  3622021.25000000 2866798.75000000 
0.05800    79109136.00000000 49625456.00000000 125310256.00000000 40291.65625000  3539295.00000000 2801383.00000000 
0.05900    77514576.00000000 48630432.00000000 122791408.00000000 39296.56640625  3458489.00000000 2737489.75000000 
0.06000    75952464.00000000 47654448.00000000 120321328.00000000 38328.30078125  3379557.25000000 2675094.75000000 
0.06100    74421000.00000000 46697760.00000000 117901096.00000000 37387.70312500  3302568.50000000 2614207.75000000 
0.06200    72921296.00000000 45761232.00000000 115530512.00000000 36474.28125000  3227497.00000000 2554848.25000000 
0.06300    71454192.00000000 44844612.00000000 113211016.00000000 35587.44531250  3154347.25000000 2497007.75000000 
0.06400    70019824.00000000 43948060.00000000 110943400.00000000 34727.20312500  3083128.50000000 2440691.75000000 
0.06500    68618592.00000000 43072108.00000000 108727072.00000000 33893.33984375  3013855.75000000 2385906.50000000 
0.06600    67250392.00000000 42216764.00000000 106563240.00000000 33084.93359375  2946480.00000000 2332599.25000000 
0.06700    65914784.00000000 41381616.00000000 104451088.00000000 32301.86523438  2880966.75000000 2280797.25000000 
0.06800    64612508.00000000 40567124.00000000 102391296.00000000 31542.97265625  2817343.25000000 2230468.25000000 
0.06900    63343144.00000000 39773636.00000000 100384368.00000000 30808.40429688  2755534.75000000 2181594.00000000 
0.07000    62106364.00000000 39000172.00000000 98428528.00000000 30097.30664062  2695557.50000000 2134158.50000000 
0.07100    60902684.00000000 38247520.00000000 96524720.00000000 29408.65234375  2637300.75000000 2088126.00000000 
0.07200    59730344.00000000 37515008.00000000 94671816.00000000 28741.98828125  2580859.25000000 2043485.50000000 
0.07300    58590760.00000000 36802380.00000000 92869472.00000000 28096.61914062  2526069.00000000 2000180.37500000 
0.07400    57482332.00000000 36109712.00000000 91116704.00000000 27471.55859375  2472941.75000000 1958184.00000000 
0.07500    56404760.00000000 35436312.00000000 89413016.00000000 26866.31250000  2421436.75000000 1917476.25000000 
0.07600    55357824.00000000 34782192.00000000 87757664.00000000 26279.95703125  2371467.25000000 1877996.25000000 
0.07700    54340396.00000000 34146460.00000000 86149816.00000000 25711.64648438  2323045.25000000 1839734.75000000 
0.07800    53352704.00000000 33529660.00000000 84588056.00000000 25160.77148438  2276091.75000000 1802635.25000000 
0.07900    52393068.00000000 32931118.00000000 83072024.00000000 24626.27148438  2230526.50000000 1766666.75000000 
0.08000    51461728.00000000 32350106.00000000 81599896.00000000 24107.50000000  2186332.75000000 1731775.25000000 
0.08100    50557836.00000000 31786030.00000000 80172208.00000000 23603.69140625  2143494.00000000 1697928.75000000 
0.08200    49679488.00000000 31238580.00000000 78785352.00000000 23114.41601562  2101873.00000000 1665085.62500000 
0.08300    48827452.00000000 30707592.00000000 77439512.00000000 22638.29101562  2061479.50000000 1633211.12500000 
0.08400    47999804.00000000 30192340.00000000 76133608.00000000 22174.85546875  2022238.25000000 1602260.87500000 
0.08500    47196664.00000000 29692482.00000000 74866160.00000000 21723.66992188  1984097.50000000 1572176.25000000 
0.08600    46416520.00000000 29207218.00000000 73635784.00000000 21283.89648438  1947023.25000000 1542939.62500000 
0.08700    45659136.00000000 28736286.00000000 72441800.00000000 20854.47656250  1910936.75000000 1514491.75000000 
0.08800    44922912.00000000 28279176.00000000 71281280.00000000 20435.27148438  1875821.37500000 1486805.12500000 
0.08900    44207700.00000000 27835268.00000000 70153800.00000000 20025.69726562  1841587.37500000 1459831.37500000 
0.09000    43512196.00000000 27403972.00000000 69058440.00000000 19624.86523438  1808228.37500000 1433561.12500000 
0.09100    42836112.00000000 26984866.00000000 67994536.00000000 19232.58789062  1775672.25000000 1407913.37500000 
0.09200    42178352.00000000 26577410.00000000 66958556.00000000 18848.08593750  1743878.75000000 1382892.25000000 
0.09300    41537908.00000000 26181424.00000000 65951048.00000000 18471.22460938  1712810.75000000 1358440.75000000 
0.09400    40914384.00000000 25796006.00000000 64970508.00000000 18101.25000000  1682424.62500000 1334517.37500000 
0.09500    40306924.00000000 25420622.00000000 64015272.00000000 17737.79101562  1652695.00000000 1311126.37500000 
0.09600    39714628.00000000 25055042.00000000 63084692.00000000 17380.54492188  1623558.37500000 1288199.50000000 
0.09700    39136292.00000000 24698684.00000000 62176568.00000000 17029.30273438  1595001.00000000 1265735.25000000 
0.09800    38572084.00000000 24351126.00000000 61290156.00000000 16683.70703125  1566992.62500000 1243694.37500000 
0.09900    38020984.00000000 24011874.00000000 60425312.00000000 16343.47460938  1539482.50000000 1222060.12500000 
0.10000    37482084.00000000 23680232.00000000 59579900.00000000 16008.36035156  1512440.25000000 1200788.87500000 
0.10100    36954744.00000000 23356376.00000000 58752652.00000000 15678.15332031  1485869.25000000 1179867.50000000 
0.10200    36438288.00000000 23039354.00000000 57942988.00000000 15352.73339844  1459700.62500000 1159285.75000000 
0.10300    35932376.00000000 22728876.00000000 57150276.00000000 15031.78417969  1433936.75000000 1139011.25000000 
0.10400    35436284.00000000 22424728.00000000 56373164.00000000 14715.38964844  1408551.00000000 1119042.50000000 
0.10500    34950224.00000000 22126428.00000000 55611092.00000000 14403.36621094  1383534.50000000 1099344.75000000 
0.10600    34471996.00000000 21833514.00000000 54862396.00000000 14095.54882812  1358841.62500000 1079908.75000000 
0.10700    34002288.00000000 21546000.00000000 54127264.00000000 13792.04882812  1334485.75000000 1060736.62500000 
0.10800    33540576.00000000 21263074.00000000 53404048.00000000 13492.62011719  1310441.62500000 1041786.87500000 
0.10900    33085898.00000000 20984814.00000000 52692488.00000000 13197.51660156  1286675.87500000 1023078.62500000 
0.11000    32638408.00000000 20711110.00000000 51991968.00000000 12906.47363281  1263218.75000000 1004589.87500000 
0.11100    32197112.00000000 20441038.00000000 51301320.00000000 12619.58203125  1240031.25000000 986303.00000000 
0.11200    31761952.00000000 20174768.00000000 50620680.00000000 12336.91015625  1217109.25000000 968223.12500000 
0.11300    31332930.00000000 19912420.00000000 49948884.00000000 12058.50585938  1194464.75000000 950345.31250000 
0.11400    30909308.00000000 19653196.00000000 49285660.00000000 11784.26171875  1172057.75000000 932652.68750000 
0.11500    30490784.00000000 19397002.00000000 48630572.00000000 11514.32812500  1149908.87500000 915158.31250000 
0.11600    30077286.00000000 19143954.00000000 47983320.00000000 11248.81933594  1128005.62500000 897848.93750000 
0.11700    29668350.00000000 18893592.00000000 47343084.00000000 10987.61621094  1106351.00000000 880729.93750000 
0.11800    29263838.00000000 18645718.00000000 46709340.00000000 10730.87402344  1084938.25000000 863786.00000000 
0.11900    28863852.00000000 18400382.00000000 46082456.00000000 10478.63476562  1063774.75000000 847033.50000000 
0.12000    28467736.00000000 18157398.00000000 45461600.00000000 10230.88964844  1042849.25000000 830454.37500000 
0.12100    28075600.00000000 17916786.00000000 44846808.00000000 9987.89453125   1022174.75000000 814070.00000000 
0.12200    27687156.00000000 17678228.00000000 44237360.00000000 9749.28808594   1001736.56250000 797864.56250000 
0.12300    27302240.00000000 17441690.00000000 43633956.00000000 9515.45507812   981551.43750000 781844.50000000 
0.12400    26920908.00000000 17207004.00000000 43035240.00000000 9286.35546875   961608.81250000 766010.81250000 
0.12500    26543176.00000000 16974340.00000000 42441804.00000000 9061.94042969   941915.87500000 750367.93750000 
0.12600    26168832.00000000 16743464.00000000 41853628.00000000 8842.28320312   922484.75000000 734918.00000000 
0.12700    25797616.00000000 16514356.00000000 41270080.00000000 8627.39062500   903306.87500000 719660.93750000 
0.12800    25429632.00000000 16287058.00000000 40691380.00000000 8417.29003906   884380.87500000 704595.12500000 
0.12900    25065010.00000000 16061500.00000000 40117704.00000000 8211.90917969   865722.37500000 689734.81250000 
0.13000    24703490.00000000 15837612.00000000 39547724.00000000 8011.24414062   847322.25000000 675068.56250000 
0.13100    24344952.00000000 15615359.00000000 38983580.00000000 7815.34472656   829189.12500000 660609.25000000 
0.13200    23989560.00000000 15394867.00000000 38423304.00000000 7624.07910156   811323.81250000 646356.75000000 
0.13300    23637448.00000000 15175969.00000000 37867776.00000000 7437.53906250   793731.50000000 632307.43750000 
0.13400    23288286.00000000 14958729.00000000 37316392.00000000 7255.56298828   776403.75000000 618466.56250000 
0.13500    22942358.00000000 14743107.00000000 36770000.00000000 7078.10791016   759352.06250000 604840.75000000 
0.13600    22599448.00000000 14529270.00000000 36228076.00000000 6905.19628906   742580.18750000 591425.06250000 
0.13700    22259850.00000000 14317042.00000000 35690980.00000000 6736.63037109   726079.00000000 578222.25000000 
0.13800    21923230.00000000 14106597.00000000 35158188.00000000 6572.39843750   709857.56250000 565235.62500000 
0.13900    21589748.00000000 13897765.00000000 34630336.00000000 6412.47949219   693900.75000000 552465.75000000 
0.14000    21259614.00000000 13690745.00000000 34107216.00000000 6256.67919922   678242.31250000 539913.93750000 
0.14100    20932796.00000000 13485408.00000000 33589096.00000000 6104.92285156   662848.68750000 527574.12500000 
0.14200    20608898.00000000 13281925.00000000 33075366.00000000 5957.13085938   647731.75000000 515455.59375000 
0.14300    20288374.00000000 13080268.00000000 32566832.00000000 5813.13671875   632890.68750000 503552.09375000 
0.14400    19971068.00000000 12880269.00000000 32062852.00000000 5672.93798828   618314.25000000 491858.96875000 
0.14500    19657418.00000000 12682326.00000000 31563926.00000000 5536.32666016   604027.93750000 480384.65625000 
0.14600    19346804.00000000 12486072.00000000 31070164.00000000 5403.24804688   589996.37500000 469124.53125000 
0.14700    19039594.00000000 12291888.00000000 30581642.00000000 5273.54833984   576245.81250000 458080.53125000 
0.14800    18735854.00000000 12099559.00000000 30098034.00000000 5147.11474609   562748.43750000 447244.34375000 
0.14900    18435476.00000000 11909057.00000000 29619620.00000000 5023.86816406   549519.12500000 436619.09375000 
0.15000    18138508.00000000 11720663.00000000 29146152.00000000 4903.61376953   536546.31250000 426198.62500000 
0.15100    17844904.00000000 11534188.00000000 28678180.00000000 4786.32910156   523829.25000000 415986.78125000 
0.15200    17554870.00000000 11349761.00000000 28215658.00000000 4671.88281250   511371.18750000 405973.09375000 
0.15300    17268300.00000000 11167397.00000000 27758322.00000000 4560.10839844   499158.78125000 396165.78125000 
0.15400    16985196.00000000 10986954.00000000 27306190.00000000 4450.92041016   487191.34375000 386549.87500000 
0.15500    16705629.00000000 10808693.00000000 26859542.00000000 4344.23583984   475465.59375000 377129.37500000 
0.15600    16429662.00000000 10632410.00000000 26418282.00000000 4239.93505859   463976.18750000 367900.56250000 
0.15700    16156959.00000000 10458192.00000000 25982434.00000000 4137.95068359   452724.68750000 358865.62500000 
0.15800    15887724.00000000 10286039.00000000 25551814.00000000 4038.16650391   441695.43750000 350009.65625000 
0.15900    15622141.00000000 10116044.00000000 25126888.00000000 3940.49731445   430893.75000000 341337.43750000 
0.16000    15359957.00000000 9948273.00000000 24707012.00000000 3844.86376953   420308.59375000 332845.00000000 
0.16100    15101267.00000000 9782500.00000000 24293114.00000000 3751.21972656   409944.56250000 324526.56250000 
0.16200    14846051.00000000 9618897.00000000 23884422.00000000 3659.48339844   399788.50000000 316380.78125000 
0.16300    14594341.00000000 9457356.00000000 23481074.00000000 3569.54394531   389840.65625000 308404.62500000 
0.16400    14345999.00000000 9297871.00000000 23083166.00000000 3481.44287109   380098.90625000 300595.53125000 
0.16500    14101098.00000000 9140656.00000000 22690738.00000000 3395.01562500   370551.18750000 292946.96875000 
0.16600    13859742.00000000 8985497.00000000 22303692.00000000 3310.27856445   361206.25000000 285458.87500000 
0.16700    13621693.00000000 8832462.00000000 21921958.00000000 3227.17724609   352042.75000000 278124.25000000 
0.16800    13386967.00000000 8681369.00000000 21545488.00000000 3145.65917969   343070.00000000 270941.28125000 
0.16900    13155715.00000000 8532619.00000000 21174548.00000000 3065.76074219   334285.75000000 263912.56250000 
0.17000    12927863.00000000 8385843.50000000 20808850.00000000 2987.39648438   325674.40625000 257030.04687500 
