# SAXS profile: number of points = 501, q_min = 0, q_max = 0.5, delta_q = 0.001
#    q    intensity 
0.00000    162238144.00000000 101201640.00000000 256271712.00000000 108534.76562500 8392518.00000000 6628388.50000000 
0.00100    162209744.00000000 101183632.00000000 256225696.00000000 108509.53906250 8390758.00000000 6627032.50000000 
0.00200    162122928.00000000 101129552.00000000 256088704.00000000 108434.14843750 8385586.50000000 6622929.00000000 
0.00300    161976800.00000000 101039464.00000000 255859440.00000000 108308.14843750 8376863.00000000 6616125.00000000 
0.00400    161772048.00000000 100913848.00000000 255537568.00000000 108132.37500000 8364730.00000000 6606592.00000000 
0.00500    161508576.00000000 100751832.00000000 255125056.00000000 107907.35156250 8349147.00000000 6594387.00000000 
0.00600    161187360.00000000 100555336.00000000 254621328.00000000 107631.78125000 8330132.00000000 6579438.50000000 
0.00700    160807536.00000000 100322464.00000000 254027904.00000000 107307.62500000 8307659.50000000 6561865.50000000 
0.00800    160372256.00000000 100055064.00000000 253345264.00000000 106934.73437500 8281873.50000000 6541627.50000000 
0.00900    159878464.00000000 99752496.00000000 252573248.00000000 106513.37500000 8252757.50000000 6518770.00000000 
0.01000    159329312.00000000 99416040.00000000 251713840.00000000 106045.28125000 8220313.50000000 6493326.00000000 
0.01100    158724288.00000000 99045776.00000000 250768848.00000000 105529.29687500 8184587.50000000 6465338.00000000 
0.01200    158066592.00000000 98641200.00000000 249736256.00000000 104967.77343750 8145670.00000000 6434780.00000000 
0.01300    157355392.00000000 98204200.00000000 248618720.00000000 104360.14062500 8103588.00000000 6401756.00000000 
0.01400    156590080.00000000 97734144.00000000 247418288.00000000 103708.02343750 8058347.50000000 6366285.00000000 
0.01500    155771488.00000000 97231296.00000000 246136112.00000000 103012.11718750 8010047.00000000 6328403.00000000 
0.01600    154899936.00000000 96697096.00000000 244772944.00000000 102273.20312500 7958737.50000000 6288147.50000000 
0.01700    153979536.00000000 96131904.00000000 243330096.00000000 101493.04687500 7904497.50000000 6245605.50000000 
0.01800    153010304.00000000 95535800.00000000 241809744.00000000 100671.26562500 7847388.00000000 6200768.00000000 
0.01900    151991520.00000000 94910728.00000000 240214176.00000000 99810.39843750  7787457.00000000 6153761.50000000 
0.02000    150926048.00000000 94256288.00000000 238543536.00000000 98910.21093750  7724787.50000000 6104575.50000000 
0.02100    149813984.00000000 93573112.00000000 236799904.00000000 97972.62500000  7659454.00000000 6053328.50000000 
0.02200    148657312.00000000 92862904.00000000 234986976.00000000 96999.25000000  7591531.50000000 6000007.50000000 
0.02300    147456848.00000000 92125192.00000000 233104784.00000000 95990.56250000  7521089.50000000 5944743.00000000 
0.02400    146214080.00000000 91361128.00000000 231155696.00000000 94948.54687500  7448249.50000000 5887565.00000000 
0.02500    144928832.00000000 90572328.00000000 229142672.00000000 93873.71875000  7373075.50000000 5828552.50000000 
0.02600    143606112.00000000 89758984.00000000 227066640.00000000 92767.97656250  7295617.50000000 5767772.50000000 
0.02700    142243696.00000000 88921608.00000000 224931376.00000000 91633.22656250  7216034.50000000 5705275.00000000 
0.02800    140845248.00000000 88061736.00000000 222737168.00000000 90470.07031250  7134383.50000000 5641194.00000000 
0.02900    139410192.00000000 87179192.00000000 220486672.00000000 89279.86718750  7050746.00000000 5575511.50000000 
0.03000    137942032.00000000 86276224.00000000 218184336.00000000 88064.46093750  6965242.00000000 5508365.00000000 
0.03100    136441184.00000000 85353368.00000000 215830304.00000000 86826.01562500  6877942.50000000 5439817.50000000 
0.03200    134909472.00000000 84410944.00000000 213427808.00000000 85564.67968750  6788973.50000000 5369948.00000000 
0.03300    133348616.00000000 83450536.00000000 210978608.00000000 84283.75781250  6698412.50000000 5298810.50000000 
0.03400    131759816.00000000 82473080.00000000 208486096.00000000 82982.23437500  6606382.50000000 5226526.00000000 
0.03500    130144864.00000000 81478776.00000000 205951488.00000000 81663.96093750  6512942.00000000 5153131.00000000 
0.03600    128505136.00000000 80469536.00000000 203377936.00000000 80329.28906250  6418243.00000000 5078727.50000000 
0.03700    126843232.00000000 79446304.00000000 200770032.00000000 78980.06250000  6322342.50000000 5003369.00000000 
0.03800    125159304.00000000 78408768.00000000 198127216.00000000 77618.18750000  6225356.50000000 4927157.50000000 
0.03900    123455880.00000000 77359824.00000000 195453040.00000000 76244.73437500  6127415.50000000 4850196.50000000 
0.04000    121734528.00000000 76299112.00000000 192750768.00000000 74861.34375000  6028572.00000000 4772513.50000000 
0.04100    119996176.00000000 75227960.00000000 190022224.00000000 73469.39843750  5928972.50000000 4694220.50000000 
0.04200    118243544.00000000 74147688.00000000 187269360.00000000 72071.00000000  5828692.50000000 4615336.00000000 
0.04300    116477720.00000000 73059000.00000000 184495488.00000000 70667.11718750  5727843.00000000 4536032.50000000 
0.04400    114700208.00000000 71962960.00000000 181703904.00000000 69259.41406250  5626474.00000000 4456365.50000000 
0.04500    112912984.00000000 70860688.00000000 178897136.00000000 67849.12500000  5524763.50000000 4376353.00000000 
0.04600    111117040.00000000 69753224.00000000 176075536.00000000 66438.03906250  5422794.00000000 4296148.00000000 
0.04700    109314120.00000000 68641128.00000000 173243312.00000000 65027.63671875  5320633.00000000 4215802.00000000 
0.04800    107506832.00000000 67525120.00000000 170401856.00000000 63618.77343750  5218357.50000000 4135324.75000000 
0.04900    105695392.00000000 66406332.00000000 167556288.00000000 62213.33984375  5116139.50000000 4054852.25000000 
0.05000    103881664.00000000 65286208.00000000 164705728.00000000 60812.52734375  5013989.00000000 3974448.00000000 
0.05100    102068232.00000000 64165708.00000000 161853712.00000000 59417.69140625  4912055.00000000 3894182.00000000 
0.05200    100254720.00000000 63045140.00000000 159003504.00000000 58029.62500000  4810311.50000000 3814124.00000000 
0.05300    98443896.00000000 61925628.00000000 156155040.00000000 56650.37890625  4709030.00000000 3734343.75000000 
0.05400    96637184.00000000 60808204.00000000 153313760.00000000 55280.59375000  4608157.00000000 3654893.00000000 
0.05500    94835424.00000000 59693620.00000000 150477600.00000000 53921.42968750  4507813.00000000 3575841.25000000 
0.05600    93039640.00000000 58582776.00000000 147654240.00000000 52574.16406250  4408088.50000000 3497267.25000000 
0.05700    91252808.00000000 57476500.00000000 144842512.00000000 51240.18750000  4309044.50000000 3419229.75000000 
0.05800    89474952.00000000 56375408.00000000 142042688.00000000 49919.92578125  4210798.00000000 3341771.25000000 
0.05900    87706112.00000000 55280480.00000000 139260000.00000000 48614.72656250  4113310.25000000 3264945.50000000 
0.06000    85950184.00000000 54192760.00000000 136495328.00000000 47325.31250000  4016774.00000000 3188826.50000000 
0.06100    84207472.00000000 53112256.00000000 133751360.00000000 46052.76171875  3921202.75000000 3113449.00000000 
0.06200    82478144.00000000 52039976.00000000 131028056.00000000 44797.92968750  3826654.75000000 3038881.50000000 
0.06300    80764472.00000000 50977112.00000000 128327840.00000000 43561.71484375  3733226.00000000 2965156.25000000 
0.06400    79066480.00000000 49923440.00000000 125652120.00000000 42344.37109375  3640942.75000000 2892325.50000000 
0.06500    77385768.00000000 48880120.00000000 123003864.00000000 41147.45312500  3549853.25000000 2820421.25000000 
0.06600    75723056.00000000 47847868.00000000 120383720.00000000 39970.69531250  3460044.00000000 2749511.75000000 
0.06700    74079976.00000000 46827128.00000000 117793560.00000000 38815.49218750  3371550.50000000 2679620.75000000 
0.06800    72456808.00000000 45818400.00000000 115233792.00000000 37681.87500000  3284407.00000000 2610777.75000000 
0.06900    70854656.00000000 44822176.00000000 112706544.00000000 36570.27343750  3198648.75000000 2543050.50000000 
0.07000    69273728.00000000 43838788.00000000 110212824.00000000 35481.66796875  3114334.00000000 2476408.00000000 
0.07100    67715648.00000000 42869172.00000000 107754968.00000000 34416.33593750  3031512.50000000 2410934.75000000 
0.07200    66180708.00000000 41913532.00000000 105332584.00000000 33374.32421875  2950185.25000000 2346638.75000000 
0.07300    64669728.00000000 40972544.00000000 102946872.00000000 32356.23242188  2870424.25000000 2283543.00000000 
0.07400    63183076.00000000 40045844.00000000 100599696.00000000 31362.19726562  2792217.25000000 2221678.00000000 
0.07500    61721364.00000000 39134796.00000000 98291080.00000000 30392.52343750  2715612.50000000 2161044.00000000 
0.07600    60285464.00000000 38238996.00000000 96022152.00000000 29447.31835938  2640614.00000000 2101690.50000000 
0.07700    58875180.00000000 37359060.00000000 93794576.00000000 28526.58593750  2567271.00000000 2043604.50000000 
0.07800    57491748.00000000 36495284.00000000 91607496.00000000 27630.63671875  2495569.75000000 1986814.75000000 
0.07900    56134936.00000000 35647500.00000000 89462616.00000000 26759.41601562  2425522.00000000 1931318.62500000 
0.08000    54805368.00000000 34816492.00000000 87360280.00000000 25913.01171875  2357157.25000000 1877135.25000000 
0.08100    53503156.00000000 34002332.00000000 85301096.00000000 25091.26953125  2290474.50000000 1824273.12500000 
0.08200    52228752.00000000 33204580.00000000 83284408.00000000 24294.10156250  2225477.00000000 1772727.87500000 
0.08300    50982292.00000000 32424248.00000000 81311320.00000000 23521.45312500  2162159.50000000 1722502.25000000 
0.08400    49763888.00000000 31660918.00000000 79382288.00000000 22773.17187500  2100539.50000000 1673589.37500000 
0.08500    48573396.00000000 30915008.00000000 77497584.00000000 22049.05664062  2040608.87500000 1626016.87500000 
0.08600    47411672.00000000 30186202.00000000 75656968.00000000 21348.90820312  1982365.37500000 1579745.37500000 
0.08700    46277908.00000000 29474878.00000000 73860592.00000000 20672.31445312  1925767.25000000 1534793.87500000 
0.08800    45172652.00000000 28780816.00000000 72108600.00000000 20018.94921875  1870830.25000000 1491136.37500000 
0.08900    44095344.00000000 28103964.00000000 70400776.00000000 19388.78710938  1817546.00000000 1448771.50000000 
0.09000    43046508.00000000 27444596.00000000 68737488.00000000 18781.24804688  1765894.00000000 1407693.12500000 
0.09100    42025600.00000000 26802366.00000000 67117888.00000000 18196.09960938  1715852.25000000 1367881.75000000 
0.09200    41032500.00000000 26177278.00000000 65541880.00000000 17632.60156250  1667404.62500000 1329321.87500000 
0.09300    40067384.00000000 25569380.00000000 64009908.00000000 17090.93164062  1620529.25000000 1292001.37500000 
0.09400    39129356.00000000 24978166.00000000 62520180.00000000 16570.06054688  1575211.87500000 1255906.12500000 
0.09500    38218736.00000000 24403928.00000000 61073816.00000000 16069.68945312  1531417.62500000 1221008.62500000 
0.09600    37335060.00000000 23846126.00000000 59669652.00000000 15589.35937500  1489132.25000000 1187298.25000000 
0.09700    36478164.00000000 23305004.00000000 58307416.00000000 15128.79296875  1448318.00000000 1154734.37500000 
0.09800    35647364.00000000 22780098.00000000 56986220.00000000 14687.10839844  1408950.87500000 1123334.87500000 
0.09900    34842688.00000000 22271240.00000000 55706300.00000000 14264.00976562  1370996.12500000 1093044.25000000 
0.10000    34063480.00000000 21777994.00000000 54466152.00000000 13858.78906250  1334426.37500000 1063847.50000000 
0.10100    33309344.00000000 21300522.00000000 53265908.00000000 13471.01953125  1299210.12500000 1035705.93750000 
0.10200    32580082.00000000 20838390.00000000 52104512.00000000 13100.18066406  1265308.75000000 1008615.50000000 
0.10300    31874786.00000000 20391028.00000000 50980992.00000000 12745.53125000  1232693.87500000 982541.68750000 
0.10400    31193554.00000000 19958702.00000000 49895272.00000000 12406.62500000  1201328.75000000 957455.31250000 
0.10500    30535224.00000000 19540728.00000000 48846520.00000000 12082.81640625  1171185.50000000 933328.93750000 
0.10600    29899712.00000000 19136898.00000000 47832984.00000000 11773.47460938  1142203.62500000 910132.93750000 
0.10700    29286476.00000000 18747094.00000000 46854872.00000000 11478.14843750  1114381.62500000 887841.87500000 
0.10800    28695026.00000000 18370502.00000000 45910896.00000000 11196.27343750  1087649.00000000 866433.31250000 
0.10900    28124446.00000000 18007408.00000000 45000316.00000000 10927.11816406  1061994.37500000 845865.31250000 
0.11000    27574566.00000000 17656894.00000000 44122380.00000000 10670.21191406  1037360.18750000 826119.87500000 
0.11100    27044688.00000000 17319100.00000000 43275884.00000000 10424.92968750  1013718.06250000 807155.50000000 
0.11200    26533992.00000000 16993366.00000000 42460404.00000000 10190.80957031  991036.31250000 788960.43750000 
0.11300    26042374.00000000 16679459.00000000 41674148.00000000 9967.20312500   969262.87500000 771481.00000000 
0.11400    25568930.00000000 16377064.00000000 40917424.00000000 9753.67578125   948376.87500000 754715.06250000 
0.11500    25113082.00000000 16085763.00000000 40188560.00000000 9549.56152344   928327.75000000 738613.25000000 
0.11600    24674158.00000000 15805074.00000000 39486520.00000000 9354.28808594   909091.81250000 723155.62500000 
0.11700    24251814.00000000 15534901.00000000 38810492.00000000 9167.55761719   890611.06250000 708309.18750000 
0.11800    23845100.00000000 15274622.00000000 38159948.00000000 8988.57519531   872861.37500000 694051.93750000 
0.11900    23453682.00000000 15023931.00000000 37533100.00000000 8817.09082031   855815.81250000 680349.25000000 
0.12000    23076954.00000000 14782540.00000000 36929780.00000000 8652.54101562   839422.43750000 667168.68750000 
0.12100    22714240.00000000 14550157.00000000 36349100.00000000 8494.46972656   823664.06250000 654498.12500000 
0.12200    22364832.00000000 14326242.00000000 35789528.00000000 8342.37207031   808492.62500000 642301.62500000 
0.12300    22028314.00000000 14110495.00000000 35250752.00000000 8195.88671875   793880.56250000 630552.50000000 
0.12400    21704200.00000000 13902639.00000000 34731432.00000000 8054.55664062   779796.06250000 619227.06250000 
0.12500    21391610.00000000 13702229.00000000 34230928.00000000 7918.01562500   766202.81250000 608305.81250000 
0.12600    21090288.00000000 13508951.00000000 33748140.00000000 7785.85009766   753077.93750000 597756.62500000 
0.12700    20799444.00000000 13322537.00000000 33282308.00000000 7657.67285156   740385.68750000 587556.68750000 
0.12800    20518686.00000000 13142448.00000000 32832552.00000000 7533.18994141   728100.56250000 577687.00000000 
0.12900    20247452.00000000 12968591.00000000 32398260.00000000 7411.99072266   716192.81250000 568122.81250000 
0.13000    19985124.00000000 12800532.00000000 31978220.00000000 7293.82080078   704634.56250000 558843.50000000 
0.13100    19731200.00000000 12637926.00000000 31571732.00000000 7178.38085938   693399.87500000 549826.56250000 
0.13200    19485358.00000000 12480351.00000000 31178180.00000000 7065.35595703   682465.12500000 541057.62500000 
0.13300    19247084.00000000 12327813.00000000 30796764.00000000 6954.51464844   671806.87500000 532512.12500000 
0.13400    19015678.00000000 12179827.00000000 30426664.00000000 6845.59326172   661398.06250000 524176.56250000 
0.13500    18790858.00000000 12036157.00000000 30067066.00000000 6738.40576172   651228.56250000 516028.53125000 
0.13600    18571960.00000000 11896485.00000000 29717376.00000000 6632.67675781   641257.81250000 508056.37500000 
0.13700    18358910.00000000 11760529.00000000 29377200.00000000 6528.21777344   631489.00000000 500240.34375000 
0.13800    18151064.00000000 11628072.00000000 29045104.00000000 6424.90234375   621885.75000000 492566.96875000 
0.13900    17948136.00000000 11498820.00000000 28721162.00000000 6322.56054688   612438.62500000 485021.81250000 
0.14000    17749572.00000000 11372567.00000000 28404638.00000000 6220.98925781   603134.87500000 477597.25000000 
0.14100    17555214.00000000 11249064.00000000 28094862.00000000 6120.15966797   593949.06250000 470274.00000000 
0.14200    17364832.00000000 11128041.00000000 27791078.00000000 6019.82812500   584874.68750000 463043.09375000 
0.14300    17177484.00000000 11009461.00000000 27493100.00000000 5920.00195312   575896.18750000 455894.75000000 
0.14400    16993370.00000000 10892881.00000000 27199980.00000000 5820.51171875   566999.31250000 448817.06250000 
0.14500    16811988.00000000 10778264.00000000 26911738.00000000 5721.39404297   558182.87500000 441803.12500000 
0.14600    16633333.00000000 10665358.00000000 26627750.00000000 5622.52099609   549426.43750000 434846.43750000 
0.14700    16456903.00000000 10554075.00000000 26347204.00000000 5523.84619141   540721.37500000 427934.06250000 
0.14800    16282221.00000000 10444024.00000000 26070294.00000000 5425.34082031   532063.87500000 421062.43750000 
0.14900    16109391.00000000 10335320.00000000 25796108.00000000 5326.93896484   523444.09375000 414223.71875000 
0.15000    15938065.00000000 10227726.00000000 25524516.00000000 5228.73437500   514855.96875000 407416.46875000 
0.15100    15768095.00000000 10121018.00000000 25255122.00000000 5130.60253906   506291.62500000 400632.46875000 
0.15200    15599288.00000000 10015216.00000000 24987752.00000000 5032.68408203   497754.03125000 393870.71875000 
0.15300    15431415.00000000 9910028.00000000 24722204.00000000 4934.87597656   489233.53125000 387125.21875000 
0.15400    15264168.00000000 9805448.00000000 24457728.00000000 4837.23535156   480725.84375000 380392.68750000 
0.15500    15097667.00000000 9701441.00000000 24194544.00000000 4739.83837891   472232.21875000 373673.06250000 
0.15600    14931637.00000000 9597732.00000000 23932158.00000000 4642.66259766   463749.06250000 366963.59375000 
0.15700    14765951.00000000 9494486.00000000 23670486.00000000 4545.80810547   455277.56250000 360264.68750000 
0.15800    14600494.00000000 9391309.00000000 23409166.00000000 4449.27294922   446811.09375000 353574.87500000 
0.15900    14435309.00000000 9288359.00000000 23148292.00000000 4353.15966797   438358.12500000 346892.31250000 
0.16000    14270117.00000000 9185505.00000000 22887738.00000000 4257.48437500   429912.21875000 340218.00000000 
0.16100    14104940.00000000 9082787.00000000 22627222.00000000 4162.34326172   421482.28125000 333555.03125000 
0.16200    13939728.00000000 8980028.00000000 22366604.00000000 4067.80590820   413062.21875000 326902.12500000 
0.16300    13774427.00000000 8877230.00000000 22105944.00000000 3973.90502930   404659.15625000 320265.90625000 
0.16400    13609046.00000000 8774377.00000000 21845098.00000000 3880.76538086   396276.40625000 313639.62500000 
0.16500    13443400.00000000 8671439.00000000 21583916.00000000 3788.42578125   387911.03125000 307033.65625000 
0.16600    13277700.00000000 8568465.00000000 21322632.00000000 3696.95800781   379577.00000000 300443.34375000 
0.16700    13111641.00000000 8465330.00000000 21060792.00000000 3606.42871094   371265.46875000 293875.75000000 
0.16800    12945411.00000000 8362040.00000000 20798762.00000000 3516.88989258   362986.96875000 287329.06250000 
0.16900    12779082.00000000 8258688.00000000 20536576.00000000 3428.53588867   354748.21875000 280814.93750000 
0.17000    12612636.00000000 8155179.50000000 20273962.00000000 3341.31811523   346547.40625000 274331.56250000 
