# SAXS profile: number of points = 501, q_min = 0, q_max = 0.5, delta_q = 0.001
#    q    intensity 
0.00000    162233488.00000000 101203528.00000000 256269968.00000000 104324.25000000 8228100.00000000 6498522.50000000 
0.00100    162191648.00000000 101173872.00000000 256196816.00000000 104286.03906250 8225415.50000000 6496450.50000000 
0.00200    162057472.00000000 101088112.00000000 255979328.00000000 104173.76562500 8217489.00000000 6490149.50000000 
0.00300    161830000.00000000 100944984.00000000 255617728.00000000 103987.07031250 8204177.50000000 6479699.50000000 
0.00400    161506464.00000000 100745184.00000000 255111728.00000000 103725.25000000 8185614.00000000 6465109.00000000 
0.00500    161090896.00000000 100489144.00000000 254461424.00000000 103391.21875000 8161865.00000000 6446350.50000000 
0.00600    160588192.00000000 100177456.00000000 253670320.00000000 102983.61718750 8132890.00000000 6423595.00000000 
0.00700    159988336.00000000 99811200.00000000 252738128.00000000 102505.83593750 8098894.50000000 6396767.00000000 
0.00800    159309408.00000000 99391864.00000000 251668128.00000000 101957.17187500 8059852.50000000 6366055.50000000 
0.00900    158544976.00000000 98918904.00000000 250464288.00000000 101339.81250000 8015860.50000000 6331478.00000000 
0.01000    157697072.00000000 98393432.00000000 249126672.00000000 100655.13281250 7967076.00000000 6293040.50000000 
0.01100    156762432.00000000 97815560.00000000 247657840.00000000 99905.42968750  7913621.00000000 6250987.50000000 
0.01200    155745568.00000000 97188416.00000000 246062992.00000000 99092.65625000  7855547.50000000 6205267.50000000 
0.01300    154652896.00000000 96511016.00000000 244343152.00000000 98218.68750000  7793030.00000000 6156105.00000000 
0.01400    153484336.00000000 95788512.00000000 242503456.00000000 97284.90625000  7726281.50000000 6103487.00000000 
0.01500    152242560.00000000 95019304.00000000 240547952.00000000 96294.92968750  7655377.50000000 6047712.50000000 
0.01600    150927392.00000000 94206264.00000000 238481344.00000000 95251.24218750  7580469.00000000 5988784.50000000 
0.01700    149544528.00000000 93349984.00000000 236304896.00000000 94156.60937500  7501857.00000000 5926783.50000000 
0.01800    148096160.00000000 92453392.00000000 234024368.00000000 93013.00000000  7419530.00000000 5861994.50000000 
0.01900    146583488.00000000 91518280.00000000 231646352.00000000 91822.43750000  7333819.00000000 5794491.50000000 
0.02000    145012032.00000000 90545520.00000000 229174000.00000000 90589.91406250  7244840.00000000 5724424.00000000 
0.02100    143385280.00000000 89536552.00000000 226612576.00000000 89317.68750000  7152859.50000000 5651969.50000000 
0.02200    141702848.00000000 88496376.00000000 223963904.00000000 88007.07812500  7058011.50000000 5577275.50000000 
0.02300    139971440.00000000 87423296.00000000 221238720.00000000 86663.92187500  6960498.00000000 5500441.00000000 
0.02400    138192112.00000000 86321600.00000000 218437680.00000000 85289.45312500  6860577.50000000 5421712.00000000 
0.02500    136371424.00000000 85191920.00000000 215570000.00000000 83887.14843750  6758444.00000000 5341286.00000000 
0.02600    134507136.00000000 84037768.00000000 212638848.00000000 82460.45312500  6654267.50000000 5259146.00000000 
0.02700    132609568.00000000 82861168.00000000 209648784.00000000 81012.00781250  6548315.50000000 5175680.00000000 
0.02800    130678352.00000000 81664016.00000000 206606032.00000000 79545.39843750  6440761.00000000 5090921.50000000 
0.02900    128717296.00000000 80447160.00000000 203517712.00000000 78063.90625000  6331840.50000000 5005048.50000000 
0.03000    126730008.00000000 79214584.00000000 200386848.00000000 76569.32031250  6221725.00000000 4918272.00000000 
0.03100    124720312.00000000 77967032.00000000 197219824.00000000 75066.56250000  6110747.50000000 4830752.50000000 
0.03200    122690440.00000000 76708512.00000000 194024432.00000000 73557.60937500  5998901.50000000 4742616.50000000 
0.03300    120646320.00000000 75439824.00000000 190802256.00000000 72045.04687500  5886611.00000000 4654056.00000000 
0.03400    118589640.00000000 74163416.00000000 187560416.00000000 70531.90625000  5773901.00000000 4565169.00000000 
0.03500    116523320.00000000 72880208.00000000 184302528.00000000 69020.64843750  5661008.50000000 4476155.00000000 
0.03600    114451144.00000000 71592344.00000000 181036048.00000000 67514.24218750  5548204.00000000 4387154.00000000 
0.03700    112377192.00000000 70303136.00000000 177767296.00000000 66015.75781250  5435591.50000000 4298343.00000000 
0.03800    110303720.00000000 69013728.00000000 174496928.00000000 64525.94531250  5323340.50000000 4209770.00000000 
0.03900    108232936.00000000 67726584.00000000 171232128.00000000 63048.69531250  5211685.00000000 4121665.50000000 
0.04000    106169240.00000000 66443396.00000000 167977408.00000000 61585.58203125  5100783.00000000 4034120.00000000 
0.04100    104115632.00000000 65165760.00000000 164736944.00000000 60139.19531250  4990686.50000000 3947245.50000000 
0.04200    102073568.00000000 63894864.00000000 161514192.00000000 58710.78125000  4881665.50000000 3861193.50000000 
0.04300    100047024.00000000 62633468.00000000 158316368.00000000 57302.07812500  4773827.50000000 3776024.75000000 
0.04400    98037312.00000000 61382400.00000000 155143664.00000000 55915.01953125  4667256.50000000 3691911.75000000 
0.04500    96047904.00000000 60143024.00000000 152004656.00000000 54552.07421875  4562166.00000000 3608910.75000000 
0.04600    94079552.00000000 58917380.00000000 148896592.00000000 53213.18359375  4458572.00000000 3527099.00000000 
0.04700    92135616.00000000 57705828.00000000 145827504.00000000 51899.78515625  4356642.00000000 3446616.00000000 
0.04800    90218048.00000000 56510524.00000000 142801328.00000000 50613.90234375  4256414.50000000 3367474.25000000 
0.04900    88329024.00000000 55332556.00000000 139816768.00000000 49355.47265625  4158099.25000000 3289775.50000000 
0.05000    86469704.00000000 54172808.00000000 136881520.00000000 48126.13671875  4061671.50000000 3213602.25000000 
0.05100    84641464.00000000 53032576.00000000 133993336.00000000 46926.23437500  3967260.75000000 3138989.00000000 
0.05200    82847024.00000000 51912348.00000000 131158112.00000000 45756.42968750  3874866.75000000 3065973.00000000 
0.05300    81086120.00000000 50813592.00000000 128375312.00000000 44617.35937500  3784616.50000000 2994635.00000000 
0.05400    79360552.00000000 49736484.00000000 125649888.00000000 43508.64843750  3696484.50000000 2924978.75000000 
0.05500    77672552.00000000 48681984.00000000 122980840.00000000 42431.08203125  3610576.00000000 2857057.25000000 
0.05600    76021504.00000000 47651068.00000000 120371712.00000000 41384.82031250  3526862.00000000 2790858.50000000 
0.05700    74409224.00000000 46643700.00000000 117821896.00000000 40369.66796875  3445355.25000000 2726440.00000000 
0.05800    72835480.00000000 45659940.00000000 115334464.00000000 39385.39453125  3366132.75000000 2663814.25000000 
0.05900    71301440.00000000 44701396.00000000 112909048.00000000 38431.37890625  3289156.00000000 2602927.75000000 
0.06000    69807512.00000000 43767728.00000000 110546232.00000000 37508.22656250  3214421.50000000 2543839.50000000 
0.06100    68354248.00000000 42858708.00000000 108247624.00000000 36614.98437500  3141929.50000000 2486521.25000000 
0.06200    66940748.00000000 41975016.00000000 106011800.00000000 35750.95703125  3071653.25000000 2430954.75000000 
0.06300    65567668.00000000 41116700.00000000 103840896.00000000 34915.66015625  3003616.75000000 2377128.75000000 
0.06400    64235340.00000000 40283172.00000000 101733288.00000000 34108.50000000  2937729.75000000 2324999.25000000 
0.06500    62943380.00000000 39474944.00000000 99690200.00000000 33328.84765625  2874009.50000000 2274616.50000000 
0.06600    61691056.00000000 38691808.00000000 97709584.00000000 32576.10546875  2812334.00000000 2225858.75000000 
0.06700    60478428.00000000 37933528.00000000 95791648.00000000 31849.16992188  2752753.00000000 2178723.75000000 
0.06800    59304680.00000000 37199508.00000000 93935696.00000000 31146.94531250  2695182.25000000 2133206.50000000 
0.06900    58170096.00000000 36490340.00000000 92141304.00000000 30469.05078125  2639561.75000000 2089239.62500000 
0.07000    57073404.00000000 35804232.00000000 90407064.00000000 29814.56640625  2585823.50000000 2046772.37500000 
0.07100    56013636.00000000 35142232.00000000 88731112.00000000 29181.74023438  2533975.50000000 2005760.50000000 
0.07200    54990700.00000000 34502624.00000000 87113288.00000000 28570.62890625  2483888.75000000 1966177.00000000 
0.07300    54002880.00000000 33885836.00000000 85552568.00000000 27979.56835938  2435509.25000000 1927960.00000000 
0.07400    53050364.00000000 33291304.00000000 84046888.00000000 27408.17187500  2388812.00000000 1891048.25000000 
0.07500    52132008.00000000 32717698.00000000 82594968.00000000 26854.85351562  2343677.75000000 1855396.25000000 
0.07600    51245860.00000000 32165100.00000000 81195096.00000000 26318.80078125  2300064.00000000 1820957.00000000 
0.07700    50391876.00000000 31632616.00000000 79846720.00000000 25799.41796875  2257919.00000000 1787690.25000000 
0.07800    49568284.00000000 31119372.00000000 78545920.00000000 25295.48632812  2217147.25000000 1755501.62500000 
0.07900    48774348.00000000 30625006.00000000 77293944.00000000 24805.73828125  2177689.25000000 1724340.62500000 
0.08000    48009332.00000000 30148804.00000000 76086024.00000000 24330.05078125  2139486.00000000 1694205.00000000 
0.08100    47271220.00000000 29690064.00000000 74922296.00000000 23867.22460938  2102467.75000000 1664999.62500000 
0.08200    46559200.00000000 29247910.00000000 73800448.00000000 23416.10742188  2066550.75000000 1636668.37500000 
0.08300    45872592.00000000 28821690.00000000 72718272.00000000 22976.24804688  2031672.62500000 1609179.37500000 
0.08400    45209500.00000000 28410828.00000000 71674176.00000000 22546.82031250  1997778.50000000 1582479.62500000 
0.08500    44569152.00000000 28014400.00000000 70666440.00000000 22127.00976562  1964804.37500000 1556492.75000000 
0.08600    43950896.00000000 27631812.00000000 69693512.00000000 21716.05078125  1932674.87500000 1531192.37500000 
0.08700    43352224.00000000 27262450.00000000 68752872.00000000 21313.70507812  1901372.00000000 1506526.00000000 
0.08800    42773124.00000000 26905110.00000000 67843728.00000000 20919.10937500  1870782.87500000 1482464.25000000 
0.08900    42212408.00000000 26559416.00000000 66962616.00000000 20531.46093750  1840900.50000000 1458943.62500000 
0.09000    41668672.00000000 26224830.00000000 66108896.00000000 20150.63867188  1811656.00000000 1435920.75000000 
0.09100    41140364.00000000 25900202.00000000 65281644.00000000 19776.09765625  1782981.12500000 1413375.37500000 
0.09200    40627124.00000000 25585532.00000000 64477552.00000000 19407.27539062  1754854.25000000 1391232.87500000 
0.09300    40127900.00000000 25279620.00000000 63695644.00000000 19043.94531250  1727229.00000000 1369509.50000000 
0.09400    39641792.00000000 24982186.00000000 62934576.00000000 18685.58203125  1700037.37500000 1348148.12500000 
0.09500    39167024.00000000 24692028.00000000 62192524.00000000 18331.94726562  1673295.37500000 1327104.75000000 
0.09600    38703868.00000000 24409120.00000000 61467980.00000000 17982.81445312  1646918.00000000 1306370.87500000 
0.09700    38250692.00000000 24132926.00000000 60760028.00000000 17638.02148438  1620886.25000000 1285900.25000000 
0.09800    37806724.00000000 23862848.00000000 60066908.00000000 17297.30273438  1595181.37500000 1265688.50000000 
0.09900    37371188.00000000 23597852.00000000 59388116.00000000 16960.63281250  1569772.00000000 1245711.50000000 
0.10000    36943536.00000000 23338092.00000000 58720276.00000000 16627.41992188  1544625.25000000 1225940.25000000 
0.10100    36522572.00000000 23082546.00000000 58064432.00000000 16298.21191406  1519740.75000000 1206356.00000000 
0.10200    36108136.00000000 22831188.00000000 57418708.00000000 15972.64648438  1495064.50000000 1186943.62500000 
0.10300    35699244.00000000 22583342.00000000 56781732.00000000 15650.57031250  1470604.75000000 1167701.25000000 
0.10400    35295408.00000000 22338830.00000000 56152780.00000000 15332.05273438  1446332.50000000 1148592.50000000 
0.10500    34896024.00000000 22097212.00000000 55531328.00000000 15017.35937500  1422267.00000000 1129647.25000000 
0.10600    34500960.00000000 21857982.00000000 54916248.00000000 14705.98925781  1398358.87500000 1110811.37500000 
0.10700    34109096.00000000 21620880.00000000 54306528.00000000 14398.27734375  1374636.75000000 1092125.37500000 
0.10800    33720628.00000000 21385902.00000000 53701648.00000000 14094.35937500  1351077.75000000 1073542.00000000 
0.10900    33335120.00000000 21152480.00000000 53100940.00000000 13794.24707031  1327644.12500000 1055084.00000000 
0.11000    32951460.00000000 20920372.00000000 52504240.00000000 13497.80761719  1304388.75000000 1036736.93750000 
0.11100    32570198.00000000 20689588.00000000 51910276.00000000 13205.19433594  1281306.00000000 1018500.00000000 
0.11200    32190790.00000000 20459518.00000000 51319308.00000000 12916.70312500  1258354.87500000 1000394.68750000 
0.11300    31812550.00000000 20230588.00000000 50730300.00000000 12632.16992188  1235574.12500000 982389.31250000 
0.11400    31436036.00000000 20002060.00000000 50143328.00000000 12351.78320312  1212958.25000000 964511.62500000 
0.11500    31060538.00000000 19774246.00000000 49557724.00000000 12075.55859375  1190492.00000000 946752.75000000 
0.11600    30685842.00000000 19546896.00000000 48973592.00000000 11803.71972656  1168206.50000000 929121.56250000 
0.11700    30312378.00000000 19319648.00000000 48390712.00000000 11536.09082031  1146092.62500000 911612.31250000 
0.11800    29939382.00000000 19092936.00000000 47808632.00000000 11272.86425781  1124163.87500000 894239.93750000 
0.11900    29567276.00000000 18866252.00000000 47227488.00000000 11014.16894531  1102413.37500000 877010.62500000 
0.12000    29195822.00000000 18639538.00000000 46646836.00000000 10760.03125000  1080866.87500000 859918.75000000 
0.12100    28825142.00000000 18413182.00000000 46067004.00000000 10510.53710938  1059524.87500000 842983.31250000 
0.12200    28455098.00000000 18186966.00000000 45487828.00000000 10265.52636719  1038377.00000000 826206.18750000 
0.12300    28085710.00000000 17961014.00000000 44909600.00000000 10025.22363281  1017457.87500000 809590.06250000 
0.12400    27717044.00000000 17734736.00000000 44331948.00000000 9789.63085938   996750.06250000 793141.93750000 
0.12500    27349202.00000000 17509194.00000000 43755096.00000000 9558.56835938   976285.81250000 776866.43750000 
0.12600    26982154.00000000 17283452.00000000 43179244.00000000 9332.18945312   956054.56250000 760781.25000000 
0.12700    26616176.00000000 17058142.00000000 42604612.00000000 9110.47265625   936070.43750000 744879.25000000 
0.12800    26250808.00000000 16833090.00000000 42031024.00000000 8893.45996094   916329.62500000 729161.25000000 
0.12900    25886810.00000000 16608313.00000000 41458556.00000000 8681.03027344   896858.62500000 713653.18750000 
0.13000    25523968.00000000 16383993.00000000 40887732.00000000 8473.10449219   877638.68750000 698343.56250000 
0.13100    25162462.00000000 16160180.00000000 40318188.00000000 8269.72167969   858701.12500000 683236.31250000 
0.13200    24802410.00000000 15936926.00000000 39751040.00000000 8070.67578125   840019.81250000 668347.93750000 
0.13300    24443810.00000000 15714298.00000000 39185696.00000000 7876.14355469   821623.12500000 653667.00000000 
0.13400    24086832.00000000 15492348.00000000 38622564.00000000 7685.91503906   803508.12500000 639210.81250000 
0.13500    23731914.00000000 15271317.00000000 38062000.00000000 7499.89501953   785678.06250000 624976.75000000 
0.13600    23378596.00000000 15051148.00000000 37504084.00000000 7318.01123047   768130.50000000 610962.31250000 
0.13700    23027542.00000000 14831908.00000000 36948588.00000000 7140.13867188   750871.37500000 597172.12500000 
0.13800    22678484.00000000 14613639.00000000 36396768.00000000 6966.25292969   733901.81250000 583614.25000000 
0.13900    22331910.00000000 14396629.00000000 35848020.00000000 6796.29833984   717220.37500000 570285.37500000 
0.14000    21987588.00000000 14180775.00000000 35302268.00000000 6630.10742188   700841.00000000 557186.75000000 
0.14100    21645820.00000000 13966262.00000000 34760628.00000000 6467.56103516   684741.87500000 544315.62500000 
0.14200    21306762.00000000 13752996.00000000 34222908.00000000 6308.55761719   668938.50000000 531674.25000000 
0.14300    20970462.00000000 13541335.00000000 33688952.00000000 6153.05615234   653419.81250000 519266.25000000 
0.14400    20636624.00000000 13331274.00000000 33159192.00000000 6000.90380859   638194.00000000 507086.96875000 
0.14500    20306398.00000000 13122663.00000000 32633914.00000000 5852.03906250   623244.50000000 495133.68750000 
0.14600    19978700.00000000 12915779.00000000 32113280.00000000 5706.37500000   608587.06250000 483409.75000000 
0.14700    19654498.00000000 12710761.00000000 31597458.00000000 5563.84716797   594208.37500000 471907.34375000 
0.14800    19333198.00000000 12507377.00000000 31086036.00000000 5424.28369141   580104.43750000 460626.56250000 
0.14900    19015488.00000000 12305901.00000000 30580204.00000000 5287.58886719   566274.93750000 449565.96875000 
0.15000    18700914.00000000 12106422.00000000 30079002.00000000 5153.74072266   552717.43750000 438723.50000000 
0.15100    18389828.00000000 11908870.00000000 29583118.00000000 5022.70166016   539432.12500000 428098.15625000 
0.15200    18082394.00000000 11713532.00000000 29092812.00000000 4894.30908203   526403.25000000 417681.87500000 
0.15300    17778460.00000000 11520126.00000000 28607672.00000000 4768.58105469   513639.46875000 407479.31250000 
0.15400    17478230.00000000 11328790.00000000 28128294.00000000 4645.37988281   501127.78125000 397474.06250000 
0.15500    17181250.00000000 11139793.00000000 27654374.00000000 4524.64746094   488866.25000000 387677.03125000 
0.15600    16888220.00000000 10952674.00000000 27186062.00000000 4406.37597656   476851.28125000 378079.84375000 
0.15700    16598803.00000000 10768005.00000000 26723692.00000000 4290.55517578   465083.53125000 368680.90625000 
0.15800    16313276.00000000 10585494.00000000 26267236.00000000 4177.07714844   453548.31250000 359469.50000000 
0.15900    16031376.00000000 10405401.00000000 25816436.00000000 4065.95678711   442251.87500000 350445.25000000 
0.16000    15753188.00000000 10227430.00000000 25371508.00000000 3957.11743164   431175.62500000 341613.18750000 
0.16100    15478931.00000000 10051884.00000000 24932574.00000000 3850.56640625   420332.93750000 332958.00000000 
0.16200    15208434.00000000 9878646.00000000 24499758.00000000 3746.25488281   409706.43750000 324479.59375000 
0.16300    14941727.00000000 9707630.00000000 24072618.00000000 3644.18481445   399300.78125000 316177.53125000 
0.16400    14678750.00000000 9539127.00000000 23651552.00000000 3544.32983398   389109.31250000 308050.18750000 
0.16500    14419771.00000000 9372980.00000000 23236544.00000000 3446.71020508   379119.50000000 300091.87500000 
0.16600    14164552.00000000 9208985.00000000 22827488.00000000 3351.29956055   369337.75000000 292292.62500000 
0.16700    13912941.00000000 9047537.00000000 22424566.00000000 3258.01928711   359755.53125000 284664.03125000 
0.16800    13665009.00000000 8888194.00000000 22027444.00000000 3166.97558594   350368.06250000 277184.00000000 
0.16900    13421215.00000000 8731492.00000000 21635966.00000000 3078.15258789   341185.93750000 269869.37500000 
0.17000    13180844.00000000 8576955.00000000 21251026.00000000 2991.45800781   332185.15625000 262704.50000000 
