# SAXS profile: number of points = 501, q_min = 0, q_max = 0.5, delta_q = 0.001
#    q    intensity 
0.00000    162231440.00000000 101201736.00000000 256270256.00000000 106666.21875000 8319911.50000000 6571083.00000000 
0.00100    162188112.00000000 101171536.00000000 256195136.00000000 106626.88281250 8317188.50000000 6568933.00000000 
0.00200    162050608.00000000 101082440.00000000 255968464.00000000 106508.85156250 8308861.00000000 6562374.00000000 
0.00300    161813088.00000000 100934704.00000000 255591104.00000000 106313.24218750 8295066.00000000 6551504.00000000 
0.00400    161474544.00000000 100725896.00000000 255061936.00000000 106040.17187500 8275706.00000000 6536275.00000000 
0.00500    161041392.00000000 100459008.00000000 254381840.00000000 105690.25000000 8250939.00000000 6516838.50000000 
0.00600    160515776.00000000 100135904.00000000 253559984.00000000 105263.92968750 8220880.00000000 6493103.50000000 
0.00700    159891408.00000000 99754400.00000000 252590112.00000000 104764.06250000 8185463.00000000 6465285.50000000 
0.00800    159185200.00000000 99317672.00000000 251475232.00000000 104190.41406250 8144819.00000000 6433353.50000000 
0.00900    158388512.00000000 98826272.00000000 250220432.00000000 103545.64062500 8099077.50000000 6397380.50000000 
0.01000    157504304.00000000 98278864.00000000 248831232.00000000 102831.02343750 8048418.00000000 6357546.00000000 
0.01100    156532160.00000000 97678472.00000000 247303056.00000000 102047.54687500 7992820.50000000 6313831.50000000 
0.01200    155476288.00000000 97026048.00000000 245645024.00000000 101199.52343750 7932571.50000000 6266439.00000000 
0.01300    154340416.00000000 96324072.00000000 243859168.00000000 100288.46093750 7867722.50000000 6215408.00000000 
0.01400    153126192.00000000 95574216.00000000 241949168.00000000 99315.51562500  7798462.00000000 6160903.00000000 
0.01500    151835760.00000000 94778328.00000000 239922320.00000000 98284.44531250  7724938.00000000 6103134.50000000 
0.01600    150472496.00000000 93934264.00000000 237777312.00000000 97198.14062500  7647425.50000000 6042087.50000000 
0.01700    149038176.00000000 93048712.00000000 235522912.00000000 96059.09375000  7565978.50000000 5978019.00000000 
0.01800    147537808.00000000 92121552.00000000 233164176.00000000 94870.00781250  7480847.00000000 5911051.00000000 
0.01900    145973232.00000000 91154896.00000000 230704352.00000000 93634.08593750  7392302.00000000 5841349.50000000 
0.02000    144349648.00000000 90149056.00000000 228148944.00000000 92354.82812500  7300444.00000000 5769010.00000000 
0.02100    142667424.00000000 89109832.00000000 225503616.00000000 91034.62500000  7205553.00000000 5694314.50000000 
0.02200    140932976.00000000 88036408.00000000 222774368.00000000 89678.03125000  7107780.00000000 5617365.50000000 
0.02300    139149424.00000000 86931656.00000000 219966864.00000000 88287.10156250  7007449.00000000 5538410.50000000 
0.02400    137317552.00000000 85798288.00000000 217086144.00000000 86866.31250000  6904674.50000000 5457473.50000000 
0.02500    135444752.00000000 84637552.00000000 214137648.00000000 85417.28125000  6799706.00000000 5374827.00000000 
0.02600    133532304.00000000 83453616.00000000 211128400.00000000 83944.52343750  6692802.50000000 5290663.50000000 
0.02700    131585872.00000000 82248816.00000000 208063040.00000000 82451.52343750  6584182.00000000 5205063.50000000 
0.02800    129606632.00000000 81021328.00000000 204947792.00000000 80941.63281250  6474114.00000000 5118299.00000000 
0.02900    127601152.00000000 79777432.00000000 201788592.00000000 79417.15625000  6362718.50000000 5030576.50000000 
0.03000    125570824.00000000 78518312.00000000 198590864.00000000 77882.26562500  6250251.50000000 4941953.50000000 
0.03100    123520600.00000000 77248088.00000000 195362528.00000000 76339.99218750  6136989.50000000 4852708.50000000 
0.03200    121454120.00000000 75966704.00000000 192108240.00000000 74792.91406250  6023128.00000000 4762952.50000000 
0.03300    119374600.00000000 74675928.00000000 188830400.00000000 73244.61718750  5908808.50000000 4672829.00000000 
0.03400    117286184.00000000 73378688.00000000 185537664.00000000 71697.28125000  5794364.00000000 4582564.50000000 
0.03500    115191848.00000000 72077632.00000000 182235856.00000000 70154.32031250  5679841.50000000 4492281.50000000 
0.03600    113094320.00000000 70774000.00000000 178931504.00000000 68618.01562500  5565530.00000000 4402142.50000000 
0.03700    110998544.00000000 69471840.00000000 175625632.00000000 67090.46875000  5451644.50000000 4312261.50000000 
0.03800    108907296.00000000 68170392.00000000 172326592.00000000 65575.99218750  5338241.50000000 4222816.50000000 
0.03900    106821568.00000000 66873980.00000000 169038752.00000000 64074.65234375  5225629.00000000 4133932.00000000 
0.04000    104747584.00000000 65583536.00000000 165764640.00000000 62590.04296875  5113833.50000000 4045720.75000000 
0.04100    102686152.00000000 64300432.00000000 162511632.00000000 61123.98828125  5003181.00000000 3958373.75000000 
0.04200    100640672.00000000 63026680.00000000 159282912.00000000 59678.38281250  4893686.50000000 3871926.00000000 
0.04300    98613712.00000000 61764084.00000000 156083552.00000000 58254.63281250  4785487.00000000 3786552.75000000 
0.04400    96607448.00000000 60514424.00000000 152917040.00000000 56855.00000000  4678845.50000000 3702307.00000000 
0.04500    94625240.00000000 59278580.00000000 149786592.00000000 55479.91796875  4573740.00000000 3619310.50000000 
0.04600    92668088.00000000 58058332.00000000 146697136.00000000 54131.24609375  4470352.00000000 3537622.75000000 
0.04700    90739168.00000000 56854884.00000000 143649216.00000000 52810.37890625  4368753.50000000 3457350.75000000 
0.04800    88838416.00000000 55669464.00000000 140647712.00000000 51518.39062500  4269041.00000000 3378564.50000000 
0.04900    86970072.00000000 54503444.00000000 137696288.00000000 50255.39062500  4171302.75000000 3301304.00000000 
0.05000    85135168.00000000 53357164.00000000 134795456.00000000 49022.89453125  4075600.50000000 3225667.75000000 
0.05100    83333680.00000000 52232264.00000000 131948016.00000000 47821.41406250  3982019.50000000 3151703.00000000 
0.05200    81569464.00000000 51129532.00000000 129158264.00000000 46650.22656250  3890589.50000000 3079413.25000000 
0.05300    79840040.00000000 50049868.00000000 126426296.00000000 45510.73828125  3801317.50000000 3008836.50000000 
0.05400    78150192.00000000 48993392.00000000 123753104.00000000 44403.48437500  3714300.00000000 2940034.50000000 
0.05500    76498176.00000000 47960896.00000000 121141984.00000000 43327.18750000  3629547.50000000 2873011.00000000 
0.05600    74886360.00000000 46952788.00000000 118592560.00000000 42282.95312500  3547041.50000000 2807790.75000000 
0.05700    73315160.00000000 45969916.00000000 116106080.00000000 41270.28515625  3466845.00000000 2744347.75000000 
0.05800    71783080.00000000 45011704.00000000 113684480.00000000 40288.42578125  3388927.25000000 2682711.25000000 
0.05900    70293384.00000000 44079268.00000000 111326112.00000000 39337.35546875  3313273.75000000 2622863.75000000 
0.06000    68843912.00000000 43172708.00000000 109033232.00000000 38416.42187500  3239890.00000000 2564814.75000000 
0.06100    67435456.00000000 42291728.00000000 106806016.00000000 37525.64062500  3168730.50000000 2508507.25000000 
0.06200    66068776.00000000 41436064.00000000 104643512.00000000 36663.43359375  3099818.50000000 2453974.75000000 
0.06300    64742668.00000000 40606068.00000000 102545352.00000000 35829.98046875  3033037.75000000 2401197.25000000 
0.06400    63457220.00000000 39801880.00000000 100511504.00000000 35023.63281250  2968412.25000000 2350058.25000000 
0.06500    62211764.00000000 39022600.00000000 98541200.00000000 34244.48046875  2905876.75000000 2300589.00000000 
0.06600    61006016.00000000 38268336.00000000 96634328.00000000 33491.28515625  2845398.75000000 2252743.25000000 
0.06700    59840032.00000000 37538792.00000000 94790192.00000000 32762.71875000  2786929.00000000 2206544.00000000 
0.06800    58711616.00000000 36834036.00000000 93005656.00000000 32058.70312500  2730383.50000000 2161802.25000000 
0.06900    57621648.00000000 36152692.00000000 91283280.00000000 31377.57617188  2675721.25000000 2118593.25000000 
0.07000    56568612.00000000 35494508.00000000 89617520.00000000 30718.38671875  2622863.50000000 2076822.37500000 
0.07100    55551440.00000000 34859500.00000000 88009816.00000000 30080.55273438  2571793.50000000 2036449.50000000 
0.07200    54569680.00000000 34246388.00000000 86457872.00000000 29462.81054688  2522384.75000000 1997418.12500000 
0.07300    53621828.00000000 33655320.00000000 84960680.00000000 28864.00390625  2474600.50000000 1959673.25000000 
0.07400    52707284.00000000 33085322.00000000 83516408.00000000 28283.66210938  2428373.25000000 1923153.00000000 
0.07500    51824168.00000000 32535672.00000000 82123240.00000000 27720.49804688  2383616.00000000 1887830.25000000 
0.07600    50972320.00000000 32005400.00000000 80778448.00000000 27173.38476562  2340281.00000000 1853610.50000000 
0.07700    50150252.00000000 31494530.00000000 79482384.00000000 26641.75976562  2298295.50000000 1820470.00000000 
0.07800    49356580.00000000 31001822.00000000 78231616.00000000 26124.53710938  2257544.25000000 1788345.00000000 
0.07900    48590664.00000000 30526430.00000000 77025000.00000000 25620.58398438  2218043.50000000 1757174.87500000 
0.08000    47850924.00000000 30068216.00000000 75859680.00000000 25129.62109375  2179658.75000000 1726906.00000000 
0.08100    47136284.00000000 29625686.00000000 74735440.00000000 24650.24609375  2142346.75000000 1697510.37500000 
0.08200    46445280.00000000 29199092.00000000 73649032.00000000 24182.07812500  2106063.50000000 1668906.25000000 
0.08300    45777352.00000000 28786302.00000000 72598952.00000000 23724.40429688  2070678.25000000 1641059.62500000 
0.08400    45130708.00000000 28388000.00000000 71583600.00000000 23276.46679688  2036233.00000000 1613913.75000000 
0.08500    44504496.00000000 28002704.00000000 70600888.00000000 22837.31835938  2002579.75000000 1587422.37500000 
0.08600    43897808.00000000 27629670.00000000 69648800.00000000 22406.75000000  1969706.00000000 1561541.37500000 
0.08700    43309356.00000000 27268060.00000000 68726128.00000000 21984.02148438  1937543.12500000 1536241.37500000 
0.08800    42737448.00000000 26917904.00000000 67830624.00000000 21568.68164062  1906039.25000000 1511466.00000000 
0.08900    42182068.00000000 26577804.00000000 66961364.00000000 21160.28320312  1875179.25000000 1487187.37500000 
0.09000    41640920.00000000 26247510.00000000 66115708.00000000 20758.29296875  1844867.12500000 1463357.62500000 
0.09100    41114100.00000000 25925942.00000000 65292456.00000000 20362.47851562  1815113.00000000 1439957.12500000 
0.09200    40600048.00000000 25612828.00000000 64489808.00000000 19972.41015625  1785828.62500000 1416928.62500000 
0.09300    40098596.00000000 25307732.00000000 63706836.00000000 19587.91992188  1757011.12500000 1394273.37500000 
0.09400    39607540.00000000 25009522.00000000 62941100.00000000 19208.55273438  1728604.12500000 1371946.12500000 
0.09500    39127324.00000000 24717702.00000000 62192228.00000000 18834.08593750  1700596.50000000 1349912.87500000 
0.09600    38656660.00000000 24432242.00000000 61458472.00000000 18464.65429688  1672948.75000000 1328175.12500000 
0.09700    38194620.00000000 24152290.00000000 60738852.00000000 18099.89648438  1645637.37500000 1306692.50000000 
0.09800    37740232.00000000 23877516.00000000 60031744.00000000 17739.59179688  1618639.25000000 1285459.00000000 
0.09900    37293536.00000000 23607310.00000000 59336492.00000000 17383.78320312  1591946.75000000 1264458.00000000 
0.10000    36853588.00000000 23341088.00000000 58651828.00000000 17032.45117188  1565511.87500000 1243647.75000000 
0.10100    36419452.00000000 23078896.00000000 57975988.00000000 16685.29882812  1539356.25000000 1223054.00000000 
0.10200    35991248.00000000 22820098.00000000 57309800.00000000 16342.63183594  1513436.50000000 1202645.00000000 
0.10300    35567596.00000000 22564282.00000000 56651120.00000000 16004.07031250  1487745.25000000 1182415.50000000 
0.10400    35148576.00000000 22311210.00000000 55999664.00000000 15670.11816406  1462305.75000000 1162358.75000000 
0.10500    34734044.00000000 22060720.00000000 55354372.00000000 15340.51171875  1437083.75000000 1142466.37500000 
0.10600    34322608.00000000 21812180.00000000 54714696.00000000 15015.09667969  1412067.87500000 1122731.50000000 
0.10700    33915312.00000000 21565510.00000000 54079964.00000000 14694.25292969  1387269.50000000 1103162.00000000 
0.10800    33510444.00000000 21320728.00000000 53450404.00000000 14377.93261719  1362692.00000000 1083745.62500000 
0.10900    33108752.00000000 21077544.00000000 52824560.00000000 14066.25292969  1338316.25000000 1064493.25000000 
0.11000    32709506.00000000 20835544.00000000 52202124.00000000 13758.99707031  1314151.87500000 1045399.37500000 
0.11100    32312404.00000000 20594594.00000000 51583056.00000000 13456.58496094  1290193.37500000 1026452.62500000 
0.11200    31917436.00000000 20354706.00000000 50967252.00000000 13158.95898438  1266451.62500000 1007667.56250000 
0.11300    31524434.00000000 20115884.00000000 50353624.00000000 12866.03515625  1242928.12500000 989044.43750000 
0.11400    31133140.00000000 19877594.00000000 49742920.00000000 12577.95214844  1219638.25000000 970583.93750000 
0.11500    30743580.00000000 19640380.00000000 49134080.00000000 12294.94433594  1196556.75000000 952296.62500000 
0.11600    30355890.00000000 19403382.00000000 48527648.00000000 12016.84570312  1173704.25000000 934176.25000000 
0.11700    29969442.00000000 19167112.00000000 47923172.00000000 11743.78808594  1151086.25000000 916239.43750000 
0.11800    29584728.00000000 18931516.00000000 47320412.00000000 11475.67968750  1128722.12500000 898478.56250000 
0.11900    29201178.00000000 18696348.00000000 46719644.00000000 11212.53320312  1106600.00000000 880901.06250000 
0.12000    28819264.00000000 18461840.00000000 46120528.00000000 10954.72460938  1084719.00000000 863520.31250000 
0.12100    28438950.00000000 18227558.00000000 45523304.00000000 10701.79687500  1063111.50000000 846325.81250000 
0.12200    28060114.00000000 17994108.00000000 44928240.00000000 10454.02050781  1041754.56250000 829342.68750000 
0.12300    27682742.00000000 17761052.00000000 44334792.00000000 10211.26269531  1020658.50000000 812551.93750000 
0.12400    27306920.00000000 17528746.00000000 43743452.00000000 9973.59570312   999846.12500000 795979.18750000 
0.12500    26932898.00000000 17296942.00000000 43154508.00000000 9740.87792969   979297.50000000 779606.12500000 
0.12600    26560624.00000000 17065824.00000000 42567520.00000000 9513.22167969   959038.75000000 763464.62500000 
0.12700    26190004.00000000 16835310.00000000 41983072.00000000 9290.47949219   939061.00000000 747535.25000000 
0.12800    25821146.00000000 16605898.00000000 41400844.00000000 9072.55175781   919375.12500000 731821.31250000 
0.12900    25454328.00000000 16377109.00000000 40820960.00000000 8859.50195312   899974.12500000 716345.37500000 
0.13000    25089528.00000000 16149259.00000000 40244752.00000000 8651.08886719   880868.81250000 701099.31250000 
0.13100    24726978.00000000 15922358.00000000 39670416.00000000 8447.49121094   862056.31250000 686070.06250000 
0.13200    24366486.00000000 15696576.00000000 39099728.00000000 8248.29199219   843538.50000000 671288.12500000 
0.13300    24008376.00000000 15471802.00000000 38532540.00000000 8053.77001953   825326.81250000 656739.81250000 
0.13400    23652644.00000000 15248233.00000000 37967972.00000000 7863.59912109   807406.93750000 642421.18750000 
0.13500    23299462.00000000 15025846.00000000 37407560.00000000 7677.75341797   789794.31250000 628338.75000000 
0.13600    22948824.00000000 14804804.00000000 36850732.00000000 7496.10937500   772474.31250000 614497.00000000 
0.13700    22600954.00000000 14585174.00000000 36297824.00000000 7318.56445312   755454.43750000 600884.50000000 
0.13800    22255650.00000000 14367092.00000000 35748584.00000000 7145.15039062   738733.75000000 587514.18750000 
0.13900    21913222.00000000 14150368.00000000 35203900.00000000 6975.62695312   722309.56250000 574376.06250000 
0.14000    21573868.00000000 13935354.00000000 34663488.00000000 6809.99853516   706178.25000000 561475.87500000 
0.14100    21237376.00000000 13722001.00000000 34127732.00000000 6648.15332031   690340.00000000 548809.31250000 
0.14200    20904208.00000000 13510310.00000000 33596644.00000000 6489.85205078   674795.06250000 536379.12500000 
0.14300    20573962.00000000 13300472.00000000 33070004.00000000 6335.10742188   659538.56250000 524171.37500000 
0.14400    20246870.00000000 13092328.00000000 32548448.00000000 6183.86181641   644563.18750000 512197.06250000 
0.14500    19923614.00000000 12886229.00000000 32032002.00000000 6036.05566406   629873.00000000 500445.37500000 
0.14600    19603352.00000000 12682133.00000000 31520952.00000000 5891.54101562   615459.75000000 488923.21875000 
0.14700    19286612.00000000 12480003.00000000 31014728.00000000 5750.19531250   601329.25000000 477620.68750000 
0.14800    18973340.00000000 12279915.00000000 30513904.00000000 5612.04003906   587469.06250000 466532.90625000 
0.14900    18663500.00000000 12081963.00000000 30018710.00000000 5476.91699219   573873.31250000 455665.15625000 
0.15000    18357398.00000000 11886031.00000000 29529050.00000000 5344.79980469   560546.50000000 445007.09375000 
0.15100    18054882.00000000 11692463.00000000 29044858.00000000 5215.64160156   547476.62500000 434562.46875000 
0.15200    17755834.00000000 11501111.00000000 28566540.00000000 5089.35644531   534669.56250000 424321.12500000 
0.15300    17460646.00000000 11311851.00000000 28094050.00000000 4965.82617188   522110.78125000 414290.87500000 
0.15400    17169310.00000000 11124868.00000000 27627226.00000000 4845.11230469   509799.84375000 404455.40625000 
0.15500    16881416.00000000 10940352.00000000 27166284.00000000 4727.00439453   497740.46875000 394818.00000000 
0.15600    16597402.00000000 10758053.00000000 26711218.00000000 4611.61181641   485918.93750000 385376.12500000 
0.15700    16317360.00000000 10578081.00000000 26262418.00000000 4498.82763672   474338.00000000 376124.31250000 
0.15800    16040822.00000000 10400583.00000000 25819288.00000000 4388.58251953   462985.65625000 367060.40625000 
0.15900    15768246.00000000 10225354.00000000 25382150.00000000 4280.81933594   451867.65625000 358177.37500000 
0.16000    15499440.00000000 10052402.00000000 24951018.00000000 4175.59814453   440967.53125000 349477.84375000 
0.16100    15234424.00000000 9882037.00000000 24526178.00000000 4072.79077148   430297.12500000 340963.75000000 
0.16200    14972990.00000000 9713989.00000000 24107170.00000000 3972.39086914   419841.03125000 332616.71875000 
0.16300    14715557.00000000 9548353.00000000 23694196.00000000 3874.31372070   409600.09375000 324443.62500000 
0.16400    14461791.00000000 9385064.00000000 23287258.00000000 3778.59252930   399568.96875000 316435.18750000 
0.16500    14211840.00000000 9224153.00000000 22886290.00000000 3685.19628906   389740.37500000 308596.53125000 
0.16600    13965759.00000000 9065743.00000000 22491302.00000000 3594.02563477   380120.34375000 300920.28125000 
0.16700    13723167.00000000 8909579.00000000 22101900.00000000 3505.06152344   370692.21875000 293396.93750000 
0.16800    13484393.00000000 8755665.00000000 21718674.00000000 3418.33471680   361462.81250000 286034.37500000 
0.16900    13249178.00000000 8604195.00000000 21341420.00000000 3333.76586914   352427.68750000 278823.12500000 
0.17000    13017728.00000000 8455120.00000000 20969922.00000000 3251.31469727   343578.00000000 271763.09375000 
