# SAXS profile: number of points = 501, q_min = 0, q_max = 0.5, delta_q = 0.001
#    q    intensity 
0.00000    162237296.00000000 101201408.00000000 256271968.00000000 103702.64062500 8203525.50000000 6479147.50000000 
0.00100    162202608.00000000 101179496.00000000 256215584.00000000 103674.87500000 8201563.00000000 6477577.00000000 
0.00200    162095200.00000000 101112152.00000000 256044464.00000000 103592.81250000 8195573.00000000 6472862.50000000 
0.00300    161915440.00000000 101000344.00000000 255760928.00000000 103456.54687500 8185551.50000000 6464969.00000000 
0.00400    161662528.00000000 100843712.00000000 255363488.00000000 103265.35156250 8171592.50000000 6453971.50000000 
0.00500    161339040.00000000 100643688.00000000 254853664.00000000 103021.38281250 8153668.50000000 6439900.00000000 
0.00600    160940928.00000000 100399272.00000000 254231008.00000000 102722.79687500 8131806.50000000 6422694.50000000 
0.00700    160475776.00000000 100110376.00000000 253496256.00000000 102370.88281250 8106056.00000000 6402465.00000000 
0.00800    159937968.00000000 99779328.00000000 252654480.00000000 101967.67968750 8076459.50000000 6379182.50000000 
0.00900    159331280.00000000 99405576.00000000 251704208.00000000 101511.53906250 8043034.50000000 6352901.00000000 
0.01000    158657728.00000000 98989440.00000000 250644592.00000000 101005.69531250 8005876.00000000 6323676.00000000 
0.01100    157918112.00000000 98532696.00000000 249479872.00000000 100448.05468750 7965027.50000000 6291534.00000000 
0.01200    157114208.00000000 98034344.00000000 248211952.00000000 99842.10937500  7920574.50000000 6256536.00000000 
0.01300    156242384.00000000 97495712.00000000 246842784.00000000 99187.52343750  7872501.00000000 6218727.00000000 
0.01400    155306608.00000000 96917408.00000000 245372640.00000000 98486.03125000  7820970.50000000 6178212.50000000 
0.01500    154308736.00000000 96301248.00000000 243805520.00000000 97738.37500000  7766045.50000000 6134994.00000000 
0.01600    153251744.00000000 95647200.00000000 242141392.00000000 96945.53906250  7707801.00000000 6089157.00000000 
0.01700    152134160.00000000 94957016.00000000 240383504.00000000 96109.50000000  7646259.50000000 6040793.50000000 
0.01800    150959184.00000000 94231064.00000000 238536096.00000000 95231.03906250  7581685.50000000 5989914.00000000 
0.01900    149727728.00000000 93470000.00000000 236600912.00000000 94311.95312500  7513995.00000000 5936685.00000000 
0.02000    148443616.00000000 92675752.00000000 234581392.00000000 93353.80468750  7443361.00000000 5881108.00000000 
0.02100    147106896.00000000 91848712.00000000 232478256.00000000 92357.51562500  7369941.50000000 5823339.00000000 
0.02200    145719696.00000000 90990672.00000000 230295808.00000000 91324.35937500  7293739.50000000 5763374.50000000 
0.02300    144281984.00000000 90102664.00000000 228036832.00000000 90257.58593750  7214962.00000000 5701378.00000000 
0.02400    142799584.00000000 89186088.00000000 225704960.00000000 89156.95312500  7133664.50000000 5637384.00000000 
0.02500    141272960.00000000 88241496.00000000 223303568.00000000 88025.82812500  7050012.50000000 5571561.50000000 
0.02600    139703424.00000000 87270752.00000000 220833728.00000000 86864.67187500  6964099.50000000 5503960.50000000 
0.02700    138093856.00000000 86275008.00000000 218302704.00000000 85675.65625000  6876058.00000000 5434612.50000000 
0.02800    136445552.00000000 85255872.00000000 215711040.00000000 84461.28125000  6785995.00000000 5363735.50000000 
0.02900    134763728.00000000 84214304.00000000 213063232.00000000 83221.24218750  6694059.00000000 5291375.50000000 
0.03000    133046968.00000000 83152000.00000000 210360304.00000000 81960.01562500  6600362.50000000 5217648.50000000 
0.03100    131298288.00000000 82070312.00000000 207610480.00000000 80677.67187500  6505047.00000000 5142586.50000000 
0.03200    129521688.00000000 80970400.00000000 204815840.00000000 79376.52343750  6408263.50000000 5066377.00000000 
0.03300    127717920.00000000 79853528.00000000 201976784.00000000 78058.92187500  6310072.00000000 4989072.00000000 
0.03400    125890288.00000000 78722112.00000000 199099648.00000000 76725.55468750  6210702.50000000 4910836.50000000 
0.03500    124040720.00000000 77576808.00000000 196189856.00000000 75379.77343750  6110194.00000000 4831666.50000000 
0.03600    122170680.00000000 76418976.00000000 193247712.00000000 74021.82812500  6008756.00000000 4751778.00000000 
0.03700    120284120.00000000 75250256.00000000 190277072.00000000 72654.71093750  5906453.00000000 4671208.50000000 
0.03800    118381712.00000000 74071896.00000000 187283456.00000000 71279.67187500  5803456.00000000 4590081.50000000 
0.03900    116466952.00000000 72885864.00000000 184267968.00000000 69898.55468750  5699859.50000000 4508465.50000000 
0.04000    114541728.00000000 71692960.00000000 181237584.00000000 68513.62500000  5595854.00000000 4426540.00000000 
0.04100    112608288.00000000 70494736.00000000 178194288.00000000 67125.96875000  5491502.50000000 4344337.50000000 
0.04200    110668592.00000000 69293496.00000000 175141504.00000000 65737.58593750  5386943.50000000 4261968.50000000 
0.04300    108725904.00000000 68089328.00000000 172078992.00000000 64349.78906250  5282314.00000000 4179499.25000000 
0.04400    106780464.00000000 66882768.00000000 169016912.00000000 62964.67187500  5177725.50000000 4097079.25000000 
0.04500    104836272.00000000 65677148.00000000 165954304.00000000 61583.84375000  5073306.50000000 4014783.50000000 
0.04600    102894728.00000000 64472748.00000000 162896224.00000000 60208.18359375  4969134.50000000 3932675.75000000 
0.04700    100957456.00000000 63271164.00000000 159844800.00000000 58840.03906250  4865389.50000000 3850867.75000000 
0.04800    99026208.00000000 62073508.00000000 156802992.00000000 57480.31640625  4762077.00000000 3769444.00000000 
0.04900    97104176.00000000 60881256.00000000 153774928.00000000 56130.61718750  4659374.50000000 3688490.50000000 
0.05000    95192936.00000000 59694752.00000000 150764240.00000000 54792.36328125  4557402.50000000 3608064.75000000 
0.05100    93293592.00000000 58515864.00000000 147770576.00000000 53466.79687500  4456204.50000000 3528275.75000000 
0.05200    91407904.00000000 57345348.00000000 144799680.00000000 52154.89062500  4355913.00000000 3449156.25000000 
0.05300    89538192.00000000 56184512.00000000 141853088.00000000 50858.17578125  4256602.00000000 3370826.75000000 
0.05400    87686208.00000000 55034300.00000000 138933008.00000000 49577.91796875  4158350.50000000 3293335.00000000 
0.05500    85853280.00000000 53895596.00000000 136042016.00000000 48314.32031250  4061255.75000000 3216727.75000000 
0.05600    84040248.00000000 52769108.00000000 133185680.00000000 47069.24609375  3965368.00000000 3141080.50000000 
0.05700    82248888.00000000 51656644.00000000 130362520.00000000 45843.30859375  3870796.25000000 3066465.25000000 
0.05800    80481040.00000000 50558036.00000000 127575080.00000000 44637.34375000  3777609.00000000 2992914.75000000 
0.05900    78737640.00000000 49474060.00000000 124824968.00000000 43452.36328125  3685845.00000000 2920495.75000000 
0.06000    77020080.00000000 48406456.00000000 122116448.00000000 42289.00781250  3595596.50000000 2849229.00000000 
0.06100    75329008.00000000 47354744.00000000 119450048.00000000 41147.45312500  3506886.00000000 2779222.00000000 
0.06200    73666760.00000000 46320732.00000000 116826400.00000000 40029.28515625  3419765.75000000 2710437.25000000 
0.06300    72032680.00000000 45303840.00000000 114248272.00000000 38934.27734375  3334320.75000000 2642968.25000000 
0.06400    70428344.00000000 44305736.00000000 111717320.00000000 37863.16015625  3250559.50000000 2576820.75000000 
0.06500    68854224.00000000 43326208.00000000 109234600.00000000 36816.23437500  3168539.00000000 2512035.00000000 
0.06600    67311256.00000000 42366208.00000000 106800432.00000000 35793.88281250  3088250.25000000 2448628.75000000 
0.06700    65801304.00000000 41426024.00000000 104416488.00000000 34796.24609375  3009807.75000000 2386645.75000000 
0.06800    64323164.00000000 40505512.00000000 102084112.00000000 33824.19921875  2933156.25000000 2326072.50000000 
0.06900    62878404.00000000 39605824.00000000 99803792.00000000 32877.06250000  2858321.25000000 2266947.50000000 
0.07000    61466916.00000000 38726616.00000000 97575224.00000000 31955.50781250  2785372.50000000 2209276.75000000 
0.07100    60089212.00000000 37868388.00000000 95400832.00000000 31059.17382812  2714270.75000000 2153080.00000000 
0.07200    58745884.00000000 37031072.00000000 93279560.00000000 30188.50195312  2645039.75000000 2098373.25000000 
0.07300    57436780.00000000 36215552.00000000 91212728.00000000 29343.22656250  2577694.50000000 2045120.50000000 
0.07400    56162176.00000000 35420596.00000000 89199784.00000000 28523.08398438  2512219.50000000 1993358.62500000 
0.07500    54921992.00000000 34647460.00000000 87240976.00000000 27728.20117188  2448635.25000000 1943065.75000000 
0.07600    53716720.00000000 33895764.00000000 85336432.00000000 26957.99609375  2386890.25000000 1894227.00000000 
0.07700    52545376.00000000 33165318.00000000 83487032.00000000 26212.58398438  2327014.50000000 1846866.25000000 
0.07800    51408452.00000000 32456240.00000000 81690848.00000000 25491.44531250  2268946.00000000 1800940.12500000 
0.07900    50305532.00000000 31768292.00000000 79949216.00000000 24794.23632812  2212727.75000000 1756456.75000000 
0.08000    49236760.00000000 31101236.00000000 78260000.00000000 24120.76562500  2158299.50000000 1713387.87500000 
0.08100    48201396.00000000 30455272.00000000 76624336.00000000 23470.36914062  2105642.00000000 1671718.00000000 
0.08200    47199240.00000000 29829880.00000000 75040664.00000000 22842.81054688  2054718.37500000 1631418.62500000 
0.08300    46229472.00000000 29224766.00000000 73508752.00000000 22237.36132812  2005533.25000000 1592477.12500000 
0.08400    45292808.00000000 28639874.00000000 72028120.00000000 21653.67773438  1958008.25000000 1554873.12500000 
0.08500    44387400.00000000 28074834.00000000 70597320.00000000 21091.42187500  1912147.37500000 1518564.75000000 
0.08600    43513044.00000000 27529026.00000000 69216176.00000000 20549.64453125  1867905.12500000 1483529.87500000 
0.08700    42669472.00000000 27002286.00000000 67883376.00000000 20027.95117188  1825236.62500000 1449747.87500000 
0.08800    41855888.00000000 26494404.00000000 66597100.00000000 19525.78906250  1784066.25000000 1417162.25000000 
0.08900    41071392.00000000 26004842.00000000 65357396.00000000 19042.36914062  1744429.12500000 1385770.87500000 
0.09000    40315552.00000000 25532928.00000000 64162624.00000000 18577.30273438  1706234.87500000 1355522.37500000 
0.09100    39587692.00000000 25078448.00000000 63011956.00000000 18129.65039062  1669448.25000000 1326375.62500000 
0.09200    38886564.00000000 24641008.00000000 61904196.00000000 17699.06445312  1633999.37500000 1298309.50000000 
0.09300    38211400.00000000 24219766.00000000 60837852.00000000 17284.76562500  1599875.75000000 1271289.12500000 
0.09400    37562136.00000000 23814544.00000000 59811828.00000000 16885.94531250  1567010.25000000 1245251.00000000 
0.09500    36937284.00000000 23424572.00000000 58824440.00000000 16502.06250000  1535370.25000000 1220188.25000000 
0.09600    36335876.00000000 23049548.00000000 57874740.00000000 16132.53710938  1504887.25000000 1196037.87500000 
0.09700    35757648.00000000 22688722.00000000 56960828.00000000 15776.74609375  1475536.87500000 1172790.62500000 
0.09800    35201164.00000000 22341872.00000000 56082008.00000000 15433.85058594  1447245.62500000 1150392.00000000 
0.09900    34665796.00000000 22008188.00000000 55236796.00000000 15103.21582031  1419999.50000000 1128792.25000000 
0.10000    34150880.00000000 21687024.00000000 54422796.00000000 14784.38476562  1393685.87500000 1107967.25000000 
0.10100    33654512.00000000 21378138.00000000 53639860.00000000 14476.50292969  1368321.75000000 1087868.25000000 
0.10200    33176838.00000000 21080712.00000000 52885968.00000000 14179.10742188  1343824.75000000 1068469.12500000 
0.10300    32716666.00000000 20794378.00000000 52159804.00000000 13891.49023438  1320161.62500000 1049726.00000000 
0.10400    32273008.00000000 20518426.00000000 51459960.00000000 13613.15429688  1297270.37500000 1031607.25000000 
0.10500    31845104.00000000 20252430.00000000 50784760.00000000 13343.51367188  1275129.62500000 1014072.31250000 
0.10600    31431914.00000000 19995598.00000000 50133372.00000000 13081.99316406  1253663.00000000 997077.56250000 
0.10700    31032746.00000000 19747828.00000000 49504036.00000000 12827.97265625  1232853.12500000 980602.00000000 
0.10800    30646524.00000000 19508116.00000000 48895496.00000000 12581.06835938  1212653.50000000 964601.18750000 
0.10900    30272650.00000000 19276186.00000000 48306352.00000000 12340.67285156  1193000.37500000 949058.50000000 
0.11000    29910308.00000000 19051564.00000000 47735908.00000000 12106.37890625  1173876.62500000 933921.12500000 
0.11100    29558404.00000000 18833518.00000000 47181620.00000000 11877.69433594  1155247.75000000 919165.43750000 
0.11200    29216462.00000000 18621796.00000000 46643204.00000000 11654.26953125  1137049.00000000 904768.18750000 
0.11300    28883612.00000000 18415924.00000000 46119268.00000000 11435.57031250  1119260.00000000 890692.37500000 
0.11400    28559096.00000000 18215200.00000000 45608872.00000000 11221.39355469  1101855.25000000 876916.56250000 
0.11500    28242244.00000000 18019312.00000000 45110580.00000000 11011.04882812  1084781.00000000 863415.87500000 
0.11600    27932342.00000000 17827796.00000000 44623016.00000000 10804.64160156  1068025.50000000 850155.87500000 
0.11700    27628628.00000000 17640538.00000000 44145868.00000000 10601.43847656  1051554.12500000 837124.50000000 
0.11800    27330588.00000000 17456628.00000000 43677540.00000000 10401.33398438  1035318.43750000 824284.56250000 
0.11900    27037688.00000000 17276022.00000000 43217348.00000000 10204.11621094  1019326.37500000 811625.00000000 
0.12000    26749234.00000000 17098224.00000000 42764224.00000000 10009.44726562  1003522.37500000 799123.31250000 
0.12100    26464700.00000000 16922744.00000000 42317348.00000000 9817.27343750   987907.25000000 786773.18750000 
0.12200    26183534.00000000 16749547.00000000 41875632.00000000 9627.18261719   972449.25000000 774541.62500000 
0.12300    25905456.00000000 16578163.00000000 41438948.00000000 9439.04980469   957121.68750000 762412.25000000 
0.12400    25629764.00000000 16408237.00000000 41005976.00000000 9252.74511719   941927.68750000 750382.93750000 
0.12500    25355810.00000000 16239688.00000000 40576176.00000000 9068.13183594   926831.37500000 738430.75000000 
0.12600    25083970.00000000 16072309.00000000 40148940.00000000 8885.20117188   911827.87500000 726555.87500000 
0.12700    24813226.00000000 15905390.00000000 39723780.00000000 8703.73730469   896898.37500000 714733.37500000 
0.12800    24543446.00000000 15739179.00000000 39300116.00000000 8523.69140625   882039.25000000 702965.18750000 
0.12900    24274238.00000000 15573262.00000000 38877148.00000000 8344.99218750   867236.68750000 691238.37500000 
0.13000    24005346.00000000 15407594.00000000 38454888.00000000 8167.63281250   852477.06250000 679548.31250000 
0.13100    23736730.00000000 15241843.00000000 38032516.00000000 7991.60595703   837761.56250000 667880.18750000 
0.13200    23467886.00000000 15075943.00000000 37610228.00000000 7816.83300781   823083.62500000 656247.75000000 
0.13300    23198702.00000000 14909767.00000000 37186828.00000000 7643.40917969   808443.18750000 644635.00000000 
0.13400    22929172.00000000 14743397.00000000 36763196.00000000 7471.30664062   793826.87500000 633040.81250000 
0.13500    22658838.00000000 14576392.00000000 36338228.00000000 7300.57910156   779245.31250000 621466.50000000 
0.13600    22387974.00000000 14408731.00000000 35912008.00000000 7131.21826172   764684.81250000 609910.37500000 
0.13700    22116438.00000000 14240661.00000000 35484500.00000000 6963.35449219   750157.75000000 598369.62500000 
0.13800    21843830.00000000 14071753.00000000 35055152.00000000 6797.02587891   735662.93750000 586855.00000000 
0.13900    21570424.00000000 13902255.00000000 34624208.00000000 6632.21875000   721196.43750000 575360.06250000 
0.14000    21296070.00000000 13732086.00000000 34192000.00000000 6469.14208984   706773.93750000 563888.56250000 
0.14100    21020828.00000000 13561086.00000000 33758112.00000000 6307.81982422   692397.93750000 552449.56250000 
0.14200    20744632.00000000 13389402.00000000 33322248.00000000 6148.26953125   678060.18750000 541040.50000000 
0.14300    20467712.00000000 13216962.00000000 32885064.00000000 5990.69677734   663779.18750000 529672.37500000 
0.14400    20189794.00000000 13043950.00000000 32446410.00000000 5835.17089844   649559.68750000 518343.93750000 
0.14500    19911538.00000000 12870304.00000000 32006342.00000000 5681.78027344   635407.37500000 507063.87500000 
0.14600    19632284.00000000 12696094.00000000 31565212.00000000 5530.61279297   621332.81250000 495840.37500000 
0.14700    19352758.00000000 12521318.00000000 31123046.00000000 5381.77490234   607341.62500000 484681.21875000 
0.14800    19072834.00000000 12346178.00000000 30680048.00000000 5235.33349609   593441.50000000 473583.96875000 
0.14900    18792528.00000000 12170607.00000000 30236066.00000000 5091.39160156   579642.50000000 462562.62500000 
0.15000    18512118.00000000 11994708.00000000 29791874.00000000 4950.13818359   565947.87500000 451624.06250000 
0.15100    18231624.00000000 11818658.00000000 29347280.00000000 4811.50683594   552375.31250000 440771.21875000 
0.15200    17951476.00000000 11642646.00000000 28903042.00000000 4675.76220703   538930.00000000 430016.90625000 
0.15300    17671692.00000000 11466528.00000000 28458932.00000000 4542.85009766   525620.43750000 419363.81250000 
0.15400    17392334.00000000 11290492.00000000 28015252.00000000 4412.92626953   512458.53125000 408821.71875000 
0.15500    17113842.00000000 11114835.00000000 27572570.00000000 4285.96142578   499446.75000000 398399.03125000 
0.15600    16835934.00000000 10939382.00000000 27130946.00000000 4162.17236328   486596.71875000 388095.34375000 
0.15700    16559236.00000000 10764374.00000000 26690810.00000000 4041.53198242   473921.12500000 377930.96875000 
0.15800    16283642.00000000 10589988.00000000 26252092.00000000 3924.07421875   461422.09375000 367894.53125000 
0.15900    16009498.00000000 10416220.00000000 25815562.00000000 3809.89819336   449111.62500000 358010.78125000 
0.16000    15737022.00000000 10243281.00000000 25381244.00000000 3699.03491211   436994.59375000 348272.90625000 
0.16100    15466354.00000000 10071267.00000000 24949434.00000000 3591.52075195   425084.43750000 338697.46875000 
0.16200    15197537.00000000 9900255.00000000 24520440.00000000 3487.36132812   413382.03125000 329281.50000000 
0.16300    14930876.00000000 9730417.00000000 24094812.00000000 3386.58740234   401893.84375000 320034.50000000 
0.16400    14666515.00000000 9561779.00000000 23672404.00000000 3289.22729492   390624.37500000 310957.65625000 
0.16500    14404595.00000000 9394584.00000000 23253886.00000000 3195.21899414   379587.31250000 302059.28125000 
0.16600    14145391.00000000 9228760.00000000 22838938.00000000 3104.64428711   368780.12500000 293342.96875000 
0.16700    13888845.00000000 9064559.00000000 22428504.00000000 3017.43750000   358208.50000000 284811.50000000 
0.16800    13635301.00000000 8902086.00000000 22022306.00000000 2933.57299805   347873.81250000 276468.84375000 
0.16900    13384880.00000000 8741292.00000000 21620912.00000000 2853.05322266   337786.96875000 268320.75000000 
0.17000    13137589.00000000 8582366.00000000 21224442.00000000 2775.81835938   327946.43750000 260362.76562500 
