# SAXS profile: number of points = 501, q_min = 0, q_max = 0.5, delta_q = 0.001
#    q    intensity 
0.00000    162233200.00000000 101202184.00000000 256270592.00000000 103536.53906250 8196979.00000000 6473957.00000000 
0.00100    162203280.00000000 101181440.00000000 256218656.00000000 103507.72656250 8195030.50000000 6472452.50000000 
0.00200    162109040.00000000 101120832.00000000 256064736.00000000 103425.36718750 8189178.00000000 6467846.00000000 
0.00300    161948128.00000000 101019640.00000000 255806496.00000000 103286.85937500 8179465.50000000 6460210.00000000 
0.00400    161717232.00000000 100878776.00000000 255445968.00000000 103093.32812500 8165915.50000000 6449602.00000000 
0.00500    161420656.00000000 100696840.00000000 254983968.00000000 102846.42187500 8148509.00000000 6435892.50000000 
0.00600    161057328.00000000 100473552.00000000 254416128.00000000 102544.24218750 8127284.50000000 6419247.00000000 
0.00700    160634016.00000000 100213256.00000000 253753072.00000000 102188.87500000 8102359.00000000 6399589.00000000 
0.00800    160140896.00000000 99913928.00000000 252987632.00000000 101780.88281250 8073571.50000000 6377040.00000000 
0.00900    159590016.00000000 99575384.00000000 252121744.00000000 101320.19531250 8041191.00000000 6351583.50000000 
0.01000    158976592.00000000 99199864.00000000 251161808.00000000 100808.16406250 8005115.50000000 6323298.50000000 
0.01100    158303872.00000000 98785264.00000000 250103200.00000000 100246.19531250 7965558.50000000 6292224.50000000 
0.01200    157569904.00000000 98333456.00000000 248950128.00000000 99635.14062500  7922417.50000000 6258318.50000000 
0.01300    156774032.00000000 97844976.00000000 247705808.00000000 98975.27343750  7875896.50000000 6221771.00000000 
0.01400    155921312.00000000 97320632.00000000 246368576.00000000 98268.67968750  7825947.50000000 6182568.50000000 
0.01500    155011424.00000000 96761576.00000000 244943600.00000000 97516.17968750  7772818.00000000 6140837.00000000 
0.01600    154047392.00000000 96168920.00000000 243430720.00000000 96719.54687500  7716438.00000000 6096503.50000000 
0.01700    153028736.00000000 95542928.00000000 241832224.00000000 95880.46875000  7656941.00000000 6049789.00000000 
0.01800    151955792.00000000 94883432.00000000 240149376.00000000 94998.87500000  7594487.50000000 6000702.50000000 
0.01900    150832624.00000000 94192600.00000000 238389392.00000000 94077.57031250  7529143.00000000 5949334.50000000 
0.02000    149659312.00000000 93471184.00000000 236548640.00000000 93117.77343750  7460926.50000000 5895744.50000000 
0.02100    148438544.00000000 92719944.00000000 234632240.00000000 92122.02343750  7390049.50000000 5840062.50000000 
0.02200    147171120.00000000 91940024.00000000 232644112.00000000 91090.71093750  7316570.00000000 5782326.00000000 
0.02300    145858016.00000000 91131512.00000000 230583056.00000000 90026.22656250  7240644.50000000 5722635.50000000 
0.02400    144502432.00000000 90297040.00000000 228455184.00000000 88929.78906250  7162340.00000000 5661073.00000000 
0.02500    143104896.00000000 89437240.00000000 226263632.00000000 87804.88281250  7081784.00000000 5597740.50000000 
0.02600    141668704.00000000 88552480.00000000 224008352.00000000 86650.67187500  6999119.00000000 5532787.00000000 
0.02700    140195536.00000000 87643896.00000000 221694800.00000000 85471.53125000  6914461.50000000 5466159.00000000 
0.02800    138686032.00000000 86712888.00000000 219323328.00000000 84268.16406250  6827914.00000000 5398115.00000000 
0.02900    137140912.00000000 85761920.00000000 216900576.00000000 83041.85937500  6739632.00000000 5328678.00000000 
0.03000    135565760.00000000 84790560.00000000 214426064.00000000 81795.77343750  6649671.00000000 5257943.50000000 
0.03100    133961312.00000000 83801288.00000000 211905216.00000000 80531.03906250  6558256.50000000 5186019.00000000 
0.03200    132328920.00000000 82793408.00000000 209340336.00000000 79250.65625000  6465464.00000000 5113003.50000000 
0.03300    130670368.00000000 81769512.00000000 206733600.00000000 77954.55468750  6371368.50000000 5038977.00000000 
0.03400    128987640.00000000 80730104.00000000 204089088.00000000 76645.35156250  6276166.00000000 4964087.00000000 
0.03500    127282608.00000000 79677968.00000000 201408896.00000000 75326.33593750  6179970.50000000 4888357.50000000 
0.03600    125557888.00000000 78612984.00000000 198698752.00000000 73997.16406250  6082907.00000000 4811965.50000000 
0.03700    123815080.00000000 77536784.00000000 195958928.00000000 72661.61718750  5985047.50000000 4734944.50000000 
0.03800    122056552.00000000 76449832.00000000 193192304.00000000 71320.14062500  5886580.00000000 4657440.00000000 
0.03900    120284216.00000000 75352992.00000000 190405104.00000000 69974.16406250  5787612.50000000 4579479.50000000 
0.04000    118498888.00000000 74249280.00000000 187596160.00000000 68626.89062500  5688204.00000000 4501221.00000000 
0.04100    116703776.00000000 73138312.00000000 184771584.00000000 67279.03906250  5588524.50000000 4422705.50000000 
0.04200    114900640.00000000 72020624.00000000 181933360.00000000 65932.03906250  5488639.50000000 4344022.00000000 
0.04300    113089712.00000000 70900392.00000000 179085040.00000000 64586.94921875  5388739.50000000 4265313.00000000 
0.04400    111274552.00000000 69775968.00000000 176226576.00000000 63246.85546875  5288852.00000000 4186578.00000000 
0.04500    109456456.00000000 68649376.00000000 173365760.00000000 61912.51562500  5189117.00000000 4107989.25000000 
0.04600    107638176.00000000 67521840.00000000 170501408.00000000 60584.73437500  5089595.00000000 4029584.50000000 
0.04700    105819512.00000000 66392876.00000000 167636000.00000000 59265.71484375  4990497.50000000 3951436.75000000 
0.04800    104002632.00000000 65265752.00000000 164773952.00000000 57956.22265625  4891802.00000000 3873614.75000000 
0.04900    102190048.00000000 64140724.00000000 161918048.00000000 56657.64062500  4793633.50000000 3796181.00000000 
0.05000    100381976.00000000 63018100.00000000 159068624.00000000 55370.96484375  4696074.00000000 3719246.25000000 
0.05100    98581904.00000000 61899444.00000000 156230304.00000000 54097.38671875  4599188.00000000 3642811.50000000 
0.05200    96789512.00000000 60785308.00000000 153403056.00000000 52837.68359375  4503126.50000000 3567022.50000000 
0.05300    95006488.00000000 59676732.00000000 150591120.00000000 51593.65625000  4407903.50000000 3491856.25000000 
0.05400    93233864.00000000 58574928.00000000 147795968.00000000 50365.37500000  4313592.00000000 3417421.25000000 
0.05500    91474624.00000000 57479824.00000000 145020160.00000000 49153.60546875  4220285.00000000 3343783.00000000 
0.05600    89728336.00000000 56392708.00000000 142266000.00000000 47959.97265625  4128011.00000000 3270924.50000000 
0.05700    87997208.00000000 55314356.00000000 139532496.00000000 46784.10156250  4036866.00000000 3198958.50000000 
0.05800    86281656.00000000 54245664.00000000 136823984.00000000 45627.30078125  3946869.00000000 3127885.00000000 
0.05900    84583256.00000000 53186748.00000000 134141648.00000000 44490.16015625  3858096.25000000 3057759.75000000 
0.06000    82902320.00000000 52138812.00000000 131488056.00000000 43372.57421875  3770601.75000000 2988628.00000000 
0.06100    81240032.00000000 51102152.00000000 128863184.00000000 42275.40234375  3684393.00000000 2920495.50000000 
0.06200    79598280.00000000 50077536.00000000 126268336.00000000 41199.60937500  3599545.75000000 2853442.75000000 
0.06300    77976552.00000000 49065456.00000000 123705808.00000000 40144.53125000  3516063.50000000 2787450.50000000 
0.06400    76376536.00000000 48066120.00000000 121176624.00000000 39110.69531250  3433988.00000000 2722550.25000000 
0.06500    74798704.00000000 47080264.00000000 118681952.00000000 38098.21484375  3353328.25000000 2658801.50000000 
0.06600    73242704.00000000 46108000.00000000 116223160.00000000 37107.96093750  3274162.50000000 2596175.25000000 
0.06700    71710584.00000000 45150296.00000000 113800472.00000000 36139.35546875  3196443.00000000 2534705.50000000 
0.06800    70202944.00000000 44206656.00000000 111414128.00000000 35192.28906250  3120235.50000000 2474390.25000000 
0.06900    68718600.00000000 43278832.00000000 109067128.00000000 34267.43750000  3045524.25000000 2415292.75000000 
0.07000    67259944.00000000 42365584.00000000 106757816.00000000 33364.14843750  2972339.50000000 2357361.50000000 
0.07100    65825852.00000000 41467492.00000000 104489360.00000000 32482.46875000  2900656.25000000 2300624.50000000 
0.07200    64417236.00000000 40585240.00000000 102259872.00000000 31622.77343750  2830485.25000000 2245070.25000000 
0.07300    63034728.00000000 39719288.00000000 100070544.00000000 30784.45898438  2761851.00000000 2190726.75000000 
0.07400    61678060.00000000 38868948.00000000 97922672.00000000 29967.04101562  2694734.25000000 2137580.00000000 
0.07500    60347404.00000000 38034944.00000000 95815840.00000000 29170.67968750  2629115.00000000 2085626.00000000 
0.07600    59042808.00000000 37217124.00000000 93750400.00000000 28395.31054688  2565025.00000000 2034858.75000000 
0.07700    57764972.00000000 36415924.00000000 91726472.00000000 27640.11523438  2502407.75000000 1985256.25000000 
0.07800    56513520.00000000 35630836.00000000 89743664.00000000 26905.25976562  2441301.75000000 1936837.37500000 
0.07900    55288452.00000000 34862428.00000000 87803280.00000000 26189.86718750  2381622.25000000 1889557.37500000 
0.08000    54089704.00000000 34110440.00000000 85904216.00000000 25494.10742188  2323404.25000000 1843441.50000000 
0.08100    52917552.00000000 33374906.00000000 84047176.00000000 24817.52539062  2266663.00000000 1798458.37500000 
0.08200    51771368.00000000 32655610.00000000 82231248.00000000 24159.38671875  2211298.00000000 1754571.75000000 
0.08300    50651012.00000000 31952652.00000000 80456456.00000000 23519.53710938  2157347.75000000 1711811.00000000 
0.08400    49557124.00000000 31265996.00000000 78722352.00000000 22897.53125000  2104758.50000000 1670116.37500000 
0.08500    48488740.00000000 30595138.00000000 77029384.00000000 22292.99609375  2053498.12500000 1629497.00000000 
0.08600    47445856.00000000 29940532.00000000 75376800.00000000 21705.29492188  2003598.50000000 1589915.62500000 
0.08700    46427784.00000000 29301844.00000000 73763856.00000000 21134.23437500  1954969.62500000 1551367.75000000 
0.08800    45435264.00000000 28678754.00000000 72191008.00000000 20579.24609375  1907621.50000000 1513821.87500000 
0.08900    44467192.00000000 28071052.00000000 70656680.00000000 20040.04687500  1861515.12500000 1477250.00000000 
0.09000    43523312.00000000 27478892.00000000 69161360.00000000 19516.03515625  1816624.87500000 1441655.62500000 
0.09100    42603548.00000000 26901920.00000000 67703976.00000000 19006.70312500  1772930.50000000 1407014.62500000 
0.09200    41707408.00000000 26339588.00000000 66284896.00000000 18511.86718750  1730388.87500000 1373275.12500000 
0.09300    40834612.00000000 25792140.00000000 64901816.00000000 18030.90039062  1688994.75000000 1340445.50000000 
0.09400    39984528.00000000 25259072.00000000 63555640.00000000 17563.39062500  1648697.87500000 1308482.25000000 
0.09500    39156880.00000000 24740332.00000000 62245080.00000000 17109.05273438  1609471.75000000 1277387.50000000 
0.09600    38351404.00000000 24235480.00000000 60969320.00000000 16667.64843750  1571304.62500000 1247108.75000000 
0.09700    37567676.00000000 23744472.00000000 59728340.00000000 16238.22460938  1534152.50000000 1217648.62500000 
0.09800    36805136.00000000 23266844.00000000 58521280.00000000 15820.99121094  1497984.25000000 1188970.87500000 
0.09900    36063128.00000000 22802530.00000000 57347340.00000000 15415.23632812  1462804.00000000 1161061.25000000 
0.10000    35341628.00000000 22350920.00000000 56205664.00000000 15020.58789062  1428545.37500000 1133900.50000000 
0.10100    34639784.00000000 21912038.00000000 55095396.00000000 14636.85156250  1395200.12500000 1107467.87500000 
0.10200    33957708.00000000 21485650.00000000 54016528.00000000 14263.65527344  1362744.12500000 1081728.50000000 
0.10300    33294318.00000000 21071234.00000000 52967632.00000000 13900.61425781  1331154.62500000 1056675.75000000 
0.10400    32649544.00000000 20668550.00000000 51948824.00000000 13547.33300781  1300393.00000000 1032287.87500000 
0.10500    32022934.00000000 20277658.00000000 50958452.00000000 13203.84863281  1270435.00000000 1008552.37500000 
0.10600    31413800.00000000 19897620.00000000 49996096.00000000 12869.48632812  1241273.50000000 985424.56250000 
0.10700    30821816.00000000 19528866.00000000 49061440.00000000 12544.15625000  1212868.75000000 962906.50000000 
0.10800    30246656.00000000 19170524.00000000 48152944.00000000 12227.42382812  1185214.50000000 940987.93750000 
0.10900    29687602.00000000 18822608.00000000 47270844.00000000 11919.30859375  1158270.50000000 919628.62500000 
0.11000    29144402.00000000 18484844.00000000 46413452.00000000 11619.41503906  1132029.37500000 898826.12500000 
0.11100    28616598.00000000 18156834.00000000 45581264.00000000 11327.42968750  1106455.37500000 878557.12500000 
0.11200    28103864.00000000 17838234.00000000 44772632.00000000 11043.27246094  1081548.50000000 858806.75000000 
0.11300    27605286.00000000 17528930.00000000 43986992.00000000 10766.64160156  1057267.62500000 839575.06250000 
0.11400    27121166.00000000 17228580.00000000 43224000.00000000 10497.43066406  1033608.56250000 820828.25000000 
0.11500    26650434.00000000 16936996.00000000 42482860.00000000 10235.40039062  1010556.50000000 802557.06250000 
0.11600    26192962.00000000 16653774.00000000 41762728.00000000 9980.18066406   988081.18750000 784747.56250000 
0.11700    25748308.00000000 16378641.00000000 41062828.00000000 9731.87011719   966174.93750000 767385.81250000 
0.11800    25316112.00000000 16111490.00000000 40382968.00000000 9490.14648438   944813.31250000 750458.93750000 
0.11900    24895876.00000000 15851929.00000000 39722016.00000000 9254.94628906   923989.81250000 733950.93750000 
0.12000    24487244.00000000 15599626.00000000 39079788.00000000 9025.94824219   903684.25000000 717856.25000000 
0.12100    24089942.00000000 15354605.00000000 38455328.00000000 8803.21777344   883884.18750000 702170.43750000 
0.12200    23703360.00000000 15116427.00000000 37848396.00000000 8586.45019531   864572.06250000 686868.50000000 
0.12300    23327488.00000000 14884826.00000000 37258016.00000000 8375.54589844   845745.06250000 671941.00000000 
0.12400    22961740.00000000 14659691.00000000 36683796.00000000 8170.32324219   827369.62500000 657376.18750000 
0.12500    22605816.00000000 14440588.00000000 36124640.00000000 7970.60009766   809450.81250000 643170.00000000 
0.12600    22259182.00000000 14227648.00000000 35581032.00000000 7776.51953125   791972.62500000 629321.31250000 
0.12700    21921750.00000000 14020264.00000000 35051500.00000000 7587.72656250   774917.31250000 615794.75000000 
0.12800    21593032.00000000 13818392.00000000 34535996.00000000 7404.15087891   758278.81250000 602612.87500000 
0.12900    21272722.00000000 13621751.00000000 34033988.00000000 7225.57128906   742049.50000000 589737.81250000 
0.13000    20960868.00000000 13430339.00000000 33544878.00000000 7052.02246094   726212.68750000 577174.68750000 
0.13100    20656538.00000000 13243581.00000000 33067712.00000000 6883.22802734   710751.50000000 564914.75000000 
0.13200    20359776.00000000 13061743.00000000 32602818.00000000 6719.23046875   695667.81250000 552953.43750000 
0.13300    20070494.00000000 12884118.00000000 32149314.00000000 6559.79492188   680949.25000000 541271.81250000 
0.13400    19787924.00000000 12710943.00000000 31706568.00000000 6404.83544922   666581.37500000 529871.62500000 
0.13500    19512006.00000000 12541877.00000000 31274320.00000000 6254.24707031   652553.93750000 518742.34375000 
0.13600    19242570.00000000 12376685.00000000 30852206.00000000 6107.85400391   638861.00000000 507873.93750000 
0.13700    18979414.00000000 12215312.00000000 30439562.00000000 5965.63623047   625493.87500000 497262.96875000 
0.13800    18721978.00000000 12057414.00000000 30036126.00000000 5827.39746094   612441.18750000 486897.90625000 
0.13900    18470282.00000000 11903055.00000000 29641450.00000000 5693.05371094   599693.37500000 476777.93750000 
0.14000    18223860.00000000 11751846.00000000 29255342.00000000 5562.48242188   587246.50000000 466888.59375000 
0.14100    17982644.00000000 11603879.00000000 28877412.00000000 5435.49853516   575090.00000000 457233.15625000 
0.14200    17746460.00000000 11458629.00000000 28506626.00000000 5312.11425781   563212.50000000 447796.21875000 
0.14300    17514902.00000000 11316375.00000000 28143426.00000000 5192.11962891   551609.00000000 438571.21875000 
0.14400    17287738.00000000 11176777.00000000 27787018.00000000 5075.41992188   540261.62500000 429556.93750000 
0.14500    17065082.00000000 11039641.00000000 27437382.00000000 4961.93994141   529182.50000000 420744.40625000 
0.14600    16846352.00000000 10904925.00000000 27093942.00000000 4851.53417969   518342.15625000 412127.40625000 
0.14700    16631532.00000000 10772605.00000000 26756466.00000000 4744.09326172   507748.25000000 403701.28125000 
0.14800    16420283.00000000 10642290.00000000 26424412.00000000 4639.46777344   497384.59375000 395457.28125000 
0.14900    16212799.00000000 10513965.00000000 26097914.00000000 4537.59716797   487248.06250000 387390.18750000 
0.15000    16008580.00000000 10387717.00000000 25776440.00000000 4438.34716797   477326.81250000 379497.00000000 
0.15100    15807463.00000000 10263167.00000000 25460042.00000000 4341.65820312   467616.37500000 371769.90625000 
0.15200    15609357.00000000 10140301.00000000 25147940.00000000 4247.39013672   458113.68750000 364206.21875000 
0.15300    15414220.00000000 10019195.00000000 24840218.00000000 4155.47998047   448808.37500000 356794.90625000 
0.15400    15221603.00000000 9899505.00000000 24536574.00000000 4065.70312500   439687.93750000 349531.93750000 
0.15500    15031622.00000000 9781218.00000000 24236624.00000000 3978.11938477   430753.40625000 342412.34375000 
0.15600    14844104.00000000 9664279.00000000 23940298.00000000 3892.55200195   421995.09375000 335436.25000000 
0.15700    14658839.00000000 9548685.00000000 23647688.00000000 3808.97680664   413409.84375000 328598.43750000 
0.15800    14475616.00000000 9434146.00000000 23357712.00000000 3727.19702148   404981.37500000 321883.12500000 
0.15900    14294606.00000000 9320837.00000000 23071228.00000000 3647.24877930   396719.43750000 315296.03125000 
0.16000    14115455.00000000 9208441.00000000 22787284.00000000 3568.96923828   388608.93750000 308830.75000000 
0.16100    13938273.00000000 9097149.00000000 22506394.00000000 3492.37744141   380645.75000000 302485.46875000 
0.16200    13762654.00000000 8986708.00000000 22227866.00000000 3417.32080078   372824.09375000 296247.25000000 
0.16300    13588738.00000000 8877154.00000000 21951942.00000000 3343.76049805   365140.68750000 290122.00000000 
0.16400    13416455.00000000 8768454.00000000 21678054.00000000 3271.63867188   357590.75000000 284098.59375000 
0.16500    13245493.00000000 8660468.00000000 21406418.00000000 3200.93090820   350167.93750000 278178.68750000 
0.16600    13076097.00000000 8553166.00000000 21136712.00000000 3131.51660156   342869.56250000 272355.37500000 
0.16700    12907951.00000000 8446420.00000000 20868890.00000000 3063.38964844   335686.00000000 266626.34375000 
0.16800    12741004.00000000 8340551.00000000 20603058.00000000 2996.49584961   328619.93750000 260987.00000000 
0.16900    12575423.00000000 8235217.50000000 20338752.00000000 2930.83837891   321670.40625000 255439.00000000 
0.17000    12410786.00000000 8130430.50000000 20076154.00000000 2866.35034180   314824.68750000 249977.39062500 
