# SAXS profile: number of points = 501, q_min = 0, q_max = 0.5, delta_q = 0.001
#    q    intensity 
0.00000    162237424.00000000 101201736.00000000 256271024.00000000 99118.67187500  8020201.00000000 6334348.00000000 
0.00100    162209216.00000000 101183216.00000000 256225856.00000000 99095.26562500  8018501.50000000 6332997.50000000 
0.00200    162120864.00000000 101128728.00000000 256086400.00000000 99024.40625000  8013429.50000000 6329003.00000000 
0.00300    161975072.00000000 101037744.00000000 255854688.00000000 98907.21875000  8004937.00000000 6322341.50000000 
0.00400    161768208.00000000 100910472.00000000 255529616.00000000 98743.04687500  7993063.50000000 6312999.50000000 
0.00500    161502336.00000000 100747216.00000000 255114128.00000000 98532.06250000  7977869.00000000 6301050.00000000 
0.00600    161179232.00000000 100547280.00000000 254606192.00000000 98274.92968750  7959260.50000000 6286467.50000000 
0.00700    160797056.00000000 100311984.00000000 254005952.00000000 97972.26562500  7937370.50000000 6269257.50000000 
0.00800    160358448.00000000 100041320.00000000 253315504.00000000 97623.51562500  7912217.50000000 6249472.00000000 
0.00900    159860512.00000000 99735600.00000000 252536720.00000000 97230.35937500  7883780.50000000 6227120.50000000 
0.01000    159306960.00000000 99394768.00000000 251670048.00000000 96792.41406250  7852102.50000000 6202226.50000000 
0.01100    158698176.00000000 99020032.00000000 250715888.00000000 96310.97656250  7817257.50000000 6174844.00000000 
0.01200    158036464.00000000 98611248.00000000 249673552.00000000 95785.48437500  7779288.00000000 6145026.50000000 
0.01300    157319952.00000000 98169072.00000000 248546128.00000000 95218.78906250  7738220.50000000 6112709.50000000 
0.01400    156548976.00000000 97694072.00000000 247335824.00000000 94609.43750000  7694107.00000000 6078045.00000000 
0.01500    155725904.00000000 97186672.00000000 246042672.00000000 93960.20312500  7647006.50000000 6041023.00000000 
0.01600    154849488.00000000 96646896.00000000 244668944.00000000 93270.33593750  7596980.00000000 6001701.50000000 
0.01700    153924192.00000000 96075848.00000000 243215328.00000000 92541.85156250  7544136.00000000 5960136.50000000 
0.01800    152948928.00000000 95474944.00000000 241684016.00000000 91775.11718750  7488455.00000000 5916375.50000000 
0.01900    151925728.00000000 94843376.00000000 240077024.00000000 90971.42187500  7430073.50000000 5870498.00000000 
0.02000    150855184.00000000 94183248.00000000 238395456.00000000 90132.69531250  7369008.00000000 5822488.00000000 
0.02100    149739200.00000000 93494864.00000000 236641872.00000000 89257.79687500  7305414.00000000 5772468.50000000 
0.02200    148576912.00000000 92778576.00000000 234817152.00000000 88350.26562500  7239271.00000000 5720481.50000000 
0.02300    147372224.00000000 92035784.00000000 232924832.00000000 87409.88281250  7170733.50000000 5666602.50000000 
0.02400    146125488.00000000 91266800.00000000 230967008.00000000 86438.62500000  7099843.50000000 5610877.50000000 
0.02500    144838256.00000000 90472416.00000000 228945296.00000000 85437.76562500  7026722.50000000 5553391.50000000 
0.02600    143510928.00000000 89653816.00000000 226859664.00000000 84407.84375000  6951446.00000000 5494182.00000000 
0.02700    142146544.00000000 88812128.00000000 224716064.00000000 83350.78125000  6874109.50000000 5433352.50000000 
0.02800    140745808.00000000 87948072.00000000 222515856.00000000 82268.24218750  6794763.00000000 5370957.50000000 
0.02900    139310352.00000000 87061976.00000000 220259488.00000000 81160.82812500  6713563.00000000 5307087.00000000 
0.03000    137840880.00000000 86155392.00000000 217951456.00000000 80030.69531250  6630580.50000000 5241802.50000000 
0.03100    136339904.00000000 85229912.00000000 215593360.00000000 78878.75781250  6545866.50000000 5175184.00000000 
0.03200    134810080.00000000 84284784.00000000 213188864.00000000 77706.10156250  6459576.00000000 5107292.00000000 
0.03300    133250536.00000000 83322576.00000000 210739312.00000000 76515.54687500  6371778.00000000 5038244.00000000 
0.03400    131664768.00000000 82343792.00000000 208247328.00000000 75307.24218750  6282603.50000000 4968091.00000000 
0.03500    130053592.00000000 81349232.00000000 205715136.00000000 74083.33593750  6192099.00000000 4896918.00000000 
0.03600    128419552.00000000 80339832.00000000 203146320.00000000 72844.75000000  6100449.00000000 4824783.00000000 
0.03700    126763280.00000000 79316776.00000000 200543216.00000000 71593.62500000  6007681.50000000 4751772.00000000 
0.03800    125086312.00000000 78281872.00000000 197909056.00000000 70330.74218750  5913891.00000000 4678012.50000000 
0.03900    123391856.00000000 77235240.00000000 195244864.00000000 69058.35156250  5819222.50000000 4603520.50000000 
0.04000    121680232.00000000 76177816.00000000 192554064.00000000 67776.69531250  5723778.00000000 4528382.50000000 
0.04100    119953344.00000000 75110880.00000000 189839360.00000000 66488.49218750  5627654.50000000 4452718.50000000 
0.04200    118213256.00000000 74035512.00000000 187103552.00000000 65194.93359375  5530927.50000000 4376590.00000000 
0.04300    116461464.00000000 72952760.00000000 184348912.00000000 63896.76562500  5433718.50000000 4300065.50000000 
0.04400    114699072.00000000 71864008.00000000 181578368.00000000 62595.79687500  5336104.00000000 4223200.00000000 
0.04500    112928336.00000000 70769704.00000000 178794928.00000000 61293.87890625  5238206.50000000 4146131.00000000 
0.04600    111151376.00000000 69671296.00000000 176000464.00000000 59991.81640625  5140103.50000000 4068876.75000000 
0.04700    109368368.00000000 68569880.00000000 173196944.00000000 58691.01171875  5041884.50000000 3991558.50000000 
0.04800    107582936.00000000 67464936.00000000 170387392.00000000 57392.97265625  4943681.50000000 3914203.00000000 
0.04900    105794296.00000000 66358796.00000000 167575104.00000000 56098.53515625  4845576.00000000 3836924.50000000 
0.05000    104006168.00000000 65252400.00000000 164761904.00000000 54809.63671875  4747617.50000000 3759751.50000000 
0.05100    102218104.00000000 64146488.00000000 161948880.00000000 53527.24218750  4649936.50000000 3682802.25000000 
0.05200    100432848.00000000 63041988.00000000 159139776.00000000 52252.10546875  4552612.50000000 3606106.50000000 
0.05300    98651808.00000000 61939572.00000000 156337600.00000000 50986.25781250  4455693.00000000 3529762.25000000 
0.05400    96876320.00000000 60840440.00000000 153543280.00000000 49730.13281250  4359320.00000000 3453807.75000000 
0.05500    95106984.00000000 59745336.00000000 150759648.00000000 48484.78125000  4263533.00000000 3378308.50000000 
0.05600    93346688.00000000 58655224.00000000 147988816.00000000 47251.69921875  4168417.75000000 3303331.00000000 
0.05700    91595200.00000000 57570600.00000000 145232048.00000000 46031.73437500  4074056.50000000 3228937.75000000 
0.05800    89854680.00000000 56492392.00000000 142492416.00000000 44825.63671875  3980501.00000000 3155174.50000000 
0.05900    88126376.00000000 55421628.00000000 139771280.00000000 43634.68750000  3887877.75000000 3082118.50000000 
0.06000    86411096.00000000 54358608.00000000 137070784.00000000 42459.37890625  3796157.50000000 3009804.00000000 
0.06100    84710824.00000000 53304484.00000000 134392128.00000000 41300.78515625  3705505.00000000 2938292.75000000 
0.06200    83025464.00000000 52259752.00000000 131738816.00000000 40159.55078125  3615924.50000000 2867609.50000000 
0.06300    81357232.00000000 51225132.00000000 129110752.00000000 39036.68750000  3527490.00000000 2797831.25000000 
0.06400    79705832.00000000 50201088.00000000 126509880.00000000 37932.54296875  3440229.00000000 2728984.00000000 
0.06500    78073656.00000000 49188400.00000000 123938312.00000000 36848.21484375  3354243.00000000 2661106.25000000 
0.06600    76460704.00000000 48187484.00000000 121397176.00000000 35783.65625000  3269547.25000000 2594258.25000000 
0.06700    74868488.00000000 47199248.00000000 118887728.00000000 34739.46484375  3186198.75000000 2528430.00000000 
0.06800    73297296.00000000 46223908.00000000 116411544.00000000 33716.91015625  3104236.00000000 2463722.00000000 
0.06900    71748112.00000000 45261908.00000000 113970384.00000000 32715.98632812  3023708.25000000 2400110.50000000 
0.07000    70221792.00000000 44313624.00000000 111563760.00000000 31736.97851562  2944633.00000000 2337650.50000000 
0.07100    68719184.00000000 43379972.00000000 109194648.00000000 30780.22265625  2867054.50000000 2276359.50000000 
0.07200    67240384.00000000 42460888.00000000 106862792.00000000 29846.14648438  2791007.50000000 2216257.50000000 
0.07300    65786724.00000000 41556968.00000000 104570032.00000000 28934.96679688  2716525.00000000 2157378.25000000 
0.07400    64357992.00000000 40668644.00000000 102317056.00000000 28047.04492188  2643597.75000000 2099731.25000000 
0.07500    62955100.00000000 39795936.00000000 100103560.00000000 27182.51562500  2572287.25000000 2043343.87500000 
0.07600    61578356.00000000 38939144.00000000 97930968.00000000 26341.28320312  2502599.50000000 1988222.50000000 
0.07700    60228372.00000000 38098732.00000000 95801008.00000000 25523.62890625  2434518.75000000 1934372.62500000 
0.07800    58905172.00000000 37274804.00000000 93711952.00000000 24729.45312500  2368094.00000000 1881812.12500000 
0.07900    57609248.00000000 36467448.00000000 91665528.00000000 23958.87109375  2303325.50000000 1830554.00000000 
0.08000    56340576.00000000 35677048.00000000 89663024.00000000 23211.87500000  2240202.00000000 1780589.00000000 
0.08100    55099580.00000000 34903552.00000000 87703704.00000000 22488.41406250  2178764.00000000 1731936.12500000 
0.08200    53886448.00000000 34147044.00000000 85787376.00000000 21787.96093750  2118974.00000000 1684578.37500000 
0.08300    52701276.00000000 33407652.00000000 83914632.00000000 21110.80468750  2060838.12500000 1638524.37500000 
0.08400    51543816.00000000 32685386.00000000 82085688.00000000 20456.45507812  2004361.00000000 1593767.62500000 
0.08500    50414684.00000000 31980480.00000000 80301344.00000000 19825.02929688  1949528.87500000 1550305.75000000 
0.08600    49313192.00000000 31292546.00000000 78560128.00000000 19215.94335938  1896332.37500000 1508128.12500000 
0.08700    48239700.00000000 30621918.00000000 76863016.00000000 18629.04101562  1844769.75000000 1467229.12500000 
0.08800    47193872.00000000 29968236.00000000 75209312.00000000 18063.81250000  1794805.00000000 1427591.37500000 
0.08900    46175976.00000000 29331650.00000000 73598880.00000000 17520.15429688  1746435.25000000 1389209.50000000 
0.09000    45185300.00000000 28711932.00000000 72031712.00000000 16997.66601562  1699638.62500000 1352065.00000000 
0.09100    44222052.00000000 28108852.00000000 70506904.00000000 16495.70898438  1654401.50000000 1316138.50000000 
0.09200    43285456.00000000 27522582.00000000 69024768.00000000 16013.94042969  1610685.37500000 1281411.37500000 
0.09300    42375668.00000000 26952648.00000000 67584272.00000000 15552.22656250  1568472.12500000 1247876.25000000 
0.09400    41492260.00000000 26398942.00000000 66185264.00000000 15109.58105469  1527736.75000000 1215491.62500000 
0.09500    40634792.00000000 25861412.00000000 64827020.00000000 14685.72363281  1488457.00000000 1184265.87500000 
0.09600    39802944.00000000 25339532.00000000 63509096.00000000 14280.39257812  1450601.00000000 1154146.87500000 
0.09700    38996252.00000000 24833246.00000000 62230808.00000000 13892.65039062  1414127.12500000 1125143.37500000 
0.09800    38214488.00000000 24342288.00000000 60991908.00000000 13522.16113281  1379013.75000000 1097188.87500000 
0.09900    37456808.00000000 23866474.00000000 59790732.00000000 13168.49023438  1345231.00000000 1070298.12500000 
0.10000    36723304.00000000 23405284.00000000 58626680.00000000 12830.80468750  1312731.50000000 1044405.75000000 
0.10100    36012892.00000000 22958512.00000000 57499852.00000000 12508.81250000  1281486.50000000 1019508.75000000 
0.10200    35325616.00000000 22526002.00000000 56409120.00000000 12201.77636719  1251462.50000000 995579.37500000 
0.10300    34660192.00000000 22107128.00000000 55353196.00000000 11908.98535156  1222617.75000000 972573.75000000 
0.10400    34016476.00000000 21701774.00000000 54331560.00000000 11630.21093750  1194908.75000000 950477.12500000 
0.10500    33394524.00000000 21309664.00000000 53343312.00000000 11364.69335938  1168319.37500000 929260.75000000 
0.10600    32792614.00000000 20930116.00000000 52387272.00000000 11111.73632812  1142794.87500000 908876.87500000 
0.10700    32210710.00000000 20563058.00000000 51462548.00000000 10870.78417969  1118284.87500000 889315.31250000 
0.10800    31648364.00000000 20207906.00000000 50568772.00000000 10641.41796875  1094774.12500000 870530.93750000 
0.10900    31104560.00000000 19864602.00000000 49704364.00000000 10422.93066406  1072208.37500000 852499.43750000 
0.11000    30578852.00000000 19532490.00000000 48868904.00000000 10214.73730469  1050559.12500000 835194.68750000 
0.11100    30070904.00000000 19211264.00000000 48060692.00000000 10016.36914062  1029776.18750000 818577.56250000 
0.11200    29579782.00000000 18900688.00000000 47279140.00000000 9827.15527344   1009822.62500000 802615.43750000 
0.11300    29104940.00000000 18600102.00000000 46523432.00000000 9646.54394531   990665.31250000 787282.50000000 
0.11400    28645552.00000000 18309374.00000000 45792404.00000000 9474.12500000   972263.68750000 772559.00000000 
0.11500    28201622.00000000 18028072.00000000 45085244.00000000 9309.23632812   954582.43750000 758395.81250000 
0.11600    27771818.00000000 17755750.00000000 44400636.00000000 9151.49414062   937567.00000000 744780.87500000 
0.11700    27355662.00000000 17491938.00000000 43737948.00000000 9000.26074219   921203.43750000 731671.93750000 
0.11800    26952792.00000000 17236400.00000000 43095940.00000000 8855.03808594   905441.25000000 719040.87500000 
0.11900    26562360.00000000 16988694.00000000 42473852.00000000 8715.41894531   890238.18750000 706866.62500000 
0.12000    26183902.00000000 16748463.00000000 41870236.00000000 8580.91699219   875576.31250000 695117.12500000 
0.12100    25816684.00000000 16515380.00000000 41285236.00000000 8451.13085938   861417.62500000 683772.56250000 
0.12200    25460150.00000000 16288840.00000000 40716832.00000000 8325.58496094   847718.56250000 672797.50000000 
0.12300    25113938.00000000 16069070.00000000 40164696.00000000 8203.85742188   834460.87500000 662166.00000000 
0.12400    24777286.00000000 15855146.00000000 39627776.00000000 8085.58691406   821598.87500000 651861.31250000 
0.12500    24449526.00000000 15646846.00000000 39105052.00000000 7970.36621094   809106.06250000 641852.81250000 
0.12600    24130548.00000000 15444107.00000000 38596380.00000000 7857.91503906   796953.62500000 632119.00000000 
0.12700    23819384.00000000 15246273.00000000 38099860.00000000 7747.75830078   785117.00000000 622636.81250000 
0.12800    23515554.00000000 15053212.00000000 37615608.00000000 7639.69238281   773563.25000000 613388.81250000 
0.12900    23218908.00000000 14864632.00000000 37142344.00000000 7533.36669922   762268.56250000 604350.68750000 
0.13000    22928600.00000000 14680124.00000000 36679360.00000000 7428.48583984   751214.25000000 595499.31250000 
0.13100    22644234.00000000 14499432.00000000 36225884.00000000 7324.81591797   740365.25000000 586820.06250000 
0.13200    22365554.00000000 14322263.00000000 35781540.00000000 7222.07128906   729699.93750000 578293.12500000 
0.13300    22091920.00000000 14148377.00000000 35345024.00000000 7120.12890625   719205.81250000 569904.31250000 
0.13400    21822988.00000000 13977674.00000000 34916224.00000000 7018.71240234   708853.81250000 561636.62500000 
0.13500    21558470.00000000 13809571.00000000 34494412.00000000 6917.57617188   698628.87500000 553472.43750000 
0.13600    21297744.00000000 13644156.00000000 34078952.00000000 6816.59960938   688512.68750000 545394.00000000 
0.13700    21040758.00000000 13480980.00000000 33669408.00000000 6715.68408203   678486.37500000 537400.43750000 
0.13800    20786834.00000000 13319915.00000000 33264886.00000000 6614.61816406   668540.06250000 529467.93750000 
0.13900    20535860.00000000 13160748.00000000 32865136.00000000 6513.33642578   658651.87500000 521590.25000000 
0.14000    20287588.00000000 13003359.00000000 32469604.00000000 6411.69873047   648818.18750000 513757.25000000 
0.14100    20041524.00000000 12847432.00000000 32077798.00000000 6309.71875000   639019.87500000 505952.81250000 
0.14200    19797524.00000000 12692853.00000000 31689396.00000000 6207.17138672   629241.87500000 498179.78125000 
0.14300    19555468.00000000 12539590.00000000 31304042.00000000 6104.12500000   619491.06250000 490422.43750000 
0.14400    19314844.00000000 12387225.00000000 30920962.00000000 6000.44628906   609738.43750000 482671.56250000 
0.14500    19075636.00000000 12235891.00000000 30540496.00000000 5896.22412109   599994.87500000 474928.40625000 
0.14600    18837618.00000000 12085328.00000000 30161836.00000000 5791.36962891   590241.12500000 467184.62500000 
0.14700    18600630.00000000 11935569.00000000 29785022.00000000 5685.93115234   580478.87500000 459437.65625000 
0.14800    18364348.00000000 11786307.00000000 29409498.00000000 5579.88867188   570707.18750000 451679.06250000 
0.14900    18128842.00000000 11637522.00000000 29034886.00000000 5473.25878906   560912.81250000 443907.50000000 
0.15000    17893956.00000000 11489179.00000000 28661630.00000000 5366.13378906   551096.25000000 436122.78125000 
0.15100    17659336.00000000 11341169.00000000 28288840.00000000 5258.49267578   541253.25000000 428324.46875000 
0.15200    17425166.00000000 11193424.00000000 27916864.00000000 5150.48925781   531398.81250000 420512.75000000 
0.15300    17191438.00000000 11045992.00000000 27545734.00000000 5042.11669922   521517.28125000 412683.09375000 
0.15400    16957868.00000000 10898681.00000000 27174588.00000000 4933.41845703   511610.40625000 404835.96875000 
0.15500    16724475.00000000 10751507.00000000 26803962.00000000 4824.55126953   501686.65625000 396977.21875000 
0.15600    16491136.00000000 10604522.00000000 26433526.00000000 4715.55859375   491745.00000000 389103.90625000 
0.15700    16258047.00000000 10457660.00000000 26063460.00000000 4606.56201172   481791.25000000 381222.09375000 
0.15800    16024978.00000000 10310820.00000000 25693496.00000000 4497.61523438   471821.43750000 373329.25000000 
0.15900    15792138.00000000 10164133.00000000 25323948.00000000 4388.85888672   461847.75000000 365436.34375000 
0.16000    15559290.00000000 10017471.00000000 24954382.00000000 4280.37158203   451869.78125000 357536.46875000 
0.16100    15326868.00000000 9871017.00000000 24585364.00000000 4172.33837891   441900.00000000 349644.46875000 
0.16200    15094367.00000000 9724651.00000000 24216524.00000000 4064.76220703   431932.25000000 341755.50000000 
0.16300    14862235.00000000 9578502.00000000 23848040.00000000 3957.82250977   421983.09375000 333879.12500000 
0.16400    14630439.00000000 9432499.00000000 23480176.00000000 3851.60571289   412049.75000000 326019.28125000 
0.16500    14398936.00000000 9286747.00000000 23112726.00000000 3746.23046875   402146.96875000 318178.37500000 
0.16600    14167938.00000000 9141237.00000000 22746226.00000000 3641.81225586   392278.62500000 310365.06250000 
0.16700    13937384.00000000 8995978.00000000 22380122.00000000 3538.45874023   382448.53125000 302579.87500000 
0.16800    13707358.00000000 8851157.00000000 22015224.00000000 3436.30078125   372664.53125000 294832.15625000 
0.16900    13478199.00000000 8706669.00000000 21651256.00000000 3335.43920898   362940.68750000 287129.15625000 
0.17000    13249703.00000000 8562690.00000000 21288646.00000000 3235.96313477   353275.25000000 279473.34375000 
