# SAXS profile: number of points = 501, q_min = 0, q_max = 0.5, delta_q = 0.001
#    q    intensity 
0.00000    162238128.00000000 101201456.00000000 256272096.00000000 103933.19531250 8212669.00000000 6486357.50000000 
0.00100    162207872.00000000 101182144.00000000 256221856.00000000 103908.96875000 8210920.50000000 6484969.00000000 
0.00200    162113744.00000000 101123872.00000000 256075120.00000000 103836.96875000 8205685.50000000 6480852.50000000 
0.00300    161957232.00000000 101026760.00000000 255827888.00000000 103717.70312500 8196971.00000000 6473997.50000000 
0.00400    161738048.00000000 100891816.00000000 255481648.00000000 103550.50781250 8184787.00000000 6464452.50000000 
0.00500    161454784.00000000 100717488.00000000 255038960.00000000 103335.69531250 8169126.50000000 6452147.50000000 
0.00600    161110176.00000000 100505176.00000000 254497792.00000000 103073.69531250 8150040.00000000 6437154.50000000 
0.00700    160702464.00000000 100254272.00000000 253859152.00000000 102765.57031250 8127509.00000000 6419470.00000000 
0.00800    160236032.00000000 99966624.00000000 253125248.00000000 102410.65625000 8101619.00000000 6399150.00000000 
0.00900    159707168.00000000 99641024.00000000 252296288.00000000 102009.83593750 8072366.50000000 6376141.50000000 
0.01000    159116864.00000000 99279184.00000000 251373632.00000000 101563.89843750 8039816.50000000 6350585.00000000 
0.01100    158470256.00000000 98880304.00000000 250357056.00000000 101072.94531250 8003981.00000000 6322460.50000000 
0.01200    157763744.00000000 98445032.00000000 249248496.00000000 100537.70312500 7964879.00000000 6291729.00000000 
0.01300    157000304.00000000 97974696.00000000 248049456.00000000 99959.39843750  7922598.00000000 6258543.50000000 
0.01400    156180240.00000000 97468848.00000000 246759792.00000000 99338.10937500  7877237.50000000 6222887.50000000 
0.01500    155303936.00000000 96928584.00000000 245384144.00000000 98674.85156250  7828732.50000000 6184810.00000000 
0.01600    154371072.00000000 96354280.00000000 243920992.00000000 97970.84375000  7777203.00000000 6144336.50000000 
0.01700    153385792.00000000 95746768.00000000 242373568.00000000 97226.71875000  7722760.50000000 6101561.00000000 
0.01800    152347296.00000000 95106784.00000000 240742480.00000000 96443.26562500  7665412.50000000 6056525.00000000 
0.01900    151257904.00000000 94435376.00000000 239031552.00000000 95621.57812500  7605282.50000000 6009262.00000000 
0.02000    150117712.00000000 93732576.00000000 237241584.00000000 94762.79687500  7542336.00000000 5959819.00000000 
0.02100    148928752.00000000 93000096.00000000 235373552.00000000 93868.07812500  7476733.00000000 5908307.00000000 
0.02200    147691440.00000000 92237408.00000000 233431712.00000000 92938.41406250  7408517.50000000 5854738.50000000 
0.02300    146407728.00000000 91445976.00000000 231418128.00000000 91974.88281250  7337848.00000000 5799190.50000000 
0.02400    145080064.00000000 90627880.00000000 229331920.00000000 90978.94531250  7264694.00000000 5741678.50000000 
0.02500    143709856.00000000 89782328.00000000 227179264.00000000 89951.57812500  7189175.00000000 5682375.00000000 
0.02600    142296208.00000000 88911784.00000000 224960256.00000000 88894.57031250  7111447.50000000 5621300.50000000 
0.02700    140842896.00000000 88015336.00000000 222678096.00000000 87808.53125000  7031534.00000000 5558482.00000000 
0.02800    139351088.00000000 87095704.00000000 220335648.00000000 86695.16406250  6949544.00000000 5494090.50000000 
0.02900    137822800.00000000 86152832.00000000 217933936.00000000 85555.53125000  6865588.50000000 5428085.00000000 
0.03000    136258096.00000000 85188048.00000000 215476096.00000000 84391.11718750  6779732.50000000 5360591.50000000 
0.03100    134660608.00000000 84202792.00000000 212967168.00000000 83204.01562500  6692075.00000000 5291716.50000000 
0.03200    133031032.00000000 83197608.00000000 210407616.00000000 81994.89062500  6602748.00000000 5221488.50000000 
0.03300    131371360.00000000 82173504.00000000 207799648.00000000 80764.82031250  6511829.00000000 5150027.50000000 
0.03400    129682344.00000000 81131736.00000000 205148352.00000000 79515.68750000  6419397.00000000 5077399.50000000 
0.03500    127967752.00000000 80074168.00000000 202453184.00000000 78249.26562500  6325605.00000000 5003662.50000000 
0.03600    126227680.00000000 78999992.00000000 199718784.00000000 76966.89062500  6230523.00000000 4928886.50000000 
0.03700    124464544.00000000 77912248.00000000 196949152.00000000 75669.61718750  6134256.50000000 4853220.00000000 
0.03800    122680192.00000000 76810824.00000000 194146320.00000000 74359.08593750  6036939.50000000 4776673.50000000 
0.03900    120877240.00000000 75697272.00000000 191311968.00000000 73036.64843750  5938612.50000000 4699352.50000000 
0.04000    119055632.00000000 74573264.00000000 188450176.00000000 71704.42187500  5839409.50000000 4621335.00000000 
0.04100    117218544.00000000 73439088.00000000 185562784.00000000 70362.71093750  5739441.50000000 4542748.50000000 
0.04200    115367856.00000000 72295672.00000000 182653424.00000000 69014.04687500  5638809.50000000 4463586.50000000 
0.04300    113504464.00000000 71144752.00000000 179724016.00000000 67659.03125000  5537598.50000000 4383985.00000000 
0.04400    111630544.00000000 69987440.00000000 176779184.00000000 66299.58593750  5435950.50000000 4303979.50000000 
0.04500    109748000.00000000 68824672.00000000 173820208.00000000 64937.00000000  5333919.50000000 4223707.00000000 
0.04600    107859496.00000000 67657712.00000000 170850112.00000000 63572.57812500  5231619.00000000 4143235.25000000 
0.04700    105965200.00000000 66487556.00000000 167873376.00000000 62207.58984375  5129174.50000000 4062621.00000000 
0.04800    104067464.00000000 65314528.00000000 164889792.00000000 60843.70312500  5026647.00000000 3981918.75000000 
0.04900    102168584.00000000 64140656.00000000 161902304.00000000 59481.96093750  4924151.00000000 3901257.00000000 
0.05000    100269912.00000000 62966628.00000000 158915696.00000000 58123.59765625  4821782.50000000 3820668.25000000 
0.05100    98372224.00000000 61793484.00000000 155931952.00000000 56770.19921875  4719586.50000000 3740238.00000000 
0.05200    96478328.00000000 60622148.00000000 152953600.00000000 55422.59765625  4617727.00000000 3660047.00000000 
0.05300    94589584.00000000 59453788.00000000 149981472.00000000 54082.21484375  4516256.00000000 3580154.25000000 
0.05400    92706992.00000000 58289488.00000000 147020848.00000000 52750.41406250  4415277.00000000 3500611.75000000 
0.05500    90833176.00000000 57129632.00000000 144072064.00000000 51428.44140625  4314841.50000000 3421525.00000000 
0.05600    88968296.00000000 55975872.00000000 141138064.00000000 50116.83593750  4215036.50000000 3342923.50000000 
0.05700    87115376.00000000 54828356.00000000 138221264.00000000 48816.83593750  4115984.75000000 3264877.25000000 
0.05800    85273944.00000000 53688172.00000000 135323888.00000000 47529.65234375  4017743.50000000 3187476.75000000 
0.05900    83447032.00000000 52557100.00000000 132448192.00000000 46256.07421875  3920355.50000000 3110737.00000000 
0.06000    81635328.00000000 51434728.00000000 129596400.00000000 44997.15625000  3823920.25000000 3034724.50000000 
0.06100    79840032.00000000 50322736.00000000 126770344.00000000 43754.02343750  3728504.25000000 2959538.50000000 
0.06200    78063048.00000000 49221284.00000000 123972488.00000000 42527.06250000  3634177.25000000 2885160.25000000 
0.06300    76304912.00000000 48131272.00000000 121203936.00000000 41317.56640625  3540996.25000000 2811705.00000000 
0.06400    74566752.00000000 47053560.00000000 118465968.00000000 40126.03515625  3449014.00000000 2739166.25000000 
0.06500    72849888.00000000 45988768.00000000 115762160.00000000 38953.51562500  3358309.75000000 2667638.50000000 
0.06600    71155496.00000000 44937948.00000000 113092472.00000000 37800.38281250  3268930.75000000 2597109.50000000 
0.06700    69484248.00000000 43900804.00000000 110459632.00000000 36667.09765625  3180924.50000000 2527674.50000000 
0.06800    67837632.00000000 42878540.00000000 107864608.00000000 35554.57812500  3094312.50000000 2459320.00000000 
0.06900    66215560.00000000 41871924.00000000 105309128.00000000 34463.83593750  3009191.00000000 2392147.25000000 
0.07000    64620512.00000000 40881096.00000000 102794160.00000000 33394.06640625  2925580.00000000 2326134.25000000 
0.07100    63051760.00000000 39906640.00000000 100321104.00000000 32346.88476562  2843512.00000000 2261346.25000000 
0.07200    61510892.00000000 38948992.00000000 97891184.00000000 31322.55468750  2763016.50000000 2197763.00000000 
0.07300    59998088.00000000 38008612.00000000 95505768.00000000 30320.84375000  2684150.00000000 2135467.25000000 
0.07400    58514476.00000000 37085876.00000000 93165552.00000000 29342.76757812  2606924.25000000 2074449.50000000 
0.07500    57060060.00000000 36181220.00000000 90871040.00000000 28388.24609375  2531380.25000000 2014742.25000000 
0.07600    55635800.00000000 35295068.00000000 88624264.00000000 27457.40039062  2457528.25000000 1956370.75000000 
0.07700    54242080.00000000 34427576.00000000 86424664.00000000 26550.92187500  2385375.25000000 1899322.50000000 
0.07800    52879292.00000000 33578756.00000000 84273248.00000000 25668.45898438  2314965.75000000 1843643.25000000 
0.07900    51547600.00000000 32749202.00000000 82170928.00000000 24810.41601562  2246311.00000000 1789336.25000000 
0.08000    50247860.00000000 31938918.00000000 80118416.00000000 23976.64648438  2179409.00000000 1736392.87500000 
0.08100    48979756.00000000 31148220.00000000 78115696.00000000 23167.20898438  2114280.00000000 1684849.87500000 
0.08200    47743428.00000000 30377198.00000000 76163048.00000000 22382.29101562  2050920.75000000 1634682.62500000 
0.08300    46539804.00000000 29625902.00000000 74260832.00000000 21621.65820312  1989337.87500000 1585909.37500000 
0.08400    45368204.00000000 28894318.00000000 72408720.00000000 20885.21679688  1929522.25000000 1538524.12500000 
0.08500    44228952.00000000 28182782.00000000 70607968.00000000 20172.97851562  1871474.12500000 1492522.75000000 
0.08600    43122000.00000000 27491090.00000000 68857472.00000000 19484.56250000  1815205.75000000 1447919.62500000 
0.08700    42047576.00000000 26819068.00000000 67158224.00000000 18819.96679688  1760695.25000000 1404693.50000000 
0.08800    41005196.00000000 26167030.00000000 65509148.00000000 18178.91015625  1707920.75000000 1362829.75000000 
0.08900    39995008.00000000 25534704.00000000 63910556.00000000 17561.13671875  1656888.50000000 1322334.75000000 
0.09000    39016784.00000000 24921980.00000000 62361532.00000000 16966.31250000  1607572.87500000 1283190.12500000 
0.09100    38070312.00000000 24328668.00000000 60863012.00000000 16394.12304688  1559952.25000000 1245367.37500000 
0.09200    37154992.00000000 23754822.00000000 59413388.00000000 15844.14355469  1514016.87500000 1208866.25000000 
0.09300    36270920.00000000 23200212.00000000 58012424.00000000 15316.27050781  1469743.25000000 1173686.50000000 
0.09400    35417968.00000000 22664410.00000000 56660488.00000000 14809.82714844  1427099.62500000 1139768.25000000 
0.09500    34595108.00000000 22147490.00000000 55355348.00000000 14324.54199219  1386064.50000000 1107132.25000000 
0.09600    33802140.00000000 21648950.00000000 54097984.00000000 13859.90234375  1346624.62500000 1075733.75000000 
0.09700    33038984.00000000 21168712.00000000 52887020.00000000 13415.51757812  1308732.12500000 1045565.06250000 
0.09800    32305000.00000000 20706544.00000000 51721712.00000000 12990.83007812  1272364.37500000 1016586.75000000 
0.09900    31599270.00000000 20261954.00000000 50601196.00000000 12585.46777344  1237493.12500000 988789.68750000 
0.10000    30921898.00000000 19834592.00000000 49525128.00000000 12198.76074219  1204069.87500000 962128.37500000 
0.10100    30271718.00000000 19424238.00000000 48491840.00000000 11830.31835938  1172070.50000000 936605.62500000 
0.10200    29648626.00000000 19030580.00000000 47501200.00000000 11479.57812500  1141463.37500000 912159.00000000 
0.10300    29051762.00000000 18653082.00000000 46551512.00000000 11145.90722656  1112205.12500000 888783.37500000 
0.10400    28480516.00000000 18291564.00000000 45642344.00000000 10828.83007812  1084265.37500000 866443.75000000 
0.10500    27934448.00000000 17945532.00000000 44772884.00000000 10527.80664062  1057596.87500000 845106.75000000 
0.10600    27412342.00000000 17614462.00000000 43941104.00000000 10242.25781250  1032153.93750000 824746.43750000 
0.10700    26914104.00000000 17298138.00000000 43147008.00000000 9971.48730469   1007917.56250000 805330.62500000 
0.10800    26438894.00000000 16996016.00000000 42388940.00000000 9715.10253906   984828.06250000 786822.93750000 
0.10900    25985702.00000000 16707655.00000000 41665712.00000000 9472.41308594   962857.62500000 769194.31250000 
0.11000    25554006.00000000 16432698.00000000 40976568.00000000 9242.91015625   941957.75000000 752421.31250000 
0.11100    25143046.00000000 16170618.00000000 40319828.00000000 9025.93750000   922091.43750000 736460.06250000 
0.11200    24752006.00000000 15920909.00000000 39694844.00000000 8820.97460938   903218.50000000 721274.12500000 
0.11300    24380480.00000000 15683397.00000000 39100324.00000000 8627.45703125   885287.43750000 706846.93750000 
0.11400    24027316.00000000 15457277.00000000 38535184.00000000 8444.78125000   868258.87500000 693138.31250000 
0.11500    23691956.00000000 15242278.00000000 37997816.00000000 8272.39550781   852102.68750000 680114.81250000 
0.11600    23373480.00000000 15037797.00000000 37487308.00000000 8109.78076172   836768.06250000 667738.75000000 
0.11700    23071306.00000000 14843558.00000000 37002564.00000000 7956.43896484   822220.12500000 655990.87500000 
0.11800    22784542.00000000 14658843.00000000 36542056.00000000 7811.62304688   808407.93750000 644830.62500000 
0.11900    22512358.00000000 14483378.00000000 36104912.00000000 7675.01171875   795301.31250000 634224.50000000 
0.12000    22254100.00000000 14316733.00000000 35689628.00000000 7546.00634766   782847.68750000 624146.56250000 
0.12100    22009186.00000000 14158304.00000000 35295376.00000000 7424.09765625   771031.43750000 614567.93750000 
0.12200    21776648.00000000 14007719.00000000 34921156.00000000 7308.82470703   759789.12500000 605453.06250000 
0.12300    21555740.00000000 13864591.00000000 34565352.00000000 7199.72021484   749101.87500000 596779.56250000 
0.12400    21346090.00000000 13728414.00000000 34227148.00000000 7096.21533203   738920.31250000 588509.81250000 
0.12500    21146368.00000000 13598600.00000000 33905056.00000000 6998.00390625   729206.75000000 580620.37500000 
0.12600    20956530.00000000 13475011.00000000 33598404.00000000 6904.54931641   719941.75000000 573081.68750000 
0.12700    20775444.00000000 13356970.00000000 33305904.00000000 6815.45214844   711080.68750000 565871.56250000 
0.12800    20602536.00000000 13244229.00000000 33026560.00000000 6730.32812500   702590.00000000 558957.18750000 
0.12900    20437336.00000000 13136209.00000000 32759280.00000000 6648.72021484   694432.12500000 552318.43750000 
0.13000    20278922.00000000 13032814.00000000 32503252.00000000 6570.32617188   686588.81250000 545924.06250000 
0.13100    20126978.00000000 12933303.00000000 32257066.00000000 6494.71630859   679018.68750000 539759.75000000 
0.13200    19980646.00000000 12837538.00000000 32020016.00000000 6421.64208984   671699.12500000 533793.06250000 
0.13300    19839456.00000000 12745075.00000000 31791394.00000000 6350.69042969   664601.87500000 528009.00000000 
0.13400    19702614.00000000 12655587.00000000 31570128.00000000 6281.61035156   657699.81250000 522383.53125000 
0.13500    19569868.00000000 12568669.00000000 31355272.00000000 6214.06347656   650959.56250000 516898.62500000 
0.13600    19440520.00000000 12484099.00000000 31145832.00000000 6147.84765625   644367.12500000 511530.34375000 
0.13700    19314320.00000000 12401417.00000000 30941316.00000000 6082.60156250   637889.62500000 506265.09375000 
0.13800    19190238.00000000 12320341.00000000 30740710.00000000 6018.18505859   631515.87500000 501081.68750000 
0.13900    19068164.00000000 12240806.00000000 30543662.00000000 5954.29443359   625220.68750000 495968.09375000 
0.14000    18947814.00000000 12162220.00000000 30349038.00000000 5890.84667969   618980.75000000 490904.50000000 
0.14100    18828492.00000000 12084452.00000000 30156176.00000000 5827.53417969   612784.68750000 485879.65625000 
0.14200    18709812.00000000 12007291.00000000 29964746.00000000 5764.22851562   606607.56250000 480877.87500000 
0.14300    18591376.00000000 11930441.00000000 29773824.00000000 5700.74169922   600440.87500000 475890.21875000 
0.14400    18472826.00000000 11853587.00000000 29582932.00000000 5636.94531250   594260.68750000 470896.84375000 
0.14500    18354006.00000000 11776710.00000000 29391702.00000000 5572.73925781   588061.68750000 465894.59375000 
0.14600    18234374.00000000 11699490.00000000 29199552.00000000 5508.02001953   581832.06250000 460873.68750000 
0.14700    18113832.00000000 11621836.00000000 29005758.00000000 5442.66601562   575558.06250000 455818.06250000 
0.14800    17991786.00000000 11543281.00000000 28810150.00000000 5376.60693359   569227.50000000 450725.59375000 
0.14900    17868344.00000000 11464091.00000000 28612322.00000000 5309.72167969   562833.37500000 445590.06250000 
0.15000    17743010.00000000 11383799.00000000 28411614.00000000 5242.01171875   556367.18750000 440401.81250000 
0.15100    17615692.00000000 11302415.00000000 28208006.00000000 5173.40869141   549822.06250000 435153.28125000 
0.15200    17486196.00000000 11219781.00000000 28001152.00000000 5103.93750000   543192.50000000 429848.59375000 
0.15300    17354470.00000000 11135741.00000000 27790766.00000000 5033.49365234   536475.68750000 424473.37500000 
0.15400    17220120.00000000 11050242.00000000 27576224.00000000 4962.07861328   529663.37500000 419030.21875000 
0.15500    17083076.00000000 10963235.00000000 27357946.00000000 4889.76855469   522757.00000000 413513.46875000 
0.15600    16943302.00000000 10874508.00000000 27135276.00000000 4816.49462891   515754.71875000 407923.43750000 
0.15700    16800764.00000000 10784236.00000000 26908212.00000000 4742.34912109   508652.78125000 402260.96875000 
0.15800    16655058.00000000 10692115.00000000 26676508.00000000 4667.27685547   501447.15625000 396521.09375000 
0.15900    16506563.00000000 10598216.00000000 26440486.00000000 4591.38037109   494148.31250000 390710.31250000 
0.16000    16354976.00000000 10502514.00000000 26199610.00000000 4514.66357422   486750.62500000 384820.31250000 
0.16100    16200440.00000000 10405040.00000000 25954156.00000000 4437.21875000   479259.09375000 378861.34375000 
0.16200    16042805.00000000 10305678.00000000 25703824.00000000 4359.08935547   471672.59375000 372827.62500000 
0.16300    15882050.00000000 10204523.00000000 25448730.00000000 4280.29589844   463997.43750000 366727.81250000 
0.16400    15718232.00000000 10101419.00000000 25188900.00000000 4200.97070312   456235.71875000 360564.50000000 
0.16500    15551513.00000000 9996575.00000000 24924498.00000000 4121.13671875   448392.37500000 354334.78125000 
0.16600    15381901.00000000 9889910.00000000 24655474.00000000 4040.89965820   440472.25000000 348048.53125000 
0.16700    15209265.00000000 9781445.00000000 24381852.00000000 3960.34521484   432480.09375000 341702.90625000 
0.16800    15033901.00000000 9671346.00000000 24103946.00000000 3879.49536133   424420.71875000 335310.75000000 
0.16900    14855879.00000000 9559513.00000000 23821688.00000000 3798.53295898   416305.87500000 328872.96875000 
0.17000    14675140.00000000 9446078.00000000 23535290.00000000 3717.48193359   408135.81250000 322391.84375000 
