# SAXS profile: number of points = 501, q_min = 0, q_max = 0.5, delta_q = 0.001
#    q    intensity 
0.00000    162229168.00000000 101202600.00000000 256269616.00000000 98558.17187500  7997521.00000000 6316379.50000000 
0.00100    162197888.00000000 101179120.00000000 256212432.00000000 98526.57031250  7995285.50000000 6314686.50000000 
0.00200    162096080.00000000 101112168.00000000 256043568.00000000 98434.17187500  7988802.00000000 6309574.50000000 
0.00300    161920672.00000000 101000872.00000000 255756432.00000000 98279.28906250  7977968.50000000 6301069.50000000 
0.00400    161665584.00000000 100844488.00000000 255357568.00000000 98063.14062500  7962823.00000000 6289181.50000000 
0.00500    161334384.00000000 100642520.00000000 254844496.00000000 97786.37500000  7943337.50000000 6273912.00000000 
0.00600    160935648.00000000 100397464.00000000 254221360.00000000 97449.80468750  7919711.00000000 6255349.50000000 
0.00700    160457472.00000000 100109832.00000000 253486304.00000000 97053.71875000  7891856.50000000 6233446.00000000 
0.00800    159917008.00000000 99779792.00000000 252641280.00000000 96599.02343750  7859861.50000000 6208362.50000000 
0.00900    159310416.00000000 99408192.00000000 251688880.00000000 96087.23437500  7823844.50000000 6180121.00000000 
0.01000    158636912.00000000 98993448.00000000 250628672.00000000 95519.70312500  7783813.00000000 6148670.00000000 
0.01100    157894720.00000000 98537064.00000000 249463776.00000000 94897.12500000  7739921.00000000 6114185.00000000 
0.01200    157082992.00000000 98039408.00000000 248195744.00000000 94221.03125000  7692196.00000000 6076741.00000000 
0.01300    156209872.00000000 97503624.00000000 246829200.00000000 93493.78125000  7640754.00000000 6036374.50000000 
0.01400    155274800.00000000 96929040.00000000 245362768.00000000 92715.92968750  7585678.00000000 5993084.00000000 
0.01500    154279024.00000000 96318224.00000000 243802368.00000000 91889.42968750  7527090.00000000 5947123.00000000 
0.01600    153222576.00000000 95669584.00000000 242146368.00000000 91017.40625000  7465156.00000000 5898512.50000000 
0.01700    152109152.00000000 94985592.00000000 240402528.00000000 90100.03125000  7399945.50000000 5847246.00000000 
0.01800    150939968.00000000 94267312.00000000 238567968.00000000 89141.03125000  7331638.00000000 5793627.00000000 
0.01900    149717968.00000000 93516512.00000000 236652512.00000000 88141.38281250  7260273.50000000 5737530.50000000 
0.02000    148442240.00000000 92733112.00000000 234651696.00000000 87103.11718750  7186087.50000000 5679232.00000000 
0.02100    147119040.00000000 91918528.00000000 232574848.00000000 86029.63281250  7109210.00000000 5618812.00000000 
0.02200    145746064.00000000 91074968.00000000 230422432.00000000 84922.39843750  7029703.50000000 5556336.00000000 
0.02300    144328976.00000000 90203400.00000000 228199200.00000000 83783.60156250  6947751.50000000 5491956.50000000 
0.02400    142868224.00000000 89304016.00000000 225908032.00000000 82615.68750000  6863587.50000000 5425768.00000000 
0.02500    141366864.00000000 88379864.00000000 223549184.00000000 81421.63281250  6777297.00000000 5357919.00000000 
0.02600    139826064.00000000 87430832.00000000 221134048.00000000 80202.60156250  6688993.50000000 5288488.00000000 
0.02700    138249968.00000000 86459640.00000000 218659776.00000000 78962.27343750  6598818.00000000 5217592.50000000 
0.02800    136639904.00000000 85467512.00000000 216131520.00000000 77702.18750000  6507032.50000000 5145397.00000000 
0.02900    134997776.00000000 84454528.00000000 213553536.00000000 76425.06250000  6413725.50000000 5072022.00000000 
0.03000    133326528.00000000 83423952.00000000 210926624.00000000 75132.60156250  6319075.50000000 4997552.50000000 
0.03100    131628472.00000000 82376640.00000000 208260032.00000000 73828.33593750  6223235.50000000 4922136.50000000 
0.03200    129906400.00000000 81314832.00000000 205554112.00000000 72513.75781250  6126329.00000000 4845853.00000000 
0.03300    128162328.00000000 80237680.00000000 202812832.00000000 71190.93750000  6028525.00000000 4768917.50000000 
0.03400    126397456.00000000 79148344.00000000 200041168.00000000 69862.09375000  5930038.50000000 4691364.50000000 
0.03500    124616520.00000000 78048024.00000000 197238352.00000000 68530.32812500  5830881.00000000 4613251.00000000 
0.03600    122820552.00000000 76936504.00000000 194413088.00000000 67195.86718750  5731266.50000000 4534842.00000000 
0.03700    121011400.00000000 75818176.00000000 191567200.00000000 65863.03125000  5631350.50000000 4456112.50000000 
0.03800    119191776.00000000 74691536.00000000 188704544.00000000 64531.54687500  5531246.50000000 4377216.00000000 
0.03900    117364320.00000000 73559624.00000000 185828560.00000000 63204.55859375  5431100.50000000 4298312.00000000 
0.04000    115530376.00000000 72424144.00000000 182943168.00000000 61883.66015625  5331029.00000000 4219438.00000000 
0.04100    113692416.00000000 71285304.00000000 180047952.00000000 60570.62109375  5231068.00000000 4140670.50000000 
0.04200    111853096.00000000 70145176.00000000 177149392.00000000 59266.56640625  5131524.00000000 4062173.75000000 
0.04300    110014400.00000000 69003608.00000000 174251040.00000000 57973.44140625  5032439.00000000 3983990.50000000 
0.04400    108175560.00000000 67863712.00000000 171356288.00000000 56692.66015625  4933790.00000000 3906219.75000000 
0.04500    106342616.00000000 66723888.00000000 168465904.00000000 55425.37109375  4835877.00000000 3828970.75000000 
0.04600    104514312.00000000 65588064.00000000 165584016.00000000 54172.98046875  4738688.00000000 3752257.00000000 
0.04700    102694400.00000000 64456780.00000000 162713744.00000000 52936.73046875  4642337.00000000 3676230.50000000 
0.04800    100882896.00000000 63330336.00000000 159858224.00000000 51717.57031250  4546891.50000000 3600898.00000000 
0.04900    99082304.00000000 62210360.00000000 157017168.00000000 50516.10937500  4452522.50000000 3526348.50000000 
0.05000    97294920.00000000 61097620.00000000 154196848.00000000 49333.88281250  4359191.00000000 3452651.25000000 
0.05100    95521040.00000000 59992780.00000000 151396624.00000000 48171.16796875  4267027.00000000 3379854.50000000 
0.05200    93762024.00000000 58896856.00000000 148619872.00000000 47029.19140625  4176086.50000000 3307995.75000000 
0.05300    92019800.00000000 57810628.00000000 145869488.00000000 45907.88281250  4086446.75000000 3237140.75000000 
0.05400    90294744.00000000 56735536.00000000 143146896.00000000 44808.23437500  3998102.75000000 3167324.75000000 
0.05500    88589688.00000000 55671200.00000000 140451584.00000000 43730.75000000  3911167.00000000 3098588.25000000 
0.05600    86904480.00000000 54619308.00000000 137789600.00000000 42675.44531250  3825644.25000000 3031002.00000000 
0.05700    85239672.00000000 53580464.00000000 135157344.00000000 41642.48828125  3741616.75000000 2964540.50000000 
0.05800    83597072.00000000 52554160.00000000 132561240.00000000 40632.31250000  3659054.50000000 2899244.50000000 
0.05900    81977472.00000000 51542148.00000000 130001352.00000000 39645.12500000  3578021.25000000 2835154.25000000 
0.06000    80382608.00000000 50544468.00000000 127478136.00000000 38680.48437500  3498563.25000000 2772249.00000000 
0.06100    78810600.00000000 49561584.00000000 124991936.00000000 37738.85156250  3420652.75000000 2710617.50000000 
0.06200    77264728.00000000 48593596.00000000 122545272.00000000 36820.27343750  3344324.25000000 2650199.25000000 
0.06300    75743424.00000000 47641676.00000000 120138512.00000000 35924.40234375  3269615.25000000 2591059.25000000 
0.06400    74248016.00000000 46705692.00000000 117772184.00000000 35050.69921875  3196445.75000000 2533132.25000000 
0.06500    72779952.00000000 45785724.00000000 115448416.00000000 34199.17968750  3124902.25000000 2476495.00000000 
0.06600    71338104.00000000 44882540.00000000 113165992.00000000 33369.53515625  3054956.00000000 2421085.00000000 
0.06700    69923576.00000000 43996032.00000000 110926376.00000000 32561.68554688  2986599.50000000 2366943.50000000 
0.06800    68536640.00000000 43126212.00000000 108729568.00000000 31775.18750000  2919811.50000000 2314059.25000000 
0.06900    67177232.00000000 42274124.00000000 106577256.00000000 31009.57031250  2854588.50000000 2262408.50000000 
0.07000    65844892.00000000 41438580.00000000 104467096.00000000 30264.02148438  2790926.75000000 2211964.25000000 
0.07100    64540400.00000000 40620476.00000000 102401152.00000000 29538.70898438  2728815.50000000 2162748.50000000 
0.07200    63263860.00000000 39819608.00000000 100378896.00000000 28832.94726562  2668212.25000000 2114725.25000000 
0.07300    62015100.00000000 39035884.00000000 98400720.00000000 28146.12304688  2609086.00000000 2067908.87500000 
0.07400    60793756.00000000 38269816.00000000 96465368.00000000 27477.81250000  2551454.25000000 2022245.25000000 
0.07500    59599892.00000000 37521096.00000000 94574864.00000000 26827.63867188  2495247.50000000 1977723.50000000 
0.07600    58433592.00000000 36788644.00000000 92726344.00000000 26194.88867188  2440466.50000000 1934306.62500000 
0.07700    57294436.00000000 36074012.00000000 90921464.00000000 25578.97656250  2387076.25000000 1892025.62500000 
0.07800    56181568.00000000 35375676.00000000 89158424.00000000 24979.69726562  2335046.00000000 1850801.62500000 
0.07900    55095532.00000000 34694592.00000000 87438008.00000000 24396.45703125  2284353.50000000 1810630.50000000 
0.08000    54035464.00000000 34029780.00000000 85759408.00000000 23828.40429688  2234961.25000000 1771484.37500000 
0.08100    53001516.00000000 33382126.00000000 84122288.00000000 23275.45117188  2186823.00000000 1733362.87500000 
0.08200    51993284.00000000 32750004.00000000 82524584.00000000 22737.02539062  2139902.50000000 1696216.25000000 
0.08300    51009860.00000000 32133494.00000000 80967128.00000000 22212.31054688  2094221.87500000 1660029.37500000 
0.08400    50050904.00000000 31532784.00000000 79448976.00000000 21701.33789062  2049720.00000000 1624774.00000000 
0.08500    49116720.00000000 30947432.00000000 77971328.00000000 21203.16992188  2006328.00000000 1590421.62500000 
0.08600    48206388.00000000 30377116.00000000 76528776.00000000 20717.65625000  1964050.87500000 1556955.62500000 
0.08700    47319504.00000000 29821568.00000000 75124584.00000000 20244.15429688  1922844.62500000 1524346.37500000 
0.08800    46454548.00000000 29280798.00000000 73756648.00000000 19782.49414062  1882699.37500000 1492548.12500000 
0.08900    45612740.00000000 28754084.00000000 72424968.00000000 19332.15039062  1843557.50000000 1461566.00000000 
0.09000    44792484.00000000 28241236.00000000 71128168.00000000 18892.77734375  1805385.12500000 1431374.50000000 
0.09100    43993648.00000000 27742060.00000000 69864728.00000000 18463.69531250  1768170.25000000 1401939.87500000 
0.09200    43215084.00000000 27255968.00000000 68634840.00000000 18045.23632812  1731884.50000000 1373210.50000000 
0.09300    42457464.00000000 26782878.00000000 67437328.00000000 17636.45898438  1696476.50000000 1345219.37500000 
0.09400    41718948.00000000 26322288.00000000 66270592.00000000 17237.12890625  1661926.62500000 1317913.87500000 
0.09500    40999900.00000000 25873982.00000000 65134792.00000000 16847.12109375  1628227.62500000 1291252.12500000 
0.09600    40299128.00000000 25437432.00000000 64028364.00000000 16466.30859375  1595341.00000000 1265242.37500000 
0.09700    39617012.00000000 25012552.00000000 62951348.00000000 16093.97656250  1563216.37500000 1239861.25000000 
0.09800    38952216.00000000 24598686.00000000 61902012.00000000 15730.18164062  1531858.62500000 1215066.12500000 
0.09900    38303944.00000000 24195864.00000000 60879868.00000000 15374.66113281  1501234.75000000 1190866.75000000 
0.10000    37672756.00000000 23803338.00000000 59884276.00000000 15027.09472656  1471325.62500000 1167220.87500000 
0.10100    37056752.00000000 23421094.00000000 58913892.00000000 14687.24316406  1442075.37500000 1144131.75000000 
0.10200    36456620.00000000 23048788.00000000 57968076.00000000 14355.08203125  1413508.00000000 1121551.00000000 
0.10300    35871104.00000000 22685372.00000000 57045568.00000000 14030.14550781  1385585.50000000 1099489.25000000 
0.10400    35299820.00000000 22331872.00000000 56146300.00000000 13712.45507812  1358269.50000000 1077906.50000000 
0.10500    34743052.00000000 21986562.00000000 55269176.00000000 13401.88183594  1331552.37500000 1056812.50000000 
0.10600    34199036.00000000 21649706.00000000 54413164.00000000 13098.05273438  1305412.62500000 1036161.62500000 
0.10700    33667956.00000000 21321376.00000000 53577292.00000000 12801.04101562  1279833.87500000 1015960.31250000 
0.10800    33149244.00000000 21000756.00000000 52761468.00000000 12510.52246094  1254804.12500000 996186.62500000 
0.10900    32642614.00000000 20687594.00000000 51964284.00000000 12226.31347656  1230293.87500000 976830.00000000 
0.11000    32147184.00000000 20381628.00000000 51185516.00000000 11948.37792969  1206297.62500000 957873.25000000 
0.11100    31662744.00000000 20082402.00000000 50423496.00000000 11676.54101562  1182779.75000000 939301.81250000 
0.11200    31188636.00000000 19790054.00000000 49679020.00000000 11410.63378906  1159742.25000000 921102.06250000 
0.11300    30724668.00000000 19503812.00000000 48949804.00000000 11150.50976562  1137161.87500000 903264.37500000 
0.11400    30270358.00000000 19223916.00000000 48236296.00000000 10896.15527344  1115029.37500000 885778.81250000 
0.11500    29825292.00000000 18949638.00000000 47537280.00000000 10647.38476562  1093332.75000000 868632.50000000 
0.11600    29388916.00000000 18680750.00000000 46851912.00000000 10403.97070312  1072033.00000000 851811.31250000 
0.11700    28961216.00000000 18417206.00000000 46179928.00000000 10165.94824219  1051159.50000000 835308.06250000 
0.11800    28541380.00000000 18158828.00000000 45520888.00000000 9932.95898438   1030669.62500000 819107.81250000 
0.11900    28129216.00000000 17904786.00000000 44873688.00000000 9705.02636719   1010548.87500000 803195.56250000 
0.12000    27724372.00000000 17655522.00000000 44238020.00000000 9482.02636719   990786.62500000 787575.06250000 
0.12100    27326846.00000000 17410802.00000000 43613816.00000000 9263.86816406   971392.68750000 772227.93750000 
0.12200    26935716.00000000 17169774.00000000 42999536.00000000 9050.29296875   952330.18750000 757154.18750000 
0.12300    26550950.00000000 16932844.00000000 42395148.00000000 8841.29492188   933604.43750000 742327.56250000 
0.12400    26172286.00000000 16699518.00000000 41800472.00000000 8636.66894531   915188.68750000 727755.06250000 
0.12500    25799414.00000000 16469693.00000000 41214996.00000000 8436.27832031   897085.56250000 713422.50000000 
0.12600    25431852.00000000 16243176.00000000 40637544.00000000 8240.09765625   879282.25000000 699327.50000000 
0.12700    25069770.00000000 16019771.00000000 40068072.00000000 8048.01171875   861768.93750000 685452.81250000 
0.12800    24712452.00000000 15799281.00000000 39506928.00000000 7859.82714844   844538.68750000 671801.06250000 
0.12900    24359908.00000000 15581761.00000000 38952508.00000000 7675.39794922   827576.87500000 658359.62500000 
0.13000    24011974.00000000 15366859.00000000 38405560.00000000 7494.63232422   810874.75000000 645120.37500000 
0.13100    23668182.00000000 15154399.00000000 37864672.00000000 7317.59326172   794425.12500000 632078.06250000 
0.13200    23328606.00000000 14944377.00000000 37330332.00000000 7143.87255859   778231.68750000 619227.50000000 
0.13300    22992910.00000000 14736726.00000000 36801820.00000000 6973.52929688   762272.31250000 606568.00000000 
0.13400    22660824.00000000 14530972.00000000 36279192.00000000 6806.55712891   746541.87500000 594075.62500000 
0.13500    22332518.00000000 14327512.00000000 35762096.00000000 6642.70068359   731039.87500000 581770.56250000 
0.13600    22007516.00000000 14125866.00000000 35249996.00000000 6481.89550781   715762.25000000 569639.25000000 
0.13700    21685742.00000000 13926197.00000000 34742408.00000000 6324.14892578   700698.37500000 557671.43750000 
0.13800    21367312.00000000 13728228.00000000 34240380.00000000 6169.21972656   685835.56250000 545861.62500000 
0.13900    21051716.00000000 13532004.00000000 33742568.00000000 6017.17675781   671180.25000000 534216.43750000 
0.14000    20739236.00000000 13337565.00000000 33249126.00000000 5867.96630859   656727.00000000 522719.75000000 
0.14100    20429430.00000000 13144559.00000000 32760066.00000000 5721.41015625   642470.56250000 511378.68750000 
0.14200    20122746.00000000 12953187.00000000 32274940.00000000 5577.46679688   628398.56250000 500183.59375000 
0.14300    19818304.00000000 12763199.00000000 31794164.00000000 5436.12744141   614520.81250000 489138.31250000 
0.14400    19516536.00000000 12574689.00000000 31317010.00000000 5297.30175781   600824.43750000 478235.25000000 
0.14500    19217666.00000000 12387604.00000000 30844096.00000000 5161.08789062   587309.93750000 467477.81250000 
0.14600    18921180.00000000 12202006.00000000 30374678.00000000 5027.27197266   573980.06250000 456857.46875000 
0.14700    18627270.00000000 12017774.00000000 29909130.00000000 4895.88720703   560828.56250000 446377.03125000 
0.14800    18335774.00000000 11834906.00000000 29447248.00000000 4766.95703125   547853.43750000 436036.81250000 
0.14900    18046826.00000000 11653344.00000000 28989228.00000000 4640.36767578   535055.18750000 425832.28125000 
0.15000    17760300.00000000 11473239.00000000 28534492.00000000 4516.19970703   522430.78125000 415765.68750000 
0.15100    17476262.00000000 11294459.00000000 28083860.00000000 4394.43798828   509986.06250000 405838.18750000 
0.15200    17194628.00000000 11117079.00000000 27636836.00000000 4274.98339844   497710.21875000 396047.00000000 
0.15300    16915590.00000000 10941077.00000000 27193350.00000000 4157.95507812   485616.68750000 386394.18750000 
0.15400    16639127.00000000 10766473.00000000 26753858.00000000 4043.23217773   473695.87500000 376871.53125000 
0.15500    16365103.00000000 10593357.00000000 26318082.00000000 3930.93530273   461952.93750000 367496.00000000 
0.15600    16093470.00000000 10421497.00000000 25886192.00000000 3820.98901367   450384.18750000 358253.06250000 
0.15700    15824644.00000000 10251274.00000000 25458048.00000000 3713.52124023   438996.09375000 349155.12500000 
0.15800    15558239.00000000 10082566.00000000 25034074.00000000 3608.37719727   427787.71875000 340194.31250000 
0.15900    15294729.00000000 9915220.00000000 24614054.00000000 3505.72265625   416761.43750000 331376.25000000 
0.16000    15033619.00000000 9749566.00000000 24198046.00000000 3405.49658203   405916.00000000 322702.84375000 
0.16100    14775469.00000000 9585498.00000000 23786590.00000000 3307.77319336   395258.40625000 314175.71875000 
0.16200    14520185.00000000 9423040.00000000 23379106.00000000 3212.50781250   384779.31250000 305790.75000000 
0.16300    14267611.00000000 9262255.00000000 22976022.00000000 3119.72265625   374489.40625000 297555.15625000 
0.16400    14017984.00000000 9103095.00000000 22577548.00000000 3029.47851562   364388.43750000 289467.65625000 
0.16500    13771309.00000000 8945759.00000000 22183444.00000000 2941.75878906   354478.78125000 281528.96875000 
0.16600    13527639.00000000 8790027.00000000 21794048.00000000 2856.58593750   344760.09375000 273740.00000000 
0.16700    13287020.00000000 8636258.00000000 21409190.00000000 2773.93457031   335233.18750000 266107.06250000 
0.16800    13049408.00000000 8484264.00000000 21029018.00000000 2693.83398438   325898.03125000 258623.85937500 
0.16900    12814935.00000000 8334196.00000000 20653934.00000000 2616.36694336   316767.68750000 251297.09375000 
0.17000    12583709.00000000 8186005.00000000 20283482.00000000 2541.39550781   307824.15625000 244124.84375000 
