# SAXS profile: number of points = 501, q_min = 0, q_max = 0.5, delta_q = 0.001
#    q    intensity 
0.00000    162234928.00000000 101202200.00000000 256272288.00000000 98395.06250000  7990893.50000000 6311173.00000000 
0.00100    162201696.00000000 101179208.00000000 256214032.00000000 98368.38281250  7988881.50000000 6309598.00000000 
0.00200    162096432.00000000 101113144.00000000 256045936.00000000 98286.27343750  7982918.50000000 6304862.50000000 
0.00300    161920288.00000000 101001776.00000000 255763040.00000000 98150.55468750  7972865.00000000 6296974.00000000 
0.00400    161668432.00000000 100846736.00000000 255370432.00000000 97960.64062500  7958909.50000000 6285992.50000000 
0.00500    161345872.00000000 100647192.00000000 254862208.00000000 97717.33593750  7941046.00000000 6271897.50000000 
0.00600    160952384.00000000 100403728.00000000 254243104.00000000 97420.76562500  7919224.00000000 6254745.50000000 
0.00700    160490304.00000000 100117592.00000000 253516192.00000000 97071.45312500  7893532.00000000 6234500.50000000 
0.00800    159953840.00000000 99788128.00000000 252680720.00000000 96670.84375000  7864023.50000000 6211250.50000000 
0.00900    159356320.00000000 99417528.00000000 251736464.00000000 96218.04687500  7830741.50000000 6184986.00000000 
0.01000    158689536.00000000 99004928.00000000 250687296.00000000 95715.89843750  7793706.50000000 6155877.00000000 
0.01100    157956416.00000000 98551040.00000000 249533600.00000000 95164.54687500  7753029.00000000 6123810.00000000 
0.01200    157160192.00000000 98056128.00000000 248276752.00000000 94564.64843750  7708796.50000000 6088952.00000000 
0.01300    156297200.00000000 97522216.00000000 246919504.00000000 93917.43750000  7661074.00000000 6051345.50000000 
0.01400    155372064.00000000 96949648.00000000 245465616.00000000 93224.29687500  7609867.50000000 6011059.50000000 
0.01500    154387248.00000000 96338792.00000000 243913488.00000000 92486.85937500  7555364.00000000 5968107.00000000 
0.01600    153342496.00000000 95691712.00000000 242270768.00000000 91706.33593750  7497641.50000000 5922605.50000000 
0.01700    152240800.00000000 95008600.00000000 240534736.00000000 90884.36718750  7436777.00000000 5874665.00000000 
0.01800    151081424.00000000 94290920.00000000 238710336.00000000 90021.35937500  7372862.50000000 5824289.00000000 
0.01900    149868656.00000000 93539504.00000000 236799584.00000000 89119.93750000  7306034.50000000 5771629.00000000 
0.02000    148604368.00000000 92754976.00000000 234808448.00000000 88182.29687500  7236366.00000000 5716773.50000000 
0.02100    147287728.00000000 91939984.00000000 232736560.00000000 87208.33593750  7164050.50000000 5659753.00000000 
0.02200    145924240.00000000 91093888.00000000 230588336.00000000 86201.40625000  7089109.50000000 5600710.00000000 
0.02300    144513168.00000000 90219704.00000000 228366880.00000000 85162.85156250  7011761.50000000 5539748.50000000 
0.02400    143057648.00000000 89317264.00000000 226075536.00000000 84093.51562500  6932015.50000000 5476901.50000000 
0.02500    141561136.00000000 88389304.00000000 223717136.00000000 82996.21093750  6850134.50000000 5412343.00000000 
0.02600    140022464.00000000 87436176.00000000 221296080.00000000 81873.34375000  6766130.50000000 5346130.00000000 
0.02700    138448816.00000000 86458784.00000000 218813936.00000000 80726.14062500  6680213.00000000 5278420.00000000 
0.02800    136837088.00000000 85459216.00000000 216277600.00000000 79556.10937500  6592470.50000000 5209266.00000000 
0.02900    135193632.00000000 84439352.00000000 213688032.00000000 78365.35156250  6503111.00000000 5138786.50000000 
0.03000    133519072.00000000 83399992.00000000 211048560.00000000 77156.28125000  6412200.50000000 5067094.50000000 
0.03100    131815064.00000000 82342936.00000000 208364784.00000000 75930.96093750  6319880.50000000 4994320.00000000 
0.03200    130085136.00000000 81269104.00000000 205637568.00000000 74690.25000000  6226296.00000000 4920563.50000000 
0.03300    128331224.00000000 80180520.00000000 202874608.00000000 73437.39843750  6131577.00000000 4845867.50000000 
0.03400    126556072.00000000 79077496.00000000 200076896.00000000 72173.48437500  6035894.00000000 4770421.50000000 
0.03500    124761632.00000000 77963232.00000000 197246656.00000000 70900.60156250  5939342.50000000 4694257.50000000 
0.03600    122949480.00000000 76837320.00000000 194391264.00000000 69620.31250000  5842065.00000000 4617554.00000000 
0.03700    121123744.00000000 75703024.00000000 191513056.00000000 68334.76562500  5744232.50000000 4540367.00000000 
0.03800    119284064.00000000 74561312.00000000 188615040.00000000 67046.32031250  5645947.50000000 4462886.50000000 
0.03900    117435520.00000000 73412576.00000000 185699392.00000000 65755.48437500  5547305.50000000 4385061.50000000 
0.04000    115578936.00000000 72258544.00000000 182770448.00000000 64465.56640625  5448480.50000000 4307057.50000000 
0.04100    113716000.00000000 71100376.00000000 179834624.00000000 63176.59375000  5349542.00000000 4229067.00000000 
0.04200    111850256.00000000 69939320.00000000 176891680.00000000 61891.10546875  5250675.50000000 4151028.75000000 
0.04300    109983208.00000000 68778144.00000000 173944432.00000000 60610.32421875  5151952.50000000 4073143.50000000 
0.04400    108116544.00000000 67616552.00000000 171000704.00000000 59336.25390625  5053531.50000000 3995481.25000000 
0.04500    106252528.00000000 66457080.00000000 168060992.00000000 58070.03125000  4955486.00000000 3918108.50000000 
0.04600    104393008.00000000 65299932.00000000 165126192.00000000 56813.10156250  4857920.00000000 3841078.75000000 
0.04700    102540416.00000000 64146836.00000000 162203808.00000000 55566.52343750  4760926.00000000 3764562.00000000 
0.04800    100696592.00000000 62998804.00000000 159294480.00000000 54332.12890625  4664681.50000000 3688565.25000000 
0.04900    98862008.00000000 61856420.00000000 156398688.00000000 53110.96875000  4569194.50000000 3613193.75000000 
0.05000    97040744.00000000 60722100.00000000 153522640.00000000 51903.82031250  4474588.50000000 3538488.00000000 
0.05100    95231592.00000000 59595456.00000000 150668512.00000000 50711.88671875  4380956.00000000 3464562.25000000 
0.05200    93438864.00000000 58478324.00000000 147836720.00000000 49536.48828125  4288348.50000000 3391427.00000000 
0.05300    91662016.00000000 57371008.00000000 145031952.00000000 48378.37500000  4196886.50000000 3319209.25000000 
0.05400    89903256.00000000 56275112.00000000 142255888.00000000 47238.11718750  4106547.00000000 3247911.00000000 
0.05500    88163672.00000000 55190804.00000000 139509008.00000000 46116.60546875  4017529.00000000 3177597.00000000 
0.05600    86445256.00000000 54119628.00000000 136796336.00000000 45015.32421875  3929812.00000000 3108341.25000000 
0.05700    84748936.00000000 53061888.00000000 134116992.00000000 43933.87500000  3843485.00000000 3040141.75000000 
0.05800    83076072.00000000 52018248.00000000 131474160.00000000 42873.25781250  3758560.50000000 2973063.00000000 
0.05900    81427312.00000000 50989752.00000000 128869072.00000000 41833.60546875  3675145.25000000 2907167.00000000 
0.06000    79803736.00000000 49976432.00000000 126304512.00000000 40816.15234375  3593222.25000000 2842457.25000000 
0.06100    78204880.00000000 48979488.00000000 123780048.00000000 39820.25781250  3512854.25000000 2778964.25000000 
0.06200    76634440.00000000 47999288.00000000 121297736.00000000 38847.24609375  3434084.25000000 2716739.50000000 
0.06300    75090952.00000000 47036036.00000000 118859104.00000000 37896.53906250  3356930.00000000 2655786.25000000 
0.06400    73575968.00000000 46090444.00000000 116465136.00000000 36968.50390625  3281401.50000000 2596091.00000000 
0.06500    72089592.00000000 45162524.00000000 114116312.00000000 36063.24218750  3207524.75000000 2537741.75000000 
0.06600    70632448.00000000 44252672.00000000 111813592.00000000 35181.08984375  3135317.75000000 2480676.50000000 
0.06700    69205640.00000000 43361616.00000000 109558064.00000000 34321.30468750  3064795.00000000 2424959.50000000 
0.06800    67808544.00000000 42489100.00000000 107349752.00000000 33484.47656250  2995977.00000000 2370576.25000000 
0.06900    66441104.00000000 41635560.00000000 105189728.00000000 32670.20117188  2928828.50000000 2317506.75000000 
0.07000    65105052.00000000 40800940.00000000 103077400.00000000 31878.36914062  2863351.75000000 2265787.25000000 
0.07100    63799608.00000000 39985540.00000000 101014136.00000000 31108.77148438  2799562.00000000 2215383.25000000 
0.07200    62524496.00000000 39189592.00000000 98999200.00000000 30360.56640625  2737431.25000000 2166278.50000000 
0.07300    61280776.00000000 38412648.00000000 97032912.00000000 29634.60351562  2676969.50000000 2118490.75000000 
0.07400    60067380.00000000 37654716.00000000 95115152.00000000 28929.53320312  2618143.00000000 2072025.00000000 
0.07500    58884804.00000000 36916268.00000000 93245960.00000000 28245.33789062  2560913.25000000 2026799.75000000 
0.07600    57732488.00000000 36196804.00000000 91425272.00000000 27581.50195312  2505279.50000000 1982844.87500000 
0.07700    56610336.00000000 35496368.00000000 89651720.00000000 26937.71679688  2451224.00000000 1940145.75000000 
0.07800    55517712.00000000 34814636.00000000 87925952.00000000 26313.16015625  2398731.25000000 1898669.12500000 
0.07900    54455276.00000000 34151128.00000000 86246760.00000000 25707.64648438  2347712.75000000 1858375.25000000 
0.08000    53421484.00000000 33506258.00000000 84613360.00000000 25120.39648438  2298184.50000000 1819253.37500000 
0.08100    52416740.00000000 32879642.00000000 83026352.00000000 24551.21484375  2250102.75000000 1781292.87500000 
0.08200    51440468.00000000 32270498.00000000 81483816.00000000 23999.29687500  2203435.50000000 1744422.87500000 
0.08300    50491428.00000000 31679004.00000000 79985816.00000000 23463.98046875  2158121.75000000 1708647.87500000 
0.08400    49569856.00000000 31104516.00000000 78530776.00000000 22944.74414062  2114179.00000000 1673935.50000000 
0.08500    48675088.00000000 30547070.00000000 77117080.00000000 22441.13671875  2071495.50000000 1640231.25000000 
0.08600    47806308.00000000 30005750.00000000 75745472.00000000 21952.49023438  2030073.12500000 1607527.37500000 
0.08700    46962676.00000000 29480594.00000000 74414592.00000000 21478.23046875  1989842.87500000 1575796.87500000 
0.08800    46144172.00000000 28971050.00000000 73122624.00000000 21017.73242188  1950810.25000000 1544977.12500000 
0.08900    45349564.00000000 28476846.00000000 71869256.00000000 20570.34960938  1912886.62500000 1515058.25000000 
0.09000    44578264.00000000 27997474.00000000 70653072.00000000 20135.53515625  1876041.12500000 1485985.00000000 
0.09100    43829116.00000000 27532318.00000000 69472888.00000000 19712.70898438  1840239.37500000 1457747.25000000 
0.09200    43102388.00000000 27081174.00000000 68327160.00000000 19301.26562500  1805429.00000000 1430288.75000000 
0.09300    42397148.00000000 26643562.00000000 67215080.00000000 18900.99023438  1771578.62500000 1403588.37500000 
0.09400    41711892.00000000 26218680.00000000 66136532.00000000 18510.67187500  1738631.75000000 1377602.37500000 
0.09500    41046336.00000000 25806424.00000000 65089060.00000000 18130.27539062  1706555.00000000 1352310.87500000 
0.09600    40400040.00000000 25406250.00000000 64071228.00000000 17759.28515625  1675299.50000000 1327682.00000000 
0.09700    39771872.00000000 25017760.00000000 63082640.00000000 17397.07812500  1644834.50000000 1303660.87500000 
0.09800    39161108.00000000 24640182.00000000 62122224.00000000 17042.99609375  1615117.62500000 1280256.50000000 
0.09900    38567032.00000000 24273330.00000000 61188724.00000000 16697.03515625  1586119.62500000 1257393.50000000 
0.10000    37988932.00000000 23916514.00000000 60280196.00000000 16358.51367188  1557776.62500000 1235071.50000000 
0.10100    37426220.00000000 23569790.00000000 59396392.00000000 16026.95019531  1530071.50000000 1213250.37500000 
0.10200    36878168.00000000 23232058.00000000 58535680.00000000 15702.02832031  1502972.00000000 1191891.00000000 
0.10300    36343692.00000000 22903008.00000000 57697016.00000000 15383.32812500  1476429.87500000 1170981.75000000 
0.10400    35822752.00000000 22582366.00000000 56879200.00000000 15070.66699219  1450404.75000000 1150491.37500000 
0.10500    35313988.00000000 22270040.00000000 56081632.00000000 14763.55078125  1424920.75000000 1130410.00000000 
0.10600    34816868.00000000 21965060.00000000 55302808.00000000 14461.64062500  1399884.12500000 1110692.75000000 
0.10700    34331556.00000000 21667194.00000000 54541736.00000000 14164.82128906  1375295.12500000 1091326.75000000 
0.10800    33856544.00000000 21375958.00000000 53797496.00000000 13872.74414062  1351126.37500000 1072289.25000000 
0.10900    33391360.00000000 21090946.00000000 53069432.00000000 13585.13964844  1327343.25000000 1053554.62500000 
0.11000    32935396.00000000 20812222.00000000 52355976.00000000 13301.98046875  1303932.00000000 1035105.56250000 
0.11100    32488564.00000000 20538904.00000000 51656508.00000000 13022.77343750  1280856.62500000 1016932.93750000 
0.11200    32050122.00000000 20270880.00000000 50970520.00000000 12747.60937500  1258108.37500000 999012.31250000 
0.11300    31619182.00000000 20007628.00000000 50296532.00000000 12476.30859375  1235672.00000000 981331.75000000 
0.11400    31195582.00000000 19749030.00000000 49634268.00000000 12208.63867188  1213527.50000000 963870.81250000 
0.11500    30779072.00000000 19494908.00000000 48983044.00000000 11944.54003906  1191659.62500000 946628.12500000 
0.11600    30368868.00000000 19244416.00000000 48341804.00000000 11683.85937500  1170039.37500000 929575.75000000 
0.11700    29964496.00000000 18997780.00000000 47709904.00000000 11426.67187500  1148672.00000000 912719.25000000 
0.11800    29565850.00000000 18754592.00000000 47086764.00000000 11172.71875000  1127536.37500000 896044.87500000 
0.11900    29172354.00000000 18514660.00000000 46471916.00000000 10922.07324219  1106618.25000000 879534.56250000 
0.12000    28783620.00000000 18277748.00000000 45864636.00000000 10674.53417969  1085914.75000000 863191.43750000 
0.12100    28399626.00000000 18043542.00000000 45264588.00000000 10430.39550781  1065422.25000000 847006.31250000 
0.12200    28019786.00000000 17811980.00000000 44670872.00000000 10189.38964844  1045127.31250000 830971.75000000 
0.12300    27644018.00000000 17582670.00000000 44083708.00000000 9951.62695312   1025028.12500000 815086.87500000 
0.12400    27271694.00000000 17355672.00000000 43502076.00000000 9717.04394531   1005111.75000000 799338.25000000 
0.12500    26903086.00000000 17130654.00000000 42925564.00000000 9485.68652344   985394.50000000 783743.12500000 
0.12600    26537662.00000000 16907720.00000000 42354344.00000000 9257.66210938   965854.37500000 768282.00000000 
0.12700    26175554.00000000 16686459.00000000 41787664.00000000 9032.86132812   946493.62500000 752956.81250000 
0.12800    25816128.00000000 16466739.00000000 41225412.00000000 8811.37890625   927320.06250000 737770.93750000 
0.12900    25459480.00000000 16248681.00000000 40667456.00000000 8593.28710938   908333.06250000 722722.00000000 
0.13000    25105616.00000000 16032122.00000000 40113336.00000000 8378.62597656   889523.81250000 707813.18750000 
0.13100    24754294.00000000 15816854.00000000 39563056.00000000 8167.45019531   870901.50000000 693040.18750000 
0.13200    24405340.00000000 15602951.00000000 39016468.00000000 7959.66455078   852465.62500000 678408.18750000 
0.13300    24058852.00000000 15390342.00000000 38472956.00000000 7755.51318359   834220.93750000 663928.81250000 
0.13400    23714506.00000000 15178907.00000000 37933200.00000000 7554.90917969   816168.12500000 649584.25000000 
0.13500    23372684.00000000 14968660.00000000 37396616.00000000 7357.90332031   798308.93750000 635393.87500000 
0.13600    23032838.00000000 14759598.00000000 36863236.00000000 7164.63964844   780646.12500000 621357.75000000 
0.13700    22695286.00000000 14551612.00000000 36332760.00000000 6975.08154297   763191.25000000 607468.56250000 
0.13800    22359902.00000000 14344679.00000000 35805748.00000000 6789.23339844   745943.31250000 593739.62500000 
0.13900    22026676.00000000 14138945.00000000 35281836.00000000 6607.17236328   728898.62500000 580171.56250000 
0.14000    21695796.00000000 13934276.00000000 34761200.00000000 6428.99267578   712083.56250000 566770.56250000 
0.14100    21367090.00000000 13730772.00000000 34243576.00000000 6254.67138672   695474.50000000 553540.18750000 
0.14200    21040616.00000000 13528415.00000000 33729272.00000000 6084.12255859   679098.93750000 540480.68750000 
0.14300    20716150.00000000 13327236.00000000 33218370.00000000 5917.46142578   662949.50000000 527588.43750000 
0.14400    20394316.00000000 13127084.00000000 32710214.00000000 5754.64648438   647022.75000000 514885.21875000 
0.14500    20074844.00000000 12928322.00000000 32205906.00000000 5595.77001953   631345.50000000 502366.81250000 
0.14600    19757664.00000000 12730706.00000000 31705254.00000000 5440.79003906   615901.81250000 490023.62500000 
0.14700    19443076.00000000 12534400.00000000 31208102.00000000 5289.62207031   600698.43750000 477876.15625000 
0.14800    19131092.00000000 12339403.00000000 30714292.00000000 5142.33203125   585745.37500000 465919.90625000 
0.14900    18821478.00000000 12145851.00000000 30224608.00000000 4998.84277344   571043.50000000 454158.90625000 
0.15000    18514618.00000000 11953632.00000000 29738712.00000000 4859.15039062   556586.93750000 442594.75000000 
0.15100    18210478.00000000 11762883.00000000 29256730.00000000 4723.24023438   542389.87500000 431227.06250000 
0.15200    17909274.00000000 11573571.00000000 28779152.00000000 4591.07519531   528445.68750000 420066.00000000 
0.15300    17610794.00000000 11385927.00000000 28305724.00000000 4462.55175781   514769.81250000 409101.93750000 
0.15400    17315182.00000000 11199805.00000000 27836496.00000000 4337.63183594   501339.37500000 398345.59375000 
0.15500    17022682.00000000 11015352.00000000 27371866.00000000 4216.35888672   488179.65625000 387794.21875000 
0.15600    16733197.00000000 10832450.00000000 26911454.00000000 4098.57617188   475278.81250000 377449.12500000 
0.15700    16446892.00000000 10651438.00000000 26456068.00000000 3984.24414062   462640.03125000 367312.59375000 
0.15800    16163620.00000000 10472137.00000000 26005284.00000000 3873.23901367   450257.65625000 357378.71875000 
0.15900    15883709.00000000 10294679.00000000 25559396.00000000 3765.59277344   438140.84375000 347656.25000000 
0.16000    15606859.00000000 10119127.00000000 25118484.00000000 3661.11596680   426285.31250000 338138.50000000 
0.16100    15333581.00000000 9945370.00000000 24682548.00000000 3559.86596680   414688.34375000 328828.18750000 
0.16200    15063502.00000000 9773574.00000000 24251692.00000000 3461.64282227   403347.00000000 319723.56250000 
0.16300    14796957.00000000 9603805.00000000 23826242.00000000 3366.43310547   392259.68750000 310820.06250000 
0.16400    14533917.00000000 9436033.00000000 23406060.00000000 3274.13671875   381429.96875000 302123.50000000 
0.16500    14274299.00000000 9270347.00000000 22991074.00000000 3184.63452148   370847.65625000 293627.34375000 
0.16600    14018314.00000000 9106678.00000000 22581668.00000000 3097.84399414   360519.59375000 285328.46875000 
0.16700    13765699.00000000 8945100.00000000 22177744.00000000 3013.70776367   350431.06250000 277226.09375000 
0.16800    13516721.00000000 8785692.00000000 21779346.00000000 2932.09472656   340585.50000000 269317.81250000 
0.16900    13271431.00000000 8628470.00000000 21386514.00000000 2852.98046875   330982.34375000 261606.28125000 
0.17000    13029655.00000000 8473325.00000000 20999206.00000000 2776.22998047   321610.34375000 254079.43750000 
