# SAXS profile: number of points = 501, q_min = 0, q_max = 0.5, delta_q = 0.001
#    q    intensity 
0.00000    162233360.00000000 101202368.00000000 256269712.00000000 111029.26562500 8488396.00000000 6704115.50000000 
0.00100    162195360.00000000 101176456.00000000 256205856.00000000 110992.81250000 8485958.00000000 6702176.00000000 
0.00200    162077888.00000000 101099784.00000000 256010960.00000000 110884.53125000 8478540.00000000 6696320.50000000 
0.00300    161876400.00000000 100972592.00000000 255689824.00000000 110703.65625000 8466170.00000000 6686575.50000000 
0.00400    161587296.00000000 100794480.00000000 255236800.00000000 110451.07812500 8448852.00000000 6672997.50000000 
0.00500    161216304.00000000 100565904.00000000 254655776.00000000 110127.29687500 8426672.00000000 6655553.00000000 
0.00600    160766016.00000000 100287416.00000000 253950240.00000000 109732.60156250 8399680.00000000 6634261.00000000 
0.00700    160230672.00000000 99961232.00000000 253118048.00000000 109269.57031250 8367896.50000000 6609306.00000000 
0.00800    159621808.00000000 99585744.00000000 252162704.00000000 108737.21875000 8331493.00000000 6580595.50000000 
0.00900    158936304.00000000 99163832.00000000 251085264.00000000 108138.84375000 8290428.00000000 6548276.00000000 
0.01000    158177696.00000000 98693480.00000000 249887408.00000000 107474.92968750 8244797.00000000 6512398.00000000 
0.01100    157344000.00000000 98175352.00000000 248571184.00000000 106746.17968750 8194737.50000000 6472974.00000000 
0.01200    156431344.00000000 97612800.00000000 247142000.00000000 105955.27343750 8140409.50000000 6430177.50000000 
0.01300    155449632.00000000 97006032.00000000 245598528.00000000 105104.27343750 8081805.00000000 6384096.00000000 
0.01400    154399072.00000000 96356256.00000000 243946976.00000000 104194.08593750 8019120.00000000 6334757.00000000 
0.01500    153282384.00000000 95665496.00000000 242188016.00000000 103227.92968750 7952541.50000000 6282255.00000000 
0.01600    152097600.00000000 94933072.00000000 240326576.00000000 102207.35937500 7882089.50000000 6226811.00000000 
0.01700    150850032.00000000 94161472.00000000 238363952.00000000 101134.12500000 7807941.50000000 6168459.00000000 
0.01800    149541984.00000000 93352072.00000000 236305344.00000000 100012.05468750 7730329.00000000 6107339.50000000 
0.01900    148174032.00000000 92506136.00000000 234154944.00000000 98842.74218750  7649322.50000000 6043532.50000000 
0.02000    146750064.00000000 91625880.00000000 231914768.00000000 97629.43750000  7565129.50000000 5977204.50000000 
0.02100    145273024.00000000 90711664.00000000 229588912.00000000 96374.21875000  7477867.00000000 5908524.50000000 
0.02200    143744336.00000000 89764984.00000000 227183888.00000000 95078.84375000  7387754.50000000 5837514.00000000 
0.02300    142166480.00000000 88789064.00000000 224701952.00000000 93748.25781250  7294960.00000000 5764463.00000000 
0.02400    140544128.00000000 87783536.00000000 222145552.00000000 92383.25781250  7199655.50000000 5689386.00000000 
0.02500    138877184.00000000 86750496.00000000 219525312.00000000 90987.76562500  7101975.50000000 5612422.00000000 
0.02600    137171504.00000000 85694320.00000000 216838208.00000000 89564.38281250  7002214.50000000 5533842.00000000 
0.02700    135426816.00000000 84613600.00000000 214093664.00000000 88115.42968750  6900513.50000000 5453657.00000000 
0.02800    133648752.00000000 83511888.00000000 211292672.00000000 86644.07812500  6796956.50000000 5372082.50000000 
0.02900    131838824.00000000 82389632.00000000 208443200.00000000 85153.62500000  6691901.00000000 5289246.00000000 
0.03000    130000456.00000000 81249840.00000000 205548752.00000000 83646.34375000  6585330.00000000 5205303.00000000 
0.03100    128135600.00000000 80093304.00000000 202610384.00000000 82125.51562500  6477591.00000000 5120364.00000000 
0.03200    126248112.00000000 78922808.00000000 199637376.00000000 80592.21093750  6368788.50000000 5034620.50000000 
0.03300    124341048.00000000 77739720.00000000 196633296.00000000 79051.82031250  6259109.00000000 4948159.00000000 
0.03400    122415672.00000000 76545640.00000000 193599296.00000000 77505.10156250  6148782.00000000 4861181.00000000 
0.03500    120476104.00000000 75342008.00000000 190544320.00000000 75955.54687500  6037959.50000000 4773762.50000000 
0.03600    118525760.00000000 74130816.00000000 187469040.00000000 74404.92968750  5926667.00000000 4686045.50000000 
0.03700    116566512.00000000 72913480.00000000 184381968.00000000 72855.64062500  5815308.50000000 4598211.50000000 
0.03800    114600176.00000000 71691672.00000000 181281344.00000000 71310.82812500  5703896.00000000 4510287.50000000 
0.03900    112630384.00000000 70467952.00000000 178175904.00000000 69771.83593750  5592655.00000000 4422545.00000000 
0.04000    110659808.00000000 69243312.00000000 175068624.00000000 68241.11718750  5481702.50000000 4335008.00000000 
0.04100    108691056.00000000 68019160.00000000 171963664.00000000 66721.52343750  5371168.00000000 4247777.50000000 
0.04200    106726800.00000000 66797360.00000000 168864800.00000000 65214.23437500  5261217.00000000 4161039.00000000 
0.04300    104767632.00000000 65578688.00000000 165776272.00000000 63721.22265625  5152005.50000000 4074833.75000000 
0.04400    102818344.00000000 64365672.00000000 162698736.00000000 62244.20312500  5043651.00000000 3989298.50000000 
0.04500    100879384.00000000 63159076.00000000 159639664.00000000 60785.60937500  4936254.50000000 3904527.00000000 
0.04600    98953344.00000000 61959552.00000000 156600752.00000000 59345.79687500  4829962.00000000 3820569.50000000 
0.04700    97041968.00000000 60769588.00000000 153583120.00000000 57927.06640625  4724814.00000000 3737591.00000000 
0.04800    95147568.00000000 59589360.00000000 150593936.00000000 56530.55859375  4621034.50000000 3655612.50000000 
0.04900    93272432.00000000 58421172.00000000 147632608.00000000 55156.91406250  4518558.00000000 3574729.75000000 
0.05000    91416880.00000000 57265012.00000000 144703248.00000000 53807.81250000  4417651.00000000 3495007.00000000 
0.05100    89584104.00000000 56122512.00000000 141809152.00000000 52484.12109375  4318267.50000000 3416498.50000000 
0.05200    87775216.00000000 54994364.00000000 138954048.00000000 51186.50781250  4220538.00000000 3339297.00000000 
0.05300    85990832.00000000 53881316.00000000 136135104.00000000 49915.92578125  4124474.50000000 3263389.25000000 
0.05400    84232944.00000000 52784732.00000000 133357904.00000000 48672.67187500  4030142.00000000 3188890.75000000 
0.05500    82502192.00000000 51705316.00000000 130623360.00000000 47457.18359375  3937681.25000000 3115823.00000000 
0.05600    80800592.00000000 50642896.00000000 127934760.00000000 46270.25390625  3847079.25000000 3044205.75000000 
0.05700    79128864.00000000 49599216.00000000 125293080.00000000 45112.09375000  3758366.75000000 2974081.75000000 
0.05800    77486544.00000000 48574440.00000000 122698560.00000000 43982.96484375  3671560.00000000 2905479.75000000 
0.05900    75876584.00000000 47568828.00000000 120153912.00000000 42882.61328125  3586710.50000000 2838400.00000000 
0.06000    74298384.00000000 46583868.00000000 117659048.00000000 41811.16015625  3503838.75000000 2772884.75000000 
0.06100    72753176.00000000 45618200.00000000 115216016.00000000 40768.60156250  3422945.00000000 2708965.00000000 
0.06200    71240160.00000000 44673284.00000000 112825832.00000000 39754.82812500  3344042.50000000 2646562.00000000 
0.06300    69761640.00000000 43749484.00000000 110488200.00000000 38769.58203125  3267111.50000000 2585758.50000000 
0.06400    68316856.00000000 42846516.00000000 108204088.00000000 37812.35937500  3192195.50000000 2526511.25000000 
0.06500    66905332.00000000 41964836.00000000 105973256.00000000 36882.90625000  3119238.25000000 2468829.25000000 
0.06600    65529256.00000000 41104844.00000000 103796216.00000000 35981.06250000  3048253.75000000 2412722.00000000 
0.06700    64186348.00000000 40265504.00000000 101673464.00000000 35105.89062500  2979198.75000000 2358098.25000000 
0.06800    62878344.00000000 39448080.00000000 99604968.00000000 34256.85546875  2912068.75000000 2305040.50000000 
0.06900    61603776.00000000 38652112.00000000 97590848.00000000 33433.77734375  2846827.25000000 2253456.25000000 
0.07000    60363004.00000000 37876744.00000000 95629432.00000000 32635.75195312  2783465.25000000 2203325.25000000 
0.07100    59155960.00000000 37123248.00000000 93722192.00000000 31862.20312500  2721885.25000000 2154682.25000000 
0.07200    57982300.00000000 36390336.00000000 91867176.00000000 31111.89843750  2662135.25000000 2107423.25000000 
0.07300    56841884.00000000 35678676.00000000 90064880.00000000 30384.76562500  2604131.00000000 2061577.37500000 
0.07400    55733912.00000000 34986576.00000000 88313704.00000000 29679.65234375  2547799.25000000 2017061.12500000 
0.07500    54657468.00000000 34314856.00000000 86613288.00000000 28996.02539062  2493159.50000000 1973878.87500000 
0.07600    53612800.00000000 33663128.00000000 84963064.00000000 28332.97070312  2440134.25000000 1931953.75000000 
0.07700    52599148.00000000 33031522.00000000 83362104.00000000 27689.73242188  2388656.50000000 1891301.50000000 
0.07800    51615592.00000000 32418600.00000000 81807984.00000000 27065.65429688  2338713.00000000 1851831.37500000 
0.07900    50661216.00000000 31824032.00000000 80302448.00000000 26459.74023438  2290210.25000000 1813528.75000000 
0.08000    49735808.00000000 31247942.00000000 78841632.00000000 25871.00390625  2243143.25000000 1776345.12500000 
0.08100    48838652.00000000 30689842.00000000 77425664.00000000 25299.34570312  2197433.75000000 1740262.87500000 
0.08200    47968616.00000000 30148762.00000000 76053496.00000000 24743.34179688  2153064.25000000 1705215.37500000 
0.08300    47125000.00000000 29624402.00000000 74723792.00000000 24202.39257812  2109904.50000000 1671151.00000000 
0.08400    46307208.00000000 29116704.00000000 73435272.00000000 23676.28125000  2068002.25000000 1638063.25000000 
0.08500    45514552.00000000 28624936.00000000 72185712.00000000 23163.78320312  2027227.25000000 1605886.62500000 
0.08600    44745476.00000000 28148330.00000000 70974760.00000000 22664.17968750  1987556.37500000 1574600.25000000 
0.08700    44000004.00000000 27686440.00000000 69801232.00000000 22177.13671875  1948953.37500000 1544152.62500000 
0.08800    43276748.00000000 27239236.00000000 68663960.00000000 21701.62304688  1911344.62500000 1514495.00000000 
0.08900    42575468.00000000 26805360.00000000 67559824.00000000 21237.40625000  1874713.62500000 1485606.12500000 
0.09000    41894120.00000000 26384902.00000000 66489744.00000000 20783.96093750  1838982.12500000 1457451.37500000 
0.09100    41233280.00000000 25977058.00000000 65451548.00000000 20340.43945312  1804131.37500000 1429975.00000000 
0.09200    40591248.00000000 25581354.00000000 64443352.00000000 19906.57226562  1770099.37500000 1403172.12500000 
0.09300    39967752.00000000 25197428.00000000 63464124.00000000 19481.66601562  1736848.50000000 1376990.00000000 
0.09400    39361344.00000000 24824376.00000000 62512736.00000000 19065.47656250  1704356.50000000 1351380.25000000 
0.09500    38771508.00000000 24462054.00000000 61587976.00000000 18657.53125000  1672559.25000000 1326341.25000000 
0.09600    38197496.00000000 24109740.00000000 60688140.00000000 18257.28320312  1641435.00000000 1301827.37500000 
0.09700    37638536.00000000 23767190.00000000 59812928.00000000 17864.80859375  1610950.50000000 1277835.00000000 
0.09800    37093948.00000000 23433768.00000000 58959900.00000000 17479.40039062  1581066.37500000 1254304.75000000 
0.09900    36562924.00000000 23108920.00000000 58129640.00000000 17100.86914062  1551753.37500000 1231230.25000000 
0.10000    36044752.00000000 22792284.00000000 57318852.00000000 16729.21484375  1522977.00000000 1208586.37500000 
0.10100    35538976.00000000 22483236.00000000 56527812.00000000 16363.58398438  1494724.25000000 1186349.00000000 
0.10200    35044572.00000000 22181634.00000000 55754828.00000000 16004.47167969  1466963.25000000 1164493.75000000 
0.10300    34560396.00000000 21886808.00000000 54999668.00000000 15651.28417969  1439667.00000000 1143005.25000000 
0.10400    34087396.00000000 21598576.00000000 54260708.00000000 15304.07324219  1412820.75000000 1121856.50000000 
0.10500    33624060.00000000 21316566.00000000 53537052.00000000 14962.62207031  1386399.25000000 1101068.62500000 
0.10600    33169434.00000000 21040054.00000000 52828048.00000000 14626.71875000  1360374.37500000 1080595.12500000 
0.10700    32723554.00000000 20769166.00000000 52132388.00000000 14296.45996094  1334760.75000000 1060410.75000000 
0.10800    32285802.00000000 20503086.00000000 51449400.00000000 13971.55664062  1309519.00000000 1040526.56250000 
0.10900    31855718.00000000 20241650.00000000 50778528.00000000 13652.18945312  1284637.12500000 1020920.00000000 
0.11000    31432484.00000000 19984830.00000000 50118776.00000000 13338.18457031  1260103.25000000 1001595.68750000 
0.11100    31016436.00000000 19732254.00000000 49469756.00000000 13029.50976562  1235929.50000000 982532.37500000 
0.11200    30606422.00000000 19483280.00000000 48830500.00000000 12726.15625000  1212059.00000000 963726.56250000 
0.11300    30202328.00000000 19238044.00000000 48200924.00000000 12428.11035156  1188532.00000000 945161.87500000 
0.11400    29803944.00000000 18996272.00000000 47579616.00000000 12135.37011719  1165317.62500000 926856.62500000 
0.11500    29410882.00000000 18757630.00000000 46967000.00000000 11847.96191406  1142421.37500000 908788.93750000 
0.11600    29022782.00000000 18521802.00000000 46361544.00000000 11565.83300781  1119831.75000000 890945.93750000 
0.11700    28639598.00000000 18288758.00000000 45763252.00000000 11289.05273438  1097534.25000000 873341.31250000 
0.11800    28260472.00000000 18058248.00000000 45171716.00000000 11017.57910156  1075546.62500000 855965.37500000 
0.11900    27885640.00000000 17830438.00000000 44586936.00000000 10751.37402344  1053851.75000000 838813.37500000 
0.12000    27514916.00000000 17604540.00000000 44007528.00000000 10490.53808594  1032449.12500000 821891.00000000 
0.12100    27147972.00000000 17380866.00000000 43434476.00000000 10235.07910156  1011344.56250000 805193.00000000 
0.12200    26784650.00000000 17159214.00000000 42866204.00000000 9984.95117188   990532.81250000 788715.68750000 
0.12300    26424828.00000000 16939552.00000000 42303920.00000000 9740.22460938   970008.25000000 772463.68750000 
0.12400    26068222.00000000 16721496.00000000 41745408.00000000 9500.75000000   949780.37500000 756435.68750000 
0.12500    25714858.00000000 16505173.00000000 41192524.00000000 9266.62695312   929838.25000000 740629.31250000 
0.12600    25364714.00000000 16290490.00000000 40644128.00000000 9037.95214844   910198.43750000 725048.25000000 
0.12700    25017444.00000000 16077423.00000000 40099672.00000000 8814.55664062   890844.68750000 709690.43750000 
0.12800    24672924.00000000 15865826.00000000 39559472.00000000 8596.39550781   871776.18750000 694549.18750000 
0.12900    24331636.00000000 15655886.00000000 39023492.00000000 8383.46679688   853011.62500000 679646.18750000 
0.13000    23992854.00000000 15447051.00000000 38491988.00000000 8175.82080078   834539.81250000 664962.75000000 
0.13100    23656970.00000000 15239770.00000000 37963484.00000000 7973.25390625   816359.50000000 650505.56250000 
0.13200    23323902.00000000 15033833.00000000 37439388.00000000 7775.78710938   798471.81250000 636267.25000000 
0.13300    22993356.00000000 14829232.00000000 36919348.00000000 7583.49902344   780882.93750000 622263.43750000 
0.13400    22665358.00000000 14625983.00000000 36402796.00000000 7396.15234375   763582.43750000 608487.43750000 
0.13500    22340144.00000000 14424089.00000000 35889764.00000000 7213.73779297   746587.81250000 594935.93750000 
0.13600    22017650.00000000 14223529.00000000 35381096.00000000 7036.13671875   729875.93750000 581615.25000000 
0.13700    21697784.00000000 14024301.00000000 34876100.00000000 6863.29980469   713459.00000000 568521.31250000 
0.13800    21380628.00000000 13826317.00000000 34374696.00000000 6695.20019531   697335.68750000 555649.81250000 
0.13900    21065966.00000000 13629806.00000000 33877380.00000000 6531.64404297   681509.37500000 543010.56250000 
0.14000    20754128.00000000 13434709.00000000 33383820.00000000 6372.57763672   665965.81250000 530596.50000000 
0.14100    20445004.00000000 13240921.00000000 32894518.00000000 6217.92773438   650714.37500000 518405.21875000 
0.14200    20138670.00000000 13048551.00000000 32408718.00000000 6067.49023438   635754.93750000 506442.21875000 
0.14300    19834744.00000000 12857717.00000000 31926924.00000000 5921.33007812   621073.68750000 494699.25000000 
0.14400    19533928.00000000 12668120.00000000 31449334.00000000 5779.25097656   606673.37500000 483173.56250000 
0.14500    19235814.00000000 12480180.00000000 30976040.00000000 5641.06787109   592558.68750000 471877.71875000 
0.14600    18940790.00000000 12293837.00000000 30506804.00000000 5506.77636719   578725.50000000 460795.68750000 
0.14700    18648504.00000000 12108931.00000000 30041680.00000000 5376.28417969   565164.25000000 449932.31250000 
0.14800    18359120.00000000 11925541.00000000 29580962.00000000 5249.39501953   551873.81250000 439283.65625000 
0.14900    18072542.00000000 11743887.00000000 29124438.00000000 5126.02929688   538852.68750000 428846.31250000 
0.15000    17789014.00000000 11563838.00000000 28672630.00000000 5006.09814453   526101.87500000 418617.34375000 
0.15100    17508442.00000000 11385372.00000000 28225048.00000000 4889.44628906   513607.68750000 408600.34375000 
0.15200    17230924.00000000 11208698.00000000 27782112.00000000 4775.99853516   501380.68750000 398786.37500000 
0.15300    16956562.00000000 11033696.00000000 27343884.00000000 4665.71728516   489402.68750000 389179.40625000 
0.15400    16685228.00000000 10860499.00000000 26909868.00000000 4558.34033203   477673.46875000 379769.00000000 
0.15500    16416900.00000000 10688943.00000000 26481014.00000000 4453.95117188   466196.12500000 370553.46875000 
0.15600    16151591.00000000 10519187.00000000 26056680.00000000 4352.33935547   454956.59375000 361534.90625000 
0.15700    15889675.00000000 10351414.00000000 25637198.00000000 4253.44921875   443963.31250000 352708.06250000 
0.15800    15630690.00000000 10185282.00000000 25222448.00000000 4157.12890625   433201.09375000 344065.59375000 
0.15900    15374888.00000000 10021216.00000000 24812728.00000000 4063.39916992   422670.40625000 335612.96875000 
0.16000    15122249.00000000 9858862.00000000 24407762.00000000 3972.12451172   412365.90625000 327335.15625000 
0.16100    14872858.00000000 9698547.00000000 24007790.00000000 3883.25317383   402288.00000000 319242.43750000 
0.16200    14626655.00000000 9540073.00000000 23612866.00000000 3796.60864258   392425.56250000 311326.93750000 
0.16300    14383650.00000000 9383532.00000000 23222806.00000000 3712.26147461   382780.03125000 303581.68750000 
0.16400    14143978.00000000 9228944.00000000 22837942.00000000 3630.05493164   373346.09375000 296005.50000000 
0.16500    13907375.00000000 9076314.00000000 22457844.00000000 3549.97924805   364116.96875000 288596.34375000 
0.16600    13674027.00000000 8925748.00000000 22082946.00000000 3471.91625977   355088.40625000 281347.71875000 
0.16700    13443843.00000000 8777047.00000000 21712954.00000000 3395.81640625   346261.50000000 274261.43750000 
0.16800    13216895.00000000 8630307.00000000 21348000.00000000 3321.64331055   337620.46875000 267330.15625000 
0.16900    12993213.00000000 8485600.00000000 20988234.00000000 3249.42846680   329180.81250000 260556.85937500 
0.17000    12772658.00000000 8342835.50000000 20633416.00000000 3178.97167969   320922.56250000 253931.17187500 
