# SAXS profile: number of points = 501, q_min = 0, q_max = 0.5, delta_q = 0.001
#    q    intensity 
0.00000    162235600.00000000 101202096.00000000 256270912.00000000 109891.03125000 8444807.00000000 6669690.00000000 
0.00100    162203888.00000000 101180968.00000000 256217280.00000000 109861.32812500 8442768.00000000 6668088.50000000 
0.00200    162106672.00000000 101119488.00000000 256061344.00000000 109772.03125000 8436706.00000000 6663334.00000000 
0.00300    161941344.00000000 101016312.00000000 255799504.00000000 109623.07031250 8426624.00000000 6655421.00000000 
0.00400    161709184.00000000 100873152.00000000 255433136.00000000 109415.46093750 8412561.00000000 6644341.50000000 
0.00500    161407552.00000000 100688000.00000000 254963616.00000000 109149.91406250 8394478.00000000 6630135.50000000 
0.00600    161040720.00000000 100462248.00000000 254388368.00000000 108825.21093750 8372440.50000000 6612820.50000000 
0.00700    160611872.00000000 100197056.00000000 253713072.00000000 108442.50000000 8346534.50000000 6592399.00000000 
0.00800    160111952.00000000 99892424.00000000 252937232.00000000 108003.99218750 8316673.50000000 6569002.00000000 
0.00900    159552480.00000000 99548200.00000000 252060080.00000000 107509.10937500 8282995.00000000 6542558.50000000 
0.01000    158931424.00000000 99165856.00000000 251083744.00000000 106958.69531250 8245543.00000000 6513154.50000000 
0.01100    158248992.00000000 98745024.00000000 250008896.00000000 106353.64843750 8204407.50000000 6480786.50000000 
0.01200    157504928.00000000 98285200.00000000 248839264.00000000 105696.21875000 8159625.50000000 6445591.50000000 
0.01300    156700096.00000000 97788856.00000000 247574976.00000000 104986.79687500 8111278.00000000 6407608.50000000 
0.01400    155834016.00000000 97255856.00000000 246219280.00000000 104226.50000000 8059410.00000000 6366818.50000000 
0.01500    154911824.00000000 96687760.00000000 244771104.00000000 103416.64843750 8004112.00000000 6323369.00000000 
0.01600    153933120.00000000 96084704.00000000 243235312.00000000 102558.64062500 7945494.00000000 6277290.50000000 
0.01700    152901328.00000000 95448352.00000000 241611072.00000000 101654.85156250 7883693.50000000 6228675.50000000 
0.01800    151814304.00000000 94778576.00000000 239904944.00000000 100705.82031250 7818713.00000000 6177592.50000000 
0.01900    150674816.00000000 94076568.00000000 238116928.00000000 99713.56250000  7750646.00000000 6124120.00000000 
0.02000    149486864.00000000 93342640.00000000 236248656.00000000 98679.60937500  7679722.00000000 6068326.50000000 
0.02100    148247952.00000000 92579376.00000000 234304192.00000000 97605.81250000  7605928.50000000 6010299.00000000 
0.02200    146962416.00000000 91786592.00000000 232285792.00000000 96493.85156250  7529432.00000000 5950152.00000000 
0.02300    145631728.00000000 90965840.00000000 230196528.00000000 95346.55468750  7450368.50000000 5887983.00000000 
0.02400    144257712.00000000 90118552.00000000 228037104.00000000 94164.93750000  7368779.50000000 5823835.00000000 
0.02500    142841616.00000000 89244024.00000000 225811888.00000000 92950.18750000  7284906.50000000 5757808.00000000 
0.02600    141386320.00000000 88346240.00000000 223523952.00000000 91705.84375000  7198773.00000000 5690078.00000000 
0.02700    139892672.00000000 87424104.00000000 221178000.00000000 90432.47656250  7110507.50000000 5620640.00000000 
0.02800    138364064.00000000 86479976.00000000 218773712.00000000 89133.20312500  7020234.50000000 5549690.50000000 
0.02900    136799936.00000000 85513928.00000000 216316400.00000000 87809.70312500  6928226.50000000 5477243.50000000 
0.03000    135204880.00000000 84528080.00000000 213809664.00000000 86464.25000000  6834446.00000000 5403484.50000000 
0.03100    133578896.00000000 83524128.00000000 211253488.00000000 85098.28906250  6739072.00000000 5328394.50000000 
0.03200    131925520.00000000 82502496.00000000 208653392.00000000 83714.28125000  6642221.50000000 5252172.50000000 
0.03300    130246232.00000000 81464784.00000000 206012704.00000000 82314.00000000  6544043.50000000 5174931.50000000 
0.03400    128542856.00000000 80411248.00000000 203335264.00000000 80899.94531250  6444708.00000000 5096702.50000000 
0.03500    126818400.00000000 79344200.00000000 200622048.00000000 79473.69531250  6344310.00000000 5017691.50000000 
0.03600    125073984.00000000 78265344.00000000 197876656.00000000 78037.34375000  6242958.00000000 4937870.50000000 
0.03700    123311296.00000000 77175344.00000000 195104528.00000000 76593.23437500  6140807.50000000 4857410.00000000 
0.03800    121533584.00000000 76075392.00000000 192308624.00000000 75143.18750000  6038037.00000000 4776480.50000000 
0.03900    119742192.00000000 74967616.00000000 189489856.00000000 73688.32031250  5934636.00000000 4695086.00000000 
0.04000    117938832.00000000 73850368.00000000 186651312.00000000 72231.60937500  5830859.50000000 4613310.50000000 
0.04100    116126128.00000000 72727584.00000000 183798224.00000000 70774.61718750  5726766.00000000 4531346.00000000 
0.04200    114305784.00000000 71599600.00000000 180931232.00000000 69318.69531250  5622557.00000000 4449194.00000000 
0.04300    112479400.00000000 70468232.00000000 178056208.00000000 67866.24218750  5518205.50000000 4366982.50000000 
0.04400    110649472.00000000 69333528.00000000 175174144.00000000 66418.03906250  5413957.00000000 4284822.50000000 
0.04500    108817720.00000000 68197664.00000000 172290528.00000000 64976.35546875  5309859.50000000 4202791.00000000 
0.04600    106985536.00000000 67061328.00000000 169403472.00000000 63542.83593750  5206051.50000000 4120913.25000000 
0.04700    105154840.00000000 65926016.00000000 166520704.00000000 62119.16406250  5102654.00000000 4039384.00000000 
0.04800    103328744.00000000 64791888.00000000 163643216.00000000 60706.65625000  4999719.00000000 3958204.75000000 
0.04900    101506608.00000000 63661136.00000000 160771648.00000000 59305.96093750  4897369.00000000 3877493.50000000 
0.05000    99691744.00000000 62533948.00000000 157910544.00000000 57919.25390625  4795708.50000000 3797307.25000000 
0.05100    97884592.00000000 61411620.00000000 155062336.00000000 56548.22656250  4694825.00000000 3717731.75000000 
0.05200    96088248.00000000 60295316.00000000 152228704.00000000 55192.71875000  4594830.00000000 3638809.75000000 
0.05300    94302768.00000000 59185316.00000000 149413216.00000000 53854.62109375  4495758.00000000 3560633.25000000 
0.05400    92529992.00000000 58083280.00000000 146618032.00000000 52534.97265625  4397704.00000000 3483255.00000000 
0.05500    90771304.00000000 56989764.00000000 143844320.00000000 51234.72265625  4300772.50000000 3406731.50000000 
0.05600    89028192.00000000 55905076.00000000 141094768.00000000 49954.56640625  4205015.00000000 3331130.50000000 
0.05700    87302504.00000000 54830808.00000000 138370960.00000000 48695.93750000  4110492.00000000 3256511.50000000 
0.05800    85593856.00000000 53767456.00000000 135676144.00000000 47458.87500000  4017256.25000000 3182863.25000000 
0.05900    83904680.00000000 52715280.00000000 133010328.00000000 46244.52734375  3925395.75000000 3110283.75000000 
0.06000    82235064.00000000 51675692.00000000 130375248.00000000 45053.42187500  3834944.50000000 3038834.25000000 
0.06100    80587296.00000000 50648696.00000000 127773248.00000000 43885.67187500  3745967.50000000 2968536.25000000 
0.06200    78961536.00000000 49635104.00000000 125206168.00000000 42742.21093750  3658477.25000000 2899409.25000000 
0.06300    77358520.00000000 48636104.00000000 122674088.00000000 41623.60937500  3572531.00000000 2831494.00000000 
0.06400    75778416.00000000 47650816.00000000 120179264.00000000 40529.39062500  3488177.25000000 2764805.50000000 
0.06500    74223432.00000000 46680572.00000000 117723112.00000000 39460.48046875  3405418.00000000 2699358.00000000 
0.06600    72693960.00000000 45726068.00000000 115306080.00000000 38417.13281250  3324300.50000000 2635227.25000000 
0.06700    71189624.00000000 44787300.00000000 112929328.00000000 37398.87500000  3244833.50000000 2572393.75000000 
0.06800    69711792.00000000 43864268.00000000 110593568.00000000 36406.17187500  3167062.50000000 2510874.25000000 
0.06900    68261224.00000000 42958024.00000000 108299752.00000000 35439.11718750  3090977.75000000 2450700.25000000 
0.07000    66836476.00000000 42068332.00000000 106048904.00000000 34497.49609375  3016608.75000000 2391839.50000000 
0.07100    65440080.00000000 41195452.00000000 103840936.00000000 33581.08593750  2943930.75000000 2334340.00000000 
0.07200    64071140.00000000 40340256.00000000 101675656.00000000 32690.07031250  2872954.75000000 2278181.75000000 
0.07300    62730244.00000000 39502008.00000000 99556008.00000000 31824.16015625  2803716.75000000 2223381.75000000 
0.07400    61417852.00000000 38680956.00000000 97479712.00000000 30982.93554688  2736164.75000000 2169906.00000000 
0.07500    60133576.00000000 37877840.00000000 95448840.00000000 30166.15820312  2670310.00000000 2117774.25000000 
0.07600    58877764.00000000 37092088.00000000 93461392.00000000 29373.22851562  2606150.75000000 2066970.87500000 
0.07700    57650376.00000000 36323616.00000000 91519312.00000000 28604.36328125  2543679.00000000 2017497.50000000 
0.07800    56451108.00000000 35573452.00000000 89622296.00000000 27858.76953125  2482851.50000000 1969330.00000000 
0.07900    55280520.00000000 34840792.00000000 87769712.00000000 27135.81835938  2423678.75000000 1922471.62500000 
0.08000    54137400.00000000 34125592.00000000 85961392.00000000 26435.25390625  2366104.50000000 1876877.00000000 
0.08100    53022960.00000000 33427810.00000000 84197384.00000000 25756.64843750  2310165.00000000 1832544.25000000 
0.08200    51936156.00000000 32747218.00000000 82477120.00000000 25099.44726562  2255755.50000000 1789449.62500000 
0.08300    50876612.00000000 32083732.00000000 80800360.00000000 24463.02734375  2202910.50000000 1747574.00000000 
0.08400    49844124.00000000 31437510.00000000 79166312.00000000 23846.87304688  2151569.25000000 1706900.62500000 
0.08500    48838700.00000000 30808116.00000000 77575392.00000000 23250.42187500  2101709.25000000 1667392.75000000 
0.08600    47860088.00000000 30194966.00000000 76025912.00000000 22672.94921875  2053296.00000000 1629035.12500000 
0.08700    46907168.00000000 29598340.00000000 74517624.00000000 22114.07812500  2006272.87500000 1591791.50000000 
0.08800    45980176.00000000 29017972.00000000 73050504.00000000 21572.81445312  1960654.75000000 1555623.37500000 
0.08900    45077844.00000000 28453374.00000000 71623240.00000000 21048.90820312  1916363.87500000 1520538.12500000 
0.09000    44200952.00000000 27904232.00000000 70235448.00000000 20541.45898438  1873374.12500000 1486483.50000000 
0.09100    43347608.00000000 27370384.00000000 68885296.00000000 20050.23828125  1831666.62500000 1453423.75000000 
0.09200    42518736.00000000 26851342.00000000 67572984.00000000 19574.25195312  1791169.50000000 1421331.87500000 
0.09300    41712356.00000000 26347162.00000000 66298048.00000000 19112.97851562  1751877.75000000 1390194.62500000 
0.09400    40929052.00000000 25857046.00000000 65058704.00000000 18665.86914062  1713720.37500000 1359952.75000000 
0.09500    40167392.00000000 25380986.00000000 63853816.00000000 18232.26171875  1676672.25000000 1330594.25000000 
0.09600    39426964.00000000 24918402.00000000 62682976.00000000 17811.55859375  1640682.12500000 1302101.87500000 
0.09700    38707976.00000000 24469086.00000000 61546036.00000000 17403.43554688  1605739.12500000 1274411.37500000 
0.09800    38009148.00000000 24032510.00000000 60441224.00000000 17006.94140625  1571783.25000000 1247510.75000000 
0.09900    37329776.00000000 23608424.00000000 59367648.00000000 16621.91601562  1538777.12500000 1221354.62500000 
0.10000    36669460.00000000 23196404.00000000 58324356.00000000 16247.52441406  1506690.75000000 1195944.75000000 
0.10100    36027500.00000000 22795954.00000000 57310496.00000000 15883.38769531  1475464.62500000 1171217.75000000 
0.10200    35403496.00000000 22406962.00000000 56324780.00000000 15528.90136719  1445086.62500000 1147162.62500000 
0.10300    34796708.00000000 22028776.00000000 55366264.00000000 15183.43554688  1415509.75000000 1123736.75000000 
0.10400    34206244.00000000 21661266.00000000 54434188.00000000 14847.16894531  1386704.00000000 1100934.37500000 
0.10500    33631964.00000000 21303996.00000000 53528056.00000000 14518.91796875  1358623.12500000 1078708.37500000 
0.10600    33072916.00000000 20956260.00000000 52646084.00000000 14198.64355469  1331251.12500000 1057025.37500000 
0.10700    32528890.00000000 20618112.00000000 51787940.00000000 13885.89843750  1304543.50000000 1035882.37500000 
0.10800    31998906.00000000 20288800.00000000 50952572.00000000 13580.30371094  1278459.62500000 1015239.62500000 
0.10900    31482564.00000000 19968260.00000000 50138380.00000000 13281.48437500  1252992.62500000 995081.18750000 
0.11000    30979288.00000000 19655976.00000000 49345492.00000000 12989.07324219  1228091.25000000 975377.18750000 
0.11100    30488400.00000000 19351772.00000000 48572068.00000000 12702.70410156  1203737.25000000 956106.87500000 
0.11200    30009632.00000000 19055184.00000000 47818156.00000000 12422.27246094  1179915.25000000 937245.56250000 
0.11300    29542100.00000000 18765806.00000000 47082536.00000000 12147.34863281  1156584.12500000 918777.37500000 
0.11400    29085812.00000000 18483400.00000000 46363920.00000000 11877.77832031  1133713.50000000 900688.25000000 
0.11500    28639494.00000000 18207606.00000000 45661868.00000000 11613.25488281  1111304.37500000 882952.43750000 
0.11600    28203364.00000000 17938074.00000000 44976072.00000000 11353.56250000  1089305.87500000 865547.93750000 
0.11700    27776782.00000000 17674514.00000000 44305336.00000000 11098.52734375  1067726.00000000 848465.37500000 
0.11800    27358846.00000000 17416778.00000000 43648568.00000000 10848.03515625  1046524.25000000 831685.00000000 
0.11900    26949892.00000000 17164312.00000000 43005772.00000000 10601.83398438  1025691.31250000 815199.06250000 
0.12000    26548606.00000000 16917024.00000000 42375436.00000000 10359.77539062  1005205.31250000 798986.18750000 
0.12100    26155662.00000000 16674713.00000000 41757860.00000000 10121.88867188  985059.81250000 783037.62500000 
0.12200    25769642.00000000 16437179.00000000 41151940.00000000 9887.90429688   965238.37500000 767343.43750000 
0.12300    25390784.00000000 16203757.00000000 40557308.00000000 9657.75683594   945719.93750000 751889.56250000 
0.12400    25018606.00000000 15974632.00000000 39972924.00000000 9431.31933594   926498.81250000 736670.25000000 
0.12500    24652744.00000000 15749456.00000000 39398432.00000000 9208.67578125   907561.93750000 721665.87500000 
0.12600    24292852.00000000 15528078.00000000 38833864.00000000 8989.63378906   888907.37500000 706886.81250000 
0.12700    23938834.00000000 15310281.00000000 38277720.00000000 8774.20605469   870506.81250000 692309.43750000 
0.12800    23590044.00000000 15095747.00000000 37730516.00000000 8562.36132812   852363.93750000 677932.56250000 
0.12900    23246652.00000000 14884489.00000000 37191304.00000000 8353.99414062   834482.68750000 663750.75000000 
0.13000    22908024.00000000 14676124.00000000 36660040.00000000 8149.21630859   816841.25000000 649761.62500000 
0.13100    22574166.00000000 14470648.00000000 36136056.00000000 7947.83935547   799433.68750000 635952.31250000 
0.13200    22244808.00000000 14267926.00000000 35618616.00000000 7749.90673828   782260.68750000 622328.37500000 
0.13300    21919560.00000000 14067763.00000000 35108268.00000000 7555.55566406   765325.18750000 608883.00000000 
0.13400    21598594.00000000 13870046.00000000 34604144.00000000 7364.64843750   748611.50000000 595615.68750000 
0.13500    21281486.00000000 13674783.00000000 34106144.00000000 7177.24707031   732125.62500000 582515.25000000 
0.13600    20968304.00000000 13481666.00000000 33613688.00000000 6993.23437500   715858.06250000 569592.56250000 
0.13700    20658658.00000000 13290635.00000000 33127290.00000000 6812.75634766   699809.56250000 556833.81250000 
0.13800    20352410.00000000 13101705.00000000 32645802.00000000 6635.81640625   683980.12500000 544249.25000000 
0.13900    20049590.00000000 12914746.00000000 32169882.00000000 6462.34619141   668372.75000000 531830.62500000 
0.14000    19750358.00000000 12729668.00000000 31698656.00000000 6292.43603516   652984.93750000 519583.12500000 
0.14100    19453964.00000000 12546463.00000000 31232610.00000000 6126.00390625   637811.75000000 507507.31250000 
0.14200    19160810.00000000 12364911.00000000 30770996.00000000 5963.14257812   622856.50000000 495596.37500000 
0.14300    18870788.00000000 12185226.00000000 30314118.00000000 5803.80175781   608124.00000000 483854.96875000 
0.14400    18583536.00000000 12007121.00000000 29861482.00000000 5647.97265625   593603.81250000 472286.90625000 
0.14500    18299268.00000000 11830670.00000000 29413508.00000000 5495.70166016   579310.18750000 460885.93750000 
0.14600    18018080.00000000 11655789.00000000 28969704.00000000 5346.96142578   565238.56250000 449660.46875000 
0.14700    17739584.00000000 11482554.00000000 28530250.00000000 5201.75488281   551384.37500000 438607.96875000 
0.14800    17463826.00000000 11310815.00000000 28094834.00000000 5060.06982422   537752.31250000 427724.06250000 
0.14900    17190918.00000000 11140539.00000000 27663536.00000000 4921.86376953   524349.18750000 417015.75000000 
0.15000    16920690.00000000 10971941.00000000 27236520.00000000 4787.16064453   511170.21875000 406484.18750000 
0.15100    16653301.00000000 10804678.00000000 26813384.00000000 4655.91210938   498215.43750000 396129.71875000 
0.15200    16388604.00000000 10639088.00000000 26394514.00000000 4528.10253906   485489.21875000 385956.46875000 
0.15300    16126616.00000000 10474877.00000000 25979626.00000000 4403.73193359   472991.34375000 375957.06250000 
0.15400    15867427.00000000 10312202.00000000 25568668.00000000 4282.72119141   460718.21875000 366138.40625000 
0.15500    15610809.00000000 10151098.00000000 25162016.00000000 4165.00683594   448675.25000000 356499.56250000 
0.15600    15356985.00000000 9991381.00000000 24759198.00000000 4050.56445312   436860.90625000 347037.56250000 
0.15700    15106094.00000000 9833216.00000000 24360724.00000000 3939.45458984   425278.06250000 337763.12500000 
0.15800    14857659.00000000 9676606.00000000 23966148.00000000 3831.45263672   413921.59375000 328661.50000000 
0.15900    14612104.00000000 9521478.00000000 23575748.00000000 3726.62182617   402799.81250000 319749.40625000 
0.16000    14369438.00000000 9367910.00000000 23189560.00000000 3624.89550781   391900.56250000 311012.71875000 
0.16100    14129505.00000000 9216061.00000000 22807612.00000000 3526.21118164   381235.21875000 302460.71875000 
0.16200    13892320.00000000 9065553.00000000 22429814.00000000 3430.46191406   370794.78125000 294086.15625000 
0.16300    13657964.00000000 8916734.00000000 22056332.00000000 3337.63525391   360579.93750000 285890.78125000 
0.16400    13426460.00000000 8769513.00000000 21687074.00000000 3247.61328125   350593.90625000 277878.50000000 
0.16500    13197764.00000000 8623973.00000000 21322128.00000000 3160.36206055   340828.03125000 270042.56250000 
0.16600    12972102.00000000 8479977.00000000 20961642.00000000 3075.83593750   331287.46875000 262386.09375000 
0.16700    12749064.00000000 8337679.50000000 20605260.00000000 2993.87182617   321963.18750000 254901.18750000 
0.16800    12528952.00000000 8197026.50000000 20253374.00000000 2914.47314453   312858.46875000 247593.37500000 
0.16900    12311786.00000000 8058045.50000000 19906094.00000000 2837.56494141   303971.53125000 240460.25000000 
0.17000    12097630.00000000 7920764.00000000 19563090.00000000 2763.05395508   295296.34375000 233496.71875000 
