# SAXS profile: number of points = 501, q_min = 0, q_max = 0.5, delta_q = 0.001
#    q    intensity 
0.00000    162231968.00000000 101202440.00000000 256270848.00000000 105623.82031250 8279176.00000000 6538888.50000000 
0.00100    162200304.00000000 101180344.00000000 256215328.00000000 105592.19531250 8277060.00000000 6537191.50000000 
0.00200    162100912.00000000 101115448.00000000 256049728.00000000 105497.39062500 8270555.50000000 6532096.50000000 
0.00300    161929296.00000000 101006360.00000000 255774480.00000000 105339.54687500 8259747.00000000 6523610.00000000 
0.00400    161680672.00000000 100855032.00000000 255387040.00000000 105118.82812500 8244664.50000000 6511721.50000000 
0.00500    161362928.00000000 100660864.00000000 254892160.00000000 104835.64843750 8225246.00000000 6496540.50000000 
0.00600    160976080.00000000 100422288.00000000 254285184.00000000 104490.92968750 8201686.50000000 6477974.50000000 
0.00700    160519344.00000000 100143424.00000000 253575712.00000000 104085.62500000 8173943.50000000 6456119.50000000 
0.00800    159994544.00000000 99823640.00000000 252756960.00000000 103620.39062500 8142005.00000000 6431084.00000000 
0.00900    159406688.00000000 99461392.00000000 251832432.00000000 103095.51562500 8106039.50000000 6402818.00000000 
0.01000    158752912.00000000 99059312.00000000 250804672.00000000 102513.96875000 8066080.50000000 6371412.00000000 
0.01100    158034512.00000000 98616208.00000000 249677312.00000000 101875.16406250 8022203.50000000 6336892.50000000 
0.01200    157251280.00000000 98133504.00000000 248446752.00000000 101181.26562500 7974473.00000000 6299386.00000000 
0.01300    156402448.00000000 97612312.00000000 247118400.00000000 100433.47656250 7923000.00000000 6258882.50000000 
0.01400    155494128.00000000 97052800.00000000 245694544.00000000 99633.25781250  7867824.50000000 6215558.00000000 
0.01500    154528592.00000000 96457688.00000000 244176032.00000000 98782.67968750  7809161.50000000 6169414.00000000 
0.01600    153502960.00000000 95827648.00000000 242565936.00000000 97882.89843750  7746962.00000000 6120544.00000000 
0.01700    152419616.00000000 95160424.00000000 240866992.00000000 96937.25000000  7681542.50000000 6069033.50000000 
0.01800    151282736.00000000 94459728.00000000 239081472.00000000 95945.03125000  7612818.00000000 6015042.50000000 
0.01900    150091744.00000000 93725520.00000000 237212512.00000000 94910.96875000  7541055.00000000 5958609.00000000 
0.02000    148848048.00000000 92960656.00000000 235262832.00000000 93835.30468750  7466323.50000000 5899810.00000000 
0.02100    147556896.00000000 92165584.00000000 233234048.00000000 92721.46875000  7388729.00000000 5838788.50000000 
0.02200    146217696.00000000 91339976.00000000 231130864.00000000 91570.26562500  7308447.00000000 5775659.00000000 
0.02300    144832880.00000000 90486624.00000000 228955664.00000000 90384.91406250  7225600.50000000 5710438.00000000 
0.02400    143404400.00000000 89605360.00000000 226712928.00000000 89166.72656250  7140368.00000000 5643421.00000000 
0.02500    141933632.00000000 88698752.00000000 224403376.00000000 87918.91406250  7052860.50000000 5574528.50000000 
0.02600    140424672.00000000 87767248.00000000 222030336.00000000 86643.77343750  6963198.50000000 5504001.50000000 
0.02700    138876752.00000000 86812024.00000000 219601072.00000000 85343.46875000  6871591.00000000 5431894.50000000 
0.02800    137294032.00000000 85835824.00000000 217115728.00000000 84019.96093750  6778099.00000000 5358319.50000000 
0.02900    135679648.00000000 84839120.00000000 214577776.00000000 82675.96093750  6682974.00000000 5283433.00000000 
0.03000    134034928.00000000 83822752.00000000 211991088.00000000 81313.86718750  6586311.50000000 5207299.50000000 
0.03100    132360904.00000000 82788552.00000000 209360304.00000000 79935.76562500  6488212.00000000 5130101.00000000 
0.03200    130660952.00000000 81738184.00000000 206686960.00000000 78543.64062500  6388970.50000000 5051919.50000000 
0.03300    128936912.00000000 80672448.00000000 203975824.00000000 77140.61718750  6288575.00000000 4972906.00000000 
0.03400    127191136.00000000 79594000.00000000 201232528.00000000 75728.00000000  6187236.50000000 4893123.50000000 
0.03500    125426312.00000000 78502960.00000000 198455824.00000000 74308.85156250  6085144.50000000 4812692.50000000 
0.03600    123644280.00000000 77400960.00000000 195652352.00000000 72884.42968750  5982391.50000000 4731728.00000000 
0.03700    121846560.00000000 76288384.00000000 192823200.00000000 71457.07031250  5879114.50000000 4650411.50000000 
0.03800    120036056.00000000 75167744.00000000 189974336.00000000 70030.14843750  5775491.00000000 4568770.50000000 
0.03900    118215184.00000000 74039376.00000000 187109152.00000000 68603.28906250  5671613.50000000 4486884.50000000 
0.04000    116386136.00000000 72906016.00000000 184229008.00000000 67181.09375000  5567599.00000000 4404921.00000000 
0.04100    114549288.00000000 71767816.00000000 181336864.00000000 65762.71875000  5463635.50000000 4322937.00000000 
0.04200    112708496.00000000 70627144.00000000 178438560.00000000 64351.30859375  5359826.50000000 4241104.00000000 
0.04300    110865656.00000000 69484384.00000000 175535488.00000000 62948.97265625  5256312.50000000 4159450.75000000 
0.04400    109021624.00000000 68340488.00000000 172631264.00000000 61556.48828125  5153151.00000000 4078122.50000000 
0.04500    107180008.00000000 67197288.00000000 169728736.00000000 60175.98437500  5050486.50000000 3997140.50000000 
0.04600    105340560.00000000 66054908.00000000 166828400.00000000 58808.43750000  4948403.00000000 3916659.75000000 
0.04700    103506280.00000000 64915548.00000000 163937296.00000000 57455.38671875  4847076.00000000 3836702.00000000 
0.04800    101678568.00000000 63780268.00000000 161057440.00000000 56118.24609375  4746522.00000000 3757357.75000000 
0.04900    99858856.00000000 62649508.00000000 158188096.00000000 54798.42968750  4646892.00000000 3678740.00000000 
0.05000    98049768.00000000 61524604.00000000 155334224.00000000 53496.14062500  4548198.00000000 3600867.25000000 
0.05100    96250752.00000000 60406204.00000000 152499344.00000000 52213.44140625  4450616.50000000 3523839.25000000 
0.05200    94466208.00000000 59295688.00000000 149681904.00000000 50950.69140625  4354175.00000000 3447684.00000000 
0.05300    92696120.00000000 58193480.00000000 146888848.00000000 49708.75000000  4258903.00000000 3372499.25000000 
0.05400    90940680.00000000 57100700.00000000 144119952.00000000 48488.60156250  4164919.50000000 3298331.75000000 
0.05500    89202304.00000000 56018192.00000000 141377184.00000000 47290.96484375  4072337.75000000 3225176.25000000 
0.05600    87481968.00000000 54946808.00000000 138661584.00000000 46116.07421875  3981114.00000000 3153108.75000000 
0.05700    85781192.00000000 53886660.00000000 135976336.00000000 44964.07812500  3891361.25000000 3082202.50000000 
0.05800    84101328.00000000 52839384.00000000 133322544.00000000 43836.41796875  3803076.50000000 3012468.50000000 
0.05900    82442568.00000000 51804700.00000000 130701728.00000000 42732.61718750  3716322.00000000 2943935.00000000 
0.06000    80805512.00000000 50783316.00000000 128116056.00000000 41653.30078125  3631147.00000000 2876619.50000000 
0.06100    79191824.00000000 49776356.00000000 125566248.00000000 40598.40625000  3547575.75000000 2810565.50000000 
0.06200    77601488.00000000 48783976.00000000 123054152.00000000 39568.28515625  3465604.00000000 2745800.50000000 
0.06300    76036168.00000000 47806328.00000000 120579880.00000000 38563.02343750  3385300.25000000 2682321.75000000 
0.06400    74495312.00000000 46844424.00000000 118144504.00000000 37581.85937500  3306636.00000000 2620142.75000000 
0.06500    72980648.00000000 45898252.00000000 115751032.00000000 36625.55468750  3229654.00000000 2559277.25000000 
0.06600    71492392.00000000 44967924.00000000 113397184.00000000 35693.96484375  3154350.00000000 2499753.50000000 
0.06700    70030056.00000000 44054420.00000000 111085528.00000000 34785.93750000  3080750.25000000 2441545.25000000 
0.06800    68595320.00000000 43156952.00000000 108816424.00000000 33902.27734375  3008798.25000000 2384661.75000000 
0.06900    67187880.00000000 42277024.00000000 106589800.00000000 33042.70703125  2938548.00000000 2329119.00000000 
0.07000    65807696.00000000 41413636.00000000 104406736.00000000 32205.80468750  2869948.50000000 2274853.75000000 
0.07100    64455064.00000000 40568036.00000000 102267848.00000000 31391.87304688  2803022.00000000 2221926.00000000 
0.07200    63130804.00000000 39738984.00000000 100172704.00000000 30600.89648438  2737741.25000000 2170300.75000000 
0.07300    61833756.00000000 38927856.00000000 98122056.00000000 29831.66406250  2674090.50000000 2119959.50000000 
0.07400    60565080.00000000 38134276.00000000 96115216.00000000 29084.25390625  2612044.75000000 2070895.37500000 
0.07500    59324232.00000000 37357688.00000000 94151424.00000000 28357.82226562  2551610.00000000 2023092.75000000 
0.07600    58111592.00000000 36598816.00000000 92232136.00000000 27652.21484375  2492719.50000000 1976509.00000000 
0.07700    56926524.00000000 35857160.00000000 90357576.00000000 26966.63281250  2435357.50000000 1931165.75000000 
0.07800    55769080.00000000 35132936.00000000 88526832.00000000 26300.50390625  2379517.00000000 1887001.37500000 
0.07900    54639160.00000000 34425536.00000000 86738200.00000000 25653.36523438  2325188.25000000 1844012.50000000 
0.08000    53536252.00000000 33735360.00000000 84993776.00000000 25024.75585938  2272291.00000000 1802183.75000000 
0.08100    52460224.00000000 33062630.00000000 83291128.00000000 24414.06445312  2220806.00000000 1761472.50000000 
0.08200    51410600.00000000 32406162.00000000 81631048.00000000 23820.57421875  2170736.75000000 1721868.00000000 
0.08300    50387552.00000000 31766298.00000000 80012680.00000000 23243.76953125  2121990.25000000 1683328.37500000 
0.08400    49390200.00000000 31142670.00000000 78434952.00000000 22683.01171875  2074574.00000000 1645827.50000000 
0.08500    48418380.00000000 30534928.00000000 76898304.00000000 22138.22265625  2028452.25000000 1609352.75000000 
0.08600    47471948.00000000 29943294.00000000 75401072.00000000 21608.13085938  1983565.00000000 1573870.87500000 
0.08700    46550020.00000000 29367314.00000000 73943552.00000000 21092.78320312  1939906.12500000 1539351.25000000 
0.08800    45652432.00000000 28806360.00000000 72524504.00000000 20591.38671875  1897411.00000000 1505747.12500000 
0.08900    44778424.00000000 28260504.00000000 71143032.00000000 20103.46093750  1856056.87500000 1473061.50000000 
0.09000    43927228.00000000 27729434.00000000 69798184.00000000 19628.72851562  1815811.12500000 1441255.50000000 
0.09100    43099756.00000000 27212632.00000000 68490432.00000000 19166.41796875  1776640.12500000 1410301.62500000 
0.09200    42293940.00000000 26710050.00000000 67217368.00000000 18716.36523438  1738503.62500000 1380146.87500000 
0.09300    41510224.00000000 26221280.00000000 65978860.00000000 18277.70507812  1701378.12500000 1350808.00000000 
0.09400    40747180.00000000 25745732.00000000 64775248.00000000 17850.18945312  1665212.37500000 1322225.25000000 
0.09500    40005692.00000000 25283480.00000000 63603912.00000000 17433.69140625  1629984.50000000 1294383.62500000 
0.09600    39283624.00000000 24834104.00000000 62464096.00000000 17027.72070312  1595671.50000000 1267270.37500000 
0.09700    38581816.00000000 24396762.00000000 61355896.00000000 16631.73046875  1562223.25000000 1240829.12500000 
0.09800    37898324.00000000 23971928.00000000 60278200.00000000 16245.32910156  1529621.62500000 1215059.75000000 
0.09900    37233696.00000000 23558576.00000000 59229652.00000000 15868.43847656  1497826.12500000 1189944.50000000 
0.10000    36587200.00000000 23156778.00000000 58209964.00000000 15500.67578125  1466822.00000000 1165437.25000000 
0.10100    35957740.00000000 22766002.00000000 57218288.00000000 15141.63671875  1436560.62500000 1141530.87500000 
0.10200    35345632.00000000 22385878.00000000 56252864.00000000 14791.09375000  1407035.12500000 1118197.87500000 
0.10300    34749592.00000000 22016208.00000000 55313932.00000000 14448.83691406  1378223.37500000 1095414.75000000 
0.10400    34169636.00000000 21656408.00000000 54400100.00000000 14114.68554688  1350082.62500000 1073166.50000000 
0.10500    33604768.00000000 21306348.00000000 53510604.00000000 13788.31640625  1322596.75000000 1051445.50000000 
0.10600    33054846.00000000 20965692.00000000 52644632.00000000 13469.54199219  1295737.00000000 1030220.00000000 
0.10700    32519104.00000000 20634036.00000000 51801620.00000000 13158.13769531  1269497.00000000 1009462.37500000 
0.10800    31997186.00000000 20311154.00000000 50980008.00000000 12854.03320312  1243837.50000000 989173.00000000 
0.10900    31488626.00000000 19996544.00000000 50179896.00000000 12556.90234375  1218760.87500000 969334.18750000 
0.11000    30992948.00000000 19689910.00000000 49399756.00000000 12266.60644531  1194228.87500000 949914.87500000 
0.11100    30509248.00000000 19391248.00000000 48639416.00000000 11983.14453125  1170226.25000000 930924.18750000 
0.11200    30037808.00000000 19099980.00000000 47897852.00000000 11706.29589844  1146737.62500000 912325.56250000 
0.11300    29577744.00000000 18815744.00000000 47174448.00000000 11435.90429688  1123740.75000000 894123.81250000 
0.11400    29128684.00000000 18538418.00000000 46468584.00000000 11171.94042969  1101246.50000000 876301.68750000 
0.11500    28690092.00000000 18267758.00000000 45778700.00000000 10914.03515625  1079211.87500000 858837.50000000 
0.11600    28261430.00000000 18003420.00000000 45105404.00000000 10662.41503906  1057628.62500000 841729.00000000 
0.11700    27842732.00000000 17745112.00000000 44447272.00000000 10416.68164062  1036484.31250000 824969.75000000 
0.11800    27433352.00000000 17492548.00000000 43803808.00000000 10176.92480469  1015766.00000000 808533.18750000 
0.11900    27032822.00000000 17245418.00000000 43174336.00000000 9942.76757812   995462.68750000 792429.12500000 
0.12000    26640716.00000000 17003590.00000000 42558136.00000000 9714.51171875   975561.18750000 776627.06250000 
0.12100    26257040.00000000 16766933.00000000 41955276.00000000 9491.75292969   956054.25000000 761137.81250000 
0.12200    25880920.00000000 16535024.00000000 41364320.00000000 9274.43164062   936917.43750000 745941.31250000 
0.12300    25512516.00000000 16307633.00000000 40785168.00000000 9062.41210938   918165.50000000 731034.68750000 
0.12400    25151150.00000000 16084545.00000000 40216820.00000000 8855.74218750   899765.06250000 716404.50000000 
0.12500    24796610.00000000 15865689.00000000 39659464.00000000 8654.23730469   881720.93750000 702051.37500000 
0.12600    24448850.00000000 15650906.00000000 39112440.00000000 8457.77636719   864022.25000000 687962.93750000 
0.12700    24106944.00000000 15439755.00000000 38574664.00000000 8266.23828125   846657.68750000 674131.87500000 
0.12800    23771032.00000000 15232159.00000000 38046396.00000000 8079.52734375   829608.18750000 660555.12500000 
0.12900    23440916.00000000 15028032.00000000 37526972.00000000 7897.49755859   812879.12500000 647225.62500000 
0.13000    23116424.00000000 14827018.00000000 37015656.00000000 7720.10205078   796456.87500000 634138.12500000 
0.13100    22796954.00000000 14629166.00000000 36512356.00000000 7547.19433594   780332.00000000 621280.43750000 
0.13200    22481886.00000000 14434145.00000000 36016700.00000000 7378.66162109   764512.31250000 608651.31250000 
0.13300    22172006.00000000 14241853.00000000 35528352.00000000 7214.35546875   748971.06250000 596253.12500000 
0.13400    21866310.00000000 14052184.00000000 35046524.00000000 7054.14062500   733709.06250000 584062.87500000 
0.13500    21565288.00000000 13865026.00000000 34571292.00000000 6897.91748047   718719.93750000 572089.00000000 
0.13600    21267962.00000000 13680232.00000000 34102036.00000000 6745.60449219   703996.12500000 560322.68750000 
0.13700    20974432.00000000 13497588.00000000 33639196.00000000 6597.00830078   689529.06250000 548756.06250000 
0.13800    20684642.00000000 13317054.00000000 33181402.00000000 6452.02050781   675310.81250000 537389.00000000 
0.13900    20398464.00000000 13138668.00000000 32728956.00000000 6310.49316406   661344.43750000 526215.43750000 
0.14000    20115374.00000000 12961969.00000000 32281686.00000000 6172.34814453   647616.68750000 515231.78125000 
0.14100    19835690.00000000 12787251.00000000 31839190.00000000 6037.48779297   634121.37500000 504432.06250000 
0.14200    19558938.00000000 12614105.00000000 31401064.00000000 5905.64599609   620853.43750000 493811.65625000 
0.14300    19284972.00000000 12442604.00000000 30967696.00000000 5776.87060547   607806.25000000 483365.62500000 
0.14400    19013946.00000000 12272740.00000000 30538246.00000000 5650.86914062   594972.93750000 473090.46875000 
0.14500    18745476.00000000 12104321.00000000 30112848.00000000 5527.71777344   582355.06250000 462981.56250000 
0.14600    18479476.00000000 11937250.00000000 29691300.00000000 5407.15234375   569944.87500000 453045.28125000 
0.14700    18216188.00000000 11771701.00000000 29273472.00000000 5289.14599609   557733.25000000 443262.96875000 
0.14800    17955116.00000000 11607385.00000000 28859184.00000000 5173.49511719   545717.75000000 433639.28125000 
0.14900    17696340.00000000 11444239.00000000 28447936.00000000 5060.15869141   533894.37500000 424163.50000000 
0.15000    17439620.00000000 11282367.00000000 28040508.00000000 4949.06591797   522257.56250000 414843.81250000 
0.15100    17185128.00000000 11121703.00000000 27635852.00000000 4840.06103516   510809.25000000 405668.81250000 
0.15200    16932892.00000000 10962151.00000000 27234424.00000000 4733.13720703   499535.78125000 396639.00000000 
0.15300    16682642.00000000 10803809.00000000 26836154.00000000 4628.12207031   488439.25000000 387750.37500000 
0.15400    16434287.00000000 10646498.00000000 26440648.00000000 4524.97216797   477514.12500000 379000.03125000 
0.15500    16187967.00000000 10490233.00000000 26048204.00000000 4423.63427734   466760.00000000 370383.84375000 
0.15600    15943398.00000000 10335137.00000000 25658698.00000000 4323.98779297   456167.31250000 361906.37500000 
0.15700    15700800.00000000 10181077.00000000 25271850.00000000 4226.04199219   445744.40625000 353560.65625000 
0.15800    15459968.00000000 10028011.00000000 24887920.00000000 4129.69775391   435475.87500000 345339.37500000 
0.15900    15221191.00000000 9875978.00000000 24506768.00000000 4034.93554688   425373.03125000 337253.53125000 
0.16000    14984126.00000000 9725052.00000000 24128464.00000000 3941.69335938   415419.81250000 329287.84375000 
0.16100    14749067.00000000 9575187.00000000 23753028.00000000 3850.00048828   405625.00000000 321452.06250000 
0.16200    14515647.00000000 9426460.00000000 23380498.00000000 3759.72021484   395982.56250000 313740.09375000 
0.16300    14284217.00000000 9278671.00000000 23010546.00000000 3670.89477539   386489.96875000 306147.81250000 
0.16400    14054729.00000000 9132088.00000000 22643832.00000000 3583.52026367   377149.15625000 298679.46875000 
0.16500    13827183.00000000 8986498.00000000 22279700.00000000 3497.53295898   367957.21875000 291330.81250000 
0.16600    13601446.00000000 8842102.00000000 21918742.00000000 3412.98999023   358912.59375000 284102.71875000 
0.16700    13377743.00000000 8698842.00000000 21560734.00000000 3329.77807617   350019.81250000 276995.75000000 
0.16800    13155951.00000000 8556746.00000000 21205788.00000000 3248.00927734   341269.65625000 270004.65625000 
0.16900    12936276.00000000 8415964.00000000 20854064.00000000 3167.67626953   332668.90625000 263135.09375000 
0.17000    12718637.00000000 8276250.50000000 20505380.00000000 3088.76562500   324216.15625000 256383.98437500 
