# SAXS profile: number of points = 501, q_min = 0, q_max = 0.5, delta_q = 0.001
#    q    intensity 
0.00000    162236960.00000000 101201848.00000000 256271680.00000000 104535.65625000 8236425.00000000 6505124.00000000 
0.00100    162200800.00000000 101177744.00000000 256211584.00000000 104505.95312500 8234293.00000000 6503430.50000000 
0.00200    162087504.00000000 101107400.00000000 256031376.00000000 104417.18750000 8227857.00000000 6498388.00000000 
0.00300    161897616.00000000 100989040.00000000 255730512.00000000 104269.78906250 8217159.00000000 6489954.50000000 
0.00400    161630352.00000000 100823880.00000000 255311104.00000000 104064.55468750 8202259.50000000 6478222.50000000 
0.00500    161287744.00000000 100611912.00000000 254771312.00000000 103801.28906250 8183114.50000000 6463167.00000000 
0.00600    160869552.00000000 100352616.00000000 254114272.00000000 103480.53125000 8159817.00000000 6444813.50000000 
0.00700    160377344.00000000 100048144.00000000 253340592.00000000 103101.82031250 8132322.00000000 6423152.50000000 
0.00800    159808864.00000000 99698776.00000000 252450720.00000000 102667.84375000 8100763.50000000 6398313.50000000 
0.00900    159169648.00000000 99304384.00000000 251447632.00000000 102177.87500000 8065134.00000000 6370298.00000000 
0.01000    158460192.00000000 98865016.00000000 250331072.00000000 101633.16406250 8025520.50000000 6339098.00000000 
0.01100    157681856.00000000 98382880.00000000 249103680.00000000 101034.83593750 7982016.50000000 6304853.50000000 
0.01200    156834288.00000000 97857272.00000000 247767824.00000000 100384.77343750 7934705.50000000 6267594.00000000 
0.01300    155916352.00000000 97289352.00000000 246324112.00000000 99682.89843750  7883577.00000000 6227348.00000000 
0.01400    154932544.00000000 96681144.00000000 244777712.00000000 98930.54687500  7828812.00000000 6184228.50000000 
0.01500    153884000.00000000 96031816.00000000 243127696.00000000 98130.42968750  7770464.50000000 6138284.00000000 
0.01600    152772480.00000000 95344008.00000000 241379088.00000000 97282.36718750  7708609.50000000 6089621.50000000 
0.01700    151600848.00000000 94618448.00000000 239533856.00000000 96388.71093750  7643416.50000000 6038283.50000000 
0.01800    150368112.00000000 93855688.00000000 237594624.00000000 95451.32031250  7574994.50000000 5984395.00000000 
0.01900    149077952.00000000 93057712.00000000 235565440.00000000 94470.86718750  7503328.00000000 5927994.00000000 
0.02000    147733696.00000000 92223968.00000000 233448000.00000000 93449.73437500  7428678.50000000 5869220.50000000 
0.02100    146334016.00000000 91358440.00000000 231247808.00000000 92389.39843750  7351116.50000000 5808145.00000000 
0.02200    144882656.00000000 90460408.00000000 228963680.00000000 91292.81250000  7270783.00000000 5744882.00000000 
0.02300    143384112.00000000 89532048.00000000 226604720.00000000 90160.13281250  7187824.50000000 5679546.50000000 
0.02400    141837344.00000000 88574768.00000000 224171136.00000000 88994.42968750  7102302.00000000 5612177.50000000 
0.02500    140245888.00000000 87589168.00000000 221666128.00000000 87796.80468750  7014393.00000000 5542953.50000000 
0.02600    138612672.00000000 86578472.00000000 219095584.00000000 86570.39062500  6924235.50000000 5471985.50000000 
0.02700    136939584.00000000 85542016.00000000 216461792.00000000 85316.53125000  6831995.50000000 5399349.00000000 
0.02800    135229872.00000000 84481288.00000000 213770256.00000000 84036.75781250  6737767.00000000 5325121.50000000 
0.02900    133484000.00000000 83400752.00000000 211021888.00000000 82733.68750000  6641781.50000000 5249493.50000000 
0.03000    131706096.00000000 82298752.00000000 208223648.00000000 81409.53125000  6544047.00000000 5172519.00000000 
0.03100    129898544.00000000 81178576.00000000 205377648.00000000 80066.54687500  6444814.00000000 5094383.50000000 
0.03200    128063704.00000000 80041680.00000000 202488016.00000000 78705.74218750  6344251.00000000 5015121.50000000 
0.03300    126203504.00000000 78888800.00000000 199559712.00000000 77330.61718750  6242409.50000000 4934890.00000000 
0.03400    124321136.00000000 77722312.00000000 196596272.00000000 75942.59375000  6139467.00000000 4853792.00000000 
0.03500    122419856.00000000 76543080.00000000 193600800.00000000 74543.17187500  6035602.00000000 4771983.50000000 
0.03600    120500680.00000000 75352544.00000000 190578944.00000000 73135.28125000  5930972.00000000 4689516.00000000 
0.03700    118566800.00000000 74153720.00000000 187532256.00000000 71719.67187500  5825635.00000000 4606485.50000000 
0.03800    116621096.00000000 72947040.00000000 184467408.00000000 70299.73437500  5719785.00000000 4523090.50000000 
0.03900    114665488.00000000 71734240.00000000 181387200.00000000 68877.39843750  5613619.50000000 4439429.00000000 
0.04000    112702712.00000000 70516744.00000000 178295344.00000000 67453.57812500  5507162.00000000 4355554.50000000 
0.04100    110734248.00000000 69296272.00000000 175195008.00000000 66030.85937500  5400673.00000000 4271599.50000000 
0.04200    108764216.00000000 68072920.00000000 172090320.00000000 64610.41406250  5294192.00000000 4187628.75000000 
0.04300    106792904.00000000 66849492.00000000 168984688.00000000 63194.70312500  5187845.00000000 4103809.50000000 
0.04400    104824872.00000000 65627436.00000000 165883376.00000000 61784.55468750  5081792.00000000 4020217.75000000 
0.04500    102861408.00000000 64408020.00000000 162787888.00000000 60382.73437500  4976152.50000000 3936947.00000000 
0.04600    100903064.00000000 63192756.00000000 159702368.00000000 58990.28906250  4871036.50000000 3854057.00000000 
0.04700    98954024.00000000 61982156.00000000 156631328.00000000 57608.54687500  4766612.50000000 3771702.00000000 
0.04800    97015360.00000000 60777976.00000000 153576224.00000000 56239.42187500  4662909.50000000 3689925.50000000 
0.04900    95089776.00000000 59581536.00000000 150539024.00000000 54884.12109375  4560038.00000000 3608824.00000000 
0.05000    93178464.00000000 58394016.00000000 147526624.00000000 53543.97265625  4458174.50000000 3528469.25000000 
0.05100    91282696.00000000 57216588.00000000 144537344.00000000 52220.48046875  4357366.50000000 3448978.50000000 
0.05200    89406112.00000000 56049896.00000000 141577248.00000000 50914.31250000  4257727.50000000 3370351.25000000 
0.05300    87548992.00000000 54895148.00000000 138648976.00000000 49626.76562500  4159266.25000000 3292696.25000000 
0.05400    85712736.00000000 53753912.00000000 135754032.00000000 48359.39843750  4062177.50000000 3216104.00000000 
0.05500    83899816.00000000 52626336.00000000 132895616.00000000 47112.87109375  3966472.50000000 3140602.00000000 
0.05600    82110648.00000000 51513572.00000000 130073168.00000000 45887.55859375  3872238.50000000 3066243.75000000 
0.05700    80347784.00000000 50416888.00000000 127291648.00000000 44685.22265625  3779557.50000000 2993102.00000000 
0.05800    78610640.00000000 49336432.00000000 124552336.00000000 43505.75781250  3688472.75000000 2921209.00000000 
0.05900    76902912.00000000 48273364.00000000 121857176.00000000 42350.24218750  3599014.75000000 2850619.50000000 
0.06000    75223568.00000000 47228132.00000000 119206904.00000000 41219.26562500  3511267.75000000 2781374.00000000 
0.06100    73573936.00000000 46201740.00000000 116605352.00000000 40113.13671875  3425323.50000000 2713496.50000000 
0.06200    71955352.00000000 45194356.00000000 114051344.00000000 39032.56640625  3341134.75000000 2647047.25000000 
0.06300    70369696.00000000 44206764.00000000 111547720.00000000 37977.68359375  3258760.00000000 2582032.75000000 
0.06400    68815800.00000000 43239136.00000000 109095336.00000000 36948.91406250  3178234.00000000 2518458.00000000 
0.06500    67295056.00000000 42291892.00000000 106695448.00000000 35946.17187500  3099635.75000000 2456363.50000000 
0.06600    65807900.00000000 41365828.00000000 104347712.00000000 34970.04687500  3022899.00000000 2395781.75000000 
0.06700    64354708.00000000 40460868.00000000 102054744.00000000 34020.21484375  2948088.25000000 2336716.00000000 
0.06800    62936928.00000000 39577020.00000000 99815184.00000000 33097.11718750  2875201.75000000 2279157.50000000 
0.06900    61553492.00000000 38715120.00000000 97631680.00000000 32200.37109375  2804234.75000000 2223101.50000000 
0.07000    60205088.00000000 37874936.00000000 95502800.00000000 31329.84179688  2735218.50000000 2168580.50000000 
0.07100    58892036.00000000 37056272.00000000 93429136.00000000 30485.47656250  2668111.00000000 2115570.50000000 
0.07200    57613916.00000000 36259756.00000000 91411448.00000000 29666.85742188  2602917.75000000 2064077.50000000 
0.07300    56371492.00000000 35485212.00000000 89448792.00000000 28874.05859375  2539658.50000000 2014098.87500000 
0.07400    55163888.00000000 34732344.00000000 87541784.00000000 28106.54101562  2478264.25000000 1965596.62500000 
0.07500    53991260.00000000 34001304.00000000 85689992.00000000 27363.95898438  2418766.50000000 1918573.87500000 
0.07600    52853012.00000000 33291584.00000000 83893352.00000000 26645.69726562  2361078.50000000 1873013.12500000 
0.07700    51749840.00000000 32603772.00000000 82150976.00000000 25951.58203125  2305243.25000000 1828876.25000000 
0.07800    50680232.00000000 31937024.00000000 80461184.00000000 25281.01367188  2251207.25000000 1786162.50000000 
0.07900    49644852.00000000 31291064.00000000 78825824.00000000 24633.33203125  2198910.75000000 1744843.25000000 
0.08000    48642248.00000000 30666104.00000000 77242312.00000000 24008.20117188  2148344.25000000 1704886.87500000 
0.08100    47672524.00000000 30061428.00000000 75710808.00000000 23404.72851562  2099462.50000000 1666251.37500000 
0.08200    46734652.00000000 29476732.00000000 74230024.00000000 22822.47070312  2052219.75000000 1628917.50000000 
0.08300    45828068.00000000 28911844.00000000 72798688.00000000 22260.71679688  2006581.37500000 1592851.50000000 
0.08400    44952640.00000000 28366048.00000000 71416744.00000000 21718.87500000  1962510.75000000 1558012.62500000 
0.08500    44107308.00000000 27839266.00000000 70081320.00000000 21196.29296875  1919931.50000000 1524390.50000000 
0.08600    43291060.00000000 27330616.00000000 68792376.00000000 20692.01367188  1878852.37500000 1491901.37500000 
0.08700    42503576.00000000 26840000.00000000 67549536.00000000 20205.81445312  1839171.87500000 1460543.12500000 
0.08800    41743356.00000000 26366806.00000000 66349760.00000000 19736.45507812  1800859.12500000 1430260.75000000 
0.08900    41010268.00000000 25910488.00000000 65192928.00000000 19283.57812500  1763864.75000000 1401022.75000000 
0.09000    40303620.00000000 25470408.00000000 64077272.00000000 18846.38476562  1728133.00000000 1372794.37500000 
0.09100    39621888.00000000 25046150.00000000 63002096.00000000 18423.83789062  1693627.25000000 1345508.50000000 
0.09200    38964068.00000000 24637302.00000000 61964660.00000000 18015.70507812  1660260.00000000 1319145.87500000 
0.09300    38330096.00000000 24243016.00000000 60964960.00000000 17621.34179688  1628012.25000000 1293667.75000000 
0.09400    37718656.00000000 23862992.00000000 60000504.00000000 17239.36914062  1596834.75000000 1269025.37500000 
0.09500    37128288.00000000 23496468.00000000 59069740.00000000 16869.74414062  1566652.50000000 1245181.75000000 
0.09600    36558984.00000000 23143032.00000000 58172424.00000000 16511.59179688  1537424.50000000 1222092.00000000 
0.09700    36008992.00000000 22801970.00000000 57306080.00000000 16164.28417969  1509105.25000000 1199719.00000000 
0.09800    35477760.00000000 22472702.00000000 56469748.00000000 15827.11718750  1481639.00000000 1178022.87500000 
0.09900    34964676.00000000 22154694.00000000 55662160.00000000 15499.43750000  1454987.37500000 1156968.87500000 
0.10000    34468492.00000000 21847534.00000000 54880840.00000000 15180.91796875  1429090.50000000 1136511.25000000 
0.10100    33987964.00000000 21550288.00000000 54124620.00000000 14870.69726562  1403899.00000000 1116624.00000000 
0.10200    33522758.00000000 21262858.00000000 53393292.00000000 14568.25488281  1379380.00000000 1097251.00000000 
0.10300    33071926.00000000 20984294.00000000 52684448.00000000 14273.13867188  1355484.00000000 1078375.62500000 
0.10400    32634228.00000000 20714288.00000000 51996752.00000000 13984.77441406  1332162.75000000 1059967.00000000 
0.10500    32209510.00000000 20452208.00000000 51329020.00000000 13702.85253906  1309399.12500000 1041975.68750000 
0.10600    31796312.00000000 20197480.00000000 50680316.00000000 13426.62109375  1287118.87500000 1024383.93750000 
0.10700    31394058.00000000 19949880.00000000 50048804.00000000 13156.03808594  1265295.37500000 1007158.25000000 
0.10800    31002008.00000000 19708712.00000000 49433584.00000000 12890.36816406  1243914.12500000 990263.37500000 
0.10900    30619178.00000000 19473410.00000000 48833084.00000000 12629.46582031  1222915.62500000 973685.25000000 
0.11000    30245330.00000000 19243610.00000000 48246860.00000000 12372.87500000  1202285.75000000 957383.93750000 
0.11100    29879380.00000000 19018920.00000000 47673116.00000000 12120.32519531  1181974.37500000 941353.18750000 
0.11200    29520906.00000000 18798872.00000000 47111144.00000000 11871.49316406  1161969.87500000 925547.62500000 
0.11300    29168718.00000000 18583230.00000000 46559592.00000000 11626.12695312  1142241.12500000 909960.93750000 
0.11400    28823002.00000000 18371272.00000000 46017996.00000000 11384.07128906  1122775.12500000 894581.81250000 
0.11500    28482832.00000000 18162918.00000000 45485264.00000000 11144.92871094  1103530.12500000 879369.31250000 
0.11600    28147410.00000000 17957568.00000000 44960436.00000000 10908.69726562  1084488.12500000 864328.50000000 
0.11700    27816572.00000000 17755176.00000000 44442380.00000000 10675.22460938  1065640.50000000 849430.18750000 
0.11800    27489680.00000000 17555184.00000000 43930916.00000000 10444.26367188  1046971.81250000 834661.62500000 
0.11900    27166522.00000000 17357438.00000000 43424936.00000000 10215.71875000  1028445.68750000 820015.56250000 
0.12000    26846064.00000000 17161586.00000000 42923708.00000000 9989.54882812   1010073.50000000 805487.18750000 
0.12100    26528778.00000000 16967532.00000000 42427148.00000000 9765.82910156   991839.75000000 791056.93750000 
0.12200    26213616.00000000 16774894.00000000 41934340.00000000 9544.18164062   973726.87500000 776718.50000000 
0.12300    25900720.00000000 16583410.00000000 41444072.00000000 9324.79199219   955721.37500000 762473.87500000 
0.12400    25589450.00000000 16393004.00000000 40957156.00000000 9107.65039062   937833.93750000 748300.00000000 
0.12500    25279692.00000000 16203398.00000000 40472308.00000000 8892.71972656   920047.75000000 734212.62500000 
0.12600    24971536.00000000 16014717.00000000 39989776.00000000 8680.12304688   902366.62500000 720200.81250000 
0.12700    24664232.00000000 15826506.00000000 39508288.00000000 8469.64550781   884783.31250000 706260.75000000 
0.12800    24357766.00000000 15638731.00000000 39028596.00000000 8261.69042969   867301.31250000 692395.43750000 
0.12900    24052288.00000000 15451477.00000000 38549724.00000000 8055.96728516   849919.12500000 678600.12500000 
0.13000    23747450.00000000 15264358.00000000 38071748.00000000 7852.81738281   832637.25000000 664889.25000000 
0.13100    23442988.00000000 15077456.00000000 37594400.00000000 7652.18359375   815452.12500000 651241.56250000 
0.13200    23139068.00000000 14890735.00000000 37117716.00000000 7454.16552734   798383.06250000 637675.68750000 
0.13300    22835704.00000000 14704170.00000000 36641644.00000000 7258.88964844   781423.25000000 624198.62500000 
0.13400    22532762.00000000 14517560.00000000 36166124.00000000 7066.33349609   764588.06250000 610810.12500000 
0.13500    22230212.00000000 14331156.00000000 35690512.00000000 6876.78857422   747870.62500000 597508.93750000 
0.13600    21928072.00000000 14144832.00000000 35215496.00000000 6690.26416016   731282.62500000 584305.31250000 
0.13700    21626314.00000000 13958517.00000000 34741132.00000000 6506.84814453   714831.56250000 571210.50000000 
0.13800    21325106.00000000 13772290.00000000 34267460.00000000 6326.61035156   698532.31250000 558217.68750000 
0.13900    21024668.00000000 13586307.00000000 33794020.00000000 6149.77050781   682380.75000000 545341.18750000 
0.14000    20724548.00000000 13400422.00000000 33321482.00000000 5976.36669922   666398.18750000 532590.00000000 
0.14100    20425398.00000000 13214780.00000000 32849952.00000000 5806.39697266   650581.62500000 519970.53125000 
0.14200    20126780.00000000 13029508.00000000 32379350.00000000 5640.13183594   634953.06250000 507487.00000000 
0.14300    19829772.00000000 12844483.00000000 31909910.00000000 5477.54345703   619503.87500000 495147.43750000 
0.14400    19533018.00000000 12659836.00000000 31441802.00000000 5318.73925781   604252.25000000 482956.12500000 
0.14500    19238026.00000000 12475796.00000000 30975422.00000000 5163.78613281   589208.93750000 470923.43750000 
0.14600    18944116.00000000 12292382.00000000 30510752.00000000 5012.81347656   574386.75000000 459058.78125000 
0.14700    18651796.00000000 12109539.00000000 30048116.00000000 4865.82763672   559787.12500000 447366.87500000 
0.14800    18360988.00000000 11927413.00000000 29587706.00000000 4722.89013672   545417.87500000 435851.12500000 
0.14900    18071950.00000000 11746174.00000000 29129834.00000000 4584.05615234   531283.25000000 424520.18750000 
0.15000    17784824.00000000 11565900.00000000 28674544.00000000 4449.28710938   517397.50000000 413382.62500000 
0.15100    17499840.00000000 11386624.00000000 28222178.00000000 4318.74218750   503767.96875000 402438.31250000 
0.15200    17216968.00000000 11208452.00000000 27773060.00000000 4192.41308594   490400.37500000 391699.75000000 
0.15300    16936474.00000000 11031531.00000000 27327302.00000000 4070.20581055   477297.37500000 381167.43750000 
0.15400    16658316.00000000 10855886.00000000 26885172.00000000 3952.19604492   464465.96875000 370848.31250000 
0.15500    16383071.00000000 10681638.00000000 26446794.00000000 3838.37817383   451911.90625000 360744.12500000 
0.15600    16110349.00000000 10508845.00000000 26012414.00000000 3728.65844727   439635.18750000 350860.90625000 
0.15700    15840606.00000000 10337730.00000000 25582598.00000000 3623.12866211   427652.46875000 341203.75000000 
0.15800    15573896.00000000 10168131.00000000 25156944.00000000 3521.61645508   415950.84375000 331770.71875000 
0.15900    15310359.00000000 10000360.00000000 24736308.00000000 3424.20117188   404544.84375000 322566.90625000 
0.16000    15049965.00000000 9834345.00000000 24320314.00000000 3330.70190430   393427.68750000 313592.93750000 
0.16100    14793090.00000000 9670261.00000000 23909602.00000000 3241.15576172   382608.84375000 304851.53125000 
0.16200    14539564.00000000 9508141.00000000 23503878.00000000 3155.41406250   372080.03125000 296343.12500000 
0.16300    14289629.00000000 9348004.00000000 23103618.00000000 3073.39965820   361845.78125000 288067.96875000 
0.16400    14043338.00000000 9190040.00000000 22708978.00000000 2995.07592773   351910.53125000 280025.25000000 
0.16500    13800817.00000000 9034095.00000000 22319858.00000000 2920.30273438   342265.81250000 272215.06250000 
0.16600    13562001.00000000 8880438.00000000 21936682.00000000 2848.99340820   332913.28125000 264636.53125000 
0.16700    13327064.00000000 8728945.00000000 21559146.00000000 2781.01025391   323843.25000000 257283.31250000 
0.16800    13095942.00000000 8579689.00000000 21187674.00000000 2716.23388672   315060.21875000 250160.45312500 
0.16900    12868886.00000000 8432897.00000000 20822338.00000000 2654.60034180   306562.06250000 243261.51562500 
0.17000    12645640.00000000 8288311.50000000 20462962.00000000 2595.94677734   298337.56250000 236585.93750000 
