# SAXS profile: number of points = 501, q_min = 0, q_max = 0.5, delta_q = 0.001
#    q    intensity 
0.00000    162228864.00000000 101201944.00000000 256269536.00000000 111574.87500000 8509242.00000000 6720585.00000000 
0.00100    162198176.00000000 101179768.00000000 256213392.00000000 111539.95312500 8506933.00000000 6718786.50000000 
0.00200    162097824.00000000 101113576.00000000 256045744.00000000 111435.60937500 8500037.00000000 6713372.50000000 
0.00300    161924160.00000000 101002720.00000000 255761872.00000000 111264.05468750 8488646.00000000 6704361.50000000 
0.00400    161668560.00000000 100847968.00000000 255369104.00000000 111022.56250000 8472578.00000000 6691811.50000000 
0.00500    161341024.00000000 100649240.00000000 254860496.00000000 110713.16406250 8452047.00000000 6675701.00000000 
0.00600    160946592.00000000 100406192.00000000 254241888.00000000 110336.96093750 8427107.00000000 6656118.50000000 
0.00700    160475776.00000000 100122328.00000000 253514944.00000000 109894.11718750 8397630.00000000 6632994.00000000 
0.00800    159939168.00000000 99796152.00000000 252678944.00000000 109385.66406250 8363830.00000000 6606456.50000000 
0.00900    159336512.00000000 99428344.00000000 251734560.00000000 108812.29687500 8325718.50000000 6576569.00000000 
0.01000    158667312.00000000 99017192.00000000 250684432.00000000 108176.36718750 8283350.50000000 6543323.50000000 
0.01100    157932896.00000000 98565624.00000000 249529776.00000000 107478.43750000 8236848.50000000 6506787.50000000 
0.01200    157128096.00000000 98073200.00000000 248273472.00000000 106720.16406250 8186303.50000000 6467126.00000000 
0.01300    156258528.00000000 97541520.00000000 246916464.00000000 105903.23437500 8131776.50000000 6424326.50000000 
0.01400    155329120.00000000 96971368.00000000 245460800.00000000 105029.65625000 8073332.50000000 6378488.00000000 
0.01500    154338352.00000000 96365240.00000000 243907728.00000000 104100.95312500 8011201.50000000 6329687.00000000 
0.01600    153286672.00000000 95720848.00000000 242261440.00000000 103118.48437500 7945387.50000000 6278042.00000000 
0.01700    152177744.00000000 95040688.00000000 240524384.00000000 102085.35937500 7876092.50000000 6223624.00000000 
0.01800    151012112.00000000 94325504.00000000 238699168.00000000 101003.39843750 7803406.50000000 6166511.00000000 
0.01900    149791696.00000000 93578680.00000000 236787696.00000000 99874.64843750  7727474.50000000 6106901.50000000 
0.02000    148519040.00000000 92797704.00000000 234794496.00000000 98701.57031250  7648358.00000000 6044801.00000000 
0.02100    147194736.00000000 91985800.00000000 232717776.00000000 97485.45312500  7566295.50000000 5980377.00000000 
0.02200    145820896.00000000 91143048.00000000 230566256.00000000 96230.53906250  7481439.50000000 5913710.50000000 
0.02300    144402064.00000000 90271616.00000000 228343264.00000000 94937.84375000  7393906.50000000 5844893.00000000 
0.02400    142936144.00000000 89371672.00000000 226047168.00000000 93610.24218750  7303776.50000000 5774147.50000000 
0.02500    141428288.00000000 88445776.00000000 223685040.00000000 92250.39062500  7211281.00000000 5701495.00000000 
0.02600    139880368.00000000 87494680.00000000 221257216.00000000 90860.20312500  7116542.50000000 5627065.00000000 
0.02700    138294992.00000000 86519200.00000000 218769424.00000000 89443.33593750  7019754.00000000 5551020.50000000 
0.02800    136672320.00000000 85521704.00000000 216223600.00000000 88001.84375000  6921081.00000000 5473455.00000000 
0.02900    135015904.00000000 84502648.00000000 213626000.00000000 86538.46875000  6820616.00000000 5394472.00000000 
0.03000    133326928.00000000 83464048.00000000 210977984.00000000 85054.60156250  6718566.00000000 5314242.50000000 
0.03100    131609160.00000000 82406576.00000000 208281840.00000000 83553.81250000  6615071.50000000 5232857.50000000 
0.03200    129864280.00000000 81332208.00000000 205543200.00000000 82039.44531250  6510320.00000000 5150521.00000000 
0.03300    128094744.00000000 80242720.00000000 202764880.00000000 80512.07031250  6404376.50000000 5067275.50000000 
0.03400    126301792.00000000 79138440.00000000 199950576.00000000 78975.25781250  6297595.00000000 4983210.00000000 
0.03500    124490128.00000000 78021224.00000000 197103680.00000000 77431.16406250  6189888.00000000 4898508.00000000 
0.03600    122657744.00000000 76891312.00000000 194226048.00000000 75881.95312500  6081481.00000000 4813251.00000000 
0.03700    120811256.00000000 75751440.00000000 191325104.00000000 74330.23437500  5972619.00000000 4727565.50000000 
0.03800    118949840.00000000 74602512.00000000 188401504.00000000 72777.96093750  5863353.00000000 4641583.50000000 
0.03900    117078224.00000000 73445928.00000000 185458208.00000000 71227.33593750  5753815.00000000 4555405.50000000 
0.04000    115195728.00000000 72283448.00000000 182499248.00000000 69680.61718750  5644243.00000000 4469086.50000000 
0.04100    113306536.00000000 71115336.00000000 179527376.00000000 68139.07812500  5534663.50000000 4382777.50000000 
0.04200    111411432.00000000 69943672.00000000 176546176.00000000 66606.42187500  5425245.00000000 4296650.50000000 
0.04300    109513360.00000000 68769680.00000000 173559504.00000000 65082.28125000  5316096.00000000 4210686.00000000 
0.04400    107613392.00000000 67593080.00000000 170570976.00000000 63568.93359375  5207371.00000000 4124999.00000000 
0.04500    105714336.00000000 66416504.00000000 167580768.00000000 62069.24218750  5099119.00000000 4039735.00000000 
0.04600    103817808.00000000 65240520.00000000 164594656.00000000 60583.60156250  4991554.50000000 3954956.75000000 
0.04700    101924864.00000000 64067084.00000000 161612912.00000000 59114.09375000  4884698.50000000 3870735.25000000 
0.04800    100037864.00000000 62896764.00000000 158641344.00000000 57661.95312500  4778658.50000000 3787137.50000000 
0.04900    98158664.00000000 61730272.00000000 155680064.00000000 56228.29296875  4673548.00000000 3704274.25000000 
0.05000    96288552.00000000 60569024.00000000 152732288.00000000 54814.58593750  4569528.00000000 3622196.00000000 
0.05100    94429200.00000000 59413788.00000000 149802384.00000000 53421.53515625  4466578.00000000 3540965.00000000 
0.05200    92581920.00000000 58265468.00000000 146889648.00000000 52050.13281250  4364725.00000000 3460642.50000000 
0.05300    90748448.00000000 57125460.00000000 143996784.00000000 50701.91015625  4264171.00000000 3381308.25000000 
0.05400    88930304.00000000 55994148.00000000 141128448.00000000 49377.10546875  4164939.75000000 3302970.75000000 
0.05500    87127536.00000000 54872220.00000000 138285536.00000000 48076.17578125  4067076.25000000 3225716.00000000 
0.05600    85343304.00000000 53760956.00000000 135468016.00000000 46800.29296875  3970672.00000000 3149583.75000000 
0.05700    83577960.00000000 52661024.00000000 132680672.00000000 45550.28515625  3875748.25000000 3074599.00000000 
0.05800    81832680.00000000 51572292.00000000 129924576.00000000 44325.64843750  3782367.50000000 3000852.25000000 
0.05900    80106904.00000000 50496456.00000000 127199824.00000000 43127.28515625  3690573.25000000 2928277.50000000 
0.06000    78403376.00000000 49433828.00000000 124508664.00000000 41956.03906250  3600375.75000000 2856967.25000000 
0.06100    76723312.00000000 48384988.00000000 121853872.00000000 40810.96875000  3511839.75000000 2786996.50000000 
0.06200    75066248.00000000 47350024.00000000 119233256.00000000 39692.76953125  3424935.75000000 2718276.25000000 
0.06300    73434248.00000000 46330228.00000000 116653840.00000000 38601.81250000  3339746.75000000 2650894.25000000 
0.06400    71826080.00000000 45325096.00000000 114111184.00000000 37537.67968750  3256266.50000000 2584878.00000000 
0.06500    70244512.00000000 44336132.00000000 111609736.00000000 36499.97265625  3174522.00000000 2520188.50000000 
0.06600    68689040.00000000 43362536.00000000 109148768.00000000 35489.42968750  3094490.50000000 2456845.50000000 
0.06700    67160712.00000000 42406004.00000000 106729576.00000000 34505.45312500  3016211.25000000 2394872.00000000 
0.06800    65659052.00000000 41465608.00000000 104354344.00000000 33547.52734375  2939676.00000000 2334259.50000000 
0.06900    64185204.00000000 40542916.00000000 102021344.00000000 32616.14453125  2864875.75000000 2275024.75000000 
0.07000    62739472.00000000 39637164.00000000 99732728.00000000 31710.00976562  2791810.25000000 2217155.25000000 
0.07100    61322344.00000000 38748844.00000000 97488744.00000000 30829.53125000  2720503.00000000 2160645.75000000 
0.07200    59933232.00000000 37878056.00000000 95289128.00000000 29974.13476562  2650906.00000000 2105476.00000000 
0.07300    58573428.00000000 37025064.00000000 93134680.00000000 29142.96679688  2582984.25000000 2051663.12500000 
0.07400    57242176.00000000 36190292.00000000 91026480.00000000 28336.26562500  2516797.75000000 1999202.00000000 
0.07500    55940328.00000000 35373248.00000000 88963736.00000000 27553.01562500  2452280.00000000 1948023.50000000 
0.07600    54667336.00000000 34574624.00000000 86947408.00000000 26793.17968750  2389408.25000000 1898167.12500000 
0.07700    53423828.00000000 33794020.00000000 84975888.00000000 26055.77539062  2328163.75000000 1849597.00000000 
0.07800    52208756.00000000 33032032.00000000 83051224.00000000 25340.63867188  2268549.00000000 1802300.12500000 
0.07900    51023304.00000000 32287354.00000000 81172056.00000000 24646.82617188  2210529.75000000 1756264.87500000 
0.08000    49866968.00000000 31561300.00000000 79339128.00000000 23974.29492188  2154059.25000000 1711447.00000000 
0.08100    48739448.00000000 30853118.00000000 77552312.00000000 23322.15429688  2099175.50000000 1667860.00000000 
0.08200    47639872.00000000 30162892.00000000 75809776.00000000 22689.93164062  2045747.00000000 1625474.00000000 
0.08300    46569564.00000000 29490732.00000000 74112568.00000000 22077.13867188  1993835.25000000 1584248.12500000 
0.08400    45527200.00000000 28836020.00000000 72460448.00000000 21483.16406250  1943361.75000000 1544178.37500000 
0.08500    44512908.00000000 28199012.00000000 70853288.00000000 20907.64453125  1894334.25000000 1505248.75000000 
0.08600    43526232.00000000 27579676.00000000 69289696.00000000 20349.51562500  1846704.12500000 1467399.25000000 
0.08700    42567148.00000000 26977494.00000000 67769536.00000000 19808.94726562  1800433.87500000 1430651.75000000 
0.08800    41635068.00000000 26392510.00000000 66293012.00000000 19284.84179688  1755498.50000000 1394960.37500000 
0.08900    40729972.00000000 25824312.00000000 64858192.00000000 18776.94726562  1711883.75000000 1360312.37500000 
0.09000    39851472.00000000 25272978.00000000 63465836.00000000 18284.91015625  1669553.12500000 1326684.37500000 
0.09100    38998976.00000000 24737940.00000000 62115312.00000000 17807.88671875  1628460.50000000 1294040.62500000 
0.09200    38171788.00000000 24219322.00000000 60804372.00000000 17345.66015625  1588597.25000000 1262358.87500000 
0.09300    37370540.00000000 23716632.00000000 59535300.00000000 16897.65234375  1549931.12500000 1231632.12500000 
0.09400    36593520.00000000 23229594.00000000 58304784.00000000 16463.55468750  1512394.25000000 1201811.50000000 
0.09500    35840832.00000000 22758210.00000000 57113344.00000000 16042.64941406  1476018.25000000 1172899.50000000 
0.09600    35112372.00000000 22301896.00000000 55960324.00000000 15634.90527344  1440740.75000000 1144866.75000000 
0.09700    34407288.00000000 21860348.00000000 54844256.00000000 15239.58691406  1406541.50000000 1117703.12500000 
0.09800    33725560.00000000 21433614.00000000 53765032.00000000 14856.54687500  1373389.62500000 1091353.62500000 
0.09900    33066376.00000000 21021146.00000000 52722020.00000000 14485.17871094  1341259.50000000 1065835.00000000 
0.10000    32429058.00000000 20622660.00000000 51713712.00000000 14125.24609375  1310120.50000000 1041101.12500000 
0.10100    31813360.00000000 20237942.00000000 50740000.00000000 13776.39648438  1279958.50000000 1017138.12500000 
0.10200    31218376.00000000 19866182.00000000 49799672.00000000 13438.29785156  1250739.00000000 993920.75000000 
0.10300    30644410.00000000 19507840.00000000 48892448.00000000 13110.62597656  1222438.50000000 971436.31250000 
0.10400    30090124.00000000 19162130.00000000 48016628.00000000 12792.89453125  1195008.25000000 949660.06250000 
0.10500    29555638.00000000 18828724.00000000 47172024.00000000 12485.18652344  1168466.37500000 928584.25000000 
0.10600    29039884.00000000 18507616.00000000 46357480.00000000 12186.72753906  1142760.50000000 908167.43750000 
0.10700    28542580.00000000 18197786.00000000 45572832.00000000 11897.65234375  1117882.00000000 888410.50000000 
0.10800    28063476.00000000 17899534.00000000 44816736.00000000 11617.47949219  1093798.87500000 869293.50000000 
0.10900    27601444.00000000 17612408.00000000 44087644.00000000 11345.89843750  1070484.12500000 850782.25000000 
0.11000    27156300.00000000 17335828.00000000 43386032.00000000 11082.94726562  1047905.50000000 832869.68750000 
0.11100    26727562.00000000 17069610.00000000 42710060.00000000 10827.94433594  1026073.37500000 815535.31250000 
0.11200    26314710.00000000 16813440.00000000 42059084.00000000 10580.93261719  1004941.25000000 798765.62500000 
0.11300    25916802.00000000 16566714.00000000 41432280.00000000 10341.60351562  984483.31250000 782540.31250000 
0.11400    25533772.00000000 16329437.00000000 40829408.00000000 10109.72753906  964691.25000000 766845.12500000 
0.11500    25164872.00000000 16100927.00000000 40248620.00000000 9885.07519531   945537.62500000 751655.81250000 
0.11600    24809516.00000000 15881202.00000000 39689476.00000000 9667.38085938   927002.12500000 736962.18750000 
0.11700    24467434.00000000 15669674.00000000 39151068.00000000 9456.53515625   909067.93750000 722741.31250000 
0.11800    24137702.00000000 15466063.00000000 38632656.00000000 9252.02539062   891712.62500000 708975.00000000 
0.11900    23820108.00000000 15269835.00000000 38133316.00000000 9054.06347656   874892.06250000 695652.68750000 
0.12000    23513918.00000000 15080931.00000000 37652156.00000000 8862.13671875   858621.87500000 682758.31250000 
0.12100    23219090.00000000 14898904.00000000 37188584.00000000 8676.07910156   842866.75000000 670281.37500000 
0.12200    22934250.00000000 14723471.00000000 36741576.00000000 8495.75097656   827599.87500000 658181.81250000 
0.12300    22659440.00000000 14554163.00000000 36310088.00000000 8320.89160156   812808.18750000 646471.31250000 
0.12400    22394210.00000000 14390861.00000000 35893736.00000000 8151.22607422   798467.25000000 635119.50000000 
0.12500    22137752.00000000 14233051.00000000 35490932.00000000 7986.71972656   784566.50000000 624109.81250000 
0.12600    21890128.00000000 14080469.00000000 35102200.00000000 7827.15673828   771076.25000000 613438.31250000 
0.12700    21650106.00000000 13932770.00000000 34725592.00000000 7672.13671875   757986.75000000 603075.43750000 
0.12800    21417788.00000000 13789754.00000000 34360952.00000000 7521.63232422   745269.25000000 593006.31250000 
0.12900    21192286.00000000 13651041.00000000 34007068.00000000 7375.39599609   732910.25000000 583232.75000000 
0.13000    20973452.00000000 13516389.00000000 33663588.00000000 7233.26171875   720893.25000000 573727.12500000 
0.13100    20760696.00000000 13385433.00000000 33329296.00000000 7094.93847656   709190.18750000 564465.87500000 
0.13200    20553606.00000000 13257932.00000000 33004380.00000000 6960.34667969   697797.75000000 555458.06250000 
0.13300    20351674.00000000 13133594.00000000 32687598.00000000 6829.29052734   686690.68750000 546672.93750000 
0.13400    20154500.00000000 13012129.00000000 32377988.00000000 6701.54980469   675854.25000000 538097.12500000 
0.13500    19961658.00000000 12893240.00000000 32075376.00000000 6576.99511719   665266.06250000 529725.50000000 
0.13600    19773116.00000000 12776880.00000000 31778926.00000000 6455.39404297   654913.43750000 521538.65625000 
0.13700    19588050.00000000 12662660.00000000 31487722.00000000 6336.66601562   644773.18750000 513524.53125000 
0.13800    19406116.00000000 12550193.00000000 31201752.00000000 6220.50585938   634844.00000000 505668.09375000 
0.13900    19226860.00000000 12439524.00000000 30920198.00000000 6106.83984375   625105.68750000 497965.06250000 
0.14000    19050604.00000000 12330156.00000000 30642406.00000000 5995.64306641   615535.43750000 490397.06250000 
0.14100    18876198.00000000 12222205.00000000 30367804.00000000 5886.62890625   606135.87500000 482954.71875000 
0.14200    18703812.00000000 12115186.00000000 30096112.00000000 5779.58740234   596871.87500000 475628.62500000 
0.14300    18532904.00000000 12008976.00000000 29826750.00000000 5674.55322266   587740.81250000 468403.71875000 
0.14400    18363212.00000000 11903411.00000000 29559046.00000000 5571.35107422   578737.06250000 461276.56250000 
0.14500    18194692.00000000 11798362.00000000 29292968.00000000 5469.82421875   569845.81250000 454237.34375000 
0.14600    18026962.00000000 11693587.00000000 29027776.00000000 5369.86669922   561049.62500000 447271.81250000 
0.14700    17859562.00000000 11589056.00000000 28763322.00000000 5271.43896484   552342.62500000 440377.40625000 
0.14800    17692476.00000000 11484562.00000000 28499082.00000000 5174.41845703   543711.00000000 433539.84375000 
0.14900    17525404.00000000 11379924.00000000 28234716.00000000 5078.65576172   535160.31250000 426756.09375000 
0.15000    17358358.00000000 11275088.00000000 27969954.00000000 4984.13476562   526653.68750000 420018.81250000 
0.15100    17190800.00000000 11169903.00000000 27704610.00000000 4890.78759766   518216.84375000 413327.28125000 
0.15200    17023228.00000000 11064205.00000000 27438270.00000000 4798.55615234   509826.75000000 406665.71875000 
0.15300    16854606.00000000 10958132.00000000 27170704.00000000 4707.40478516   501473.68750000 400037.59375000 
0.15400    16685436.00000000 10851193.00000000 26901700.00000000 4617.17919922   493155.34375000 393432.78125000 
0.15500    16515375.00000000 10743745.00000000 26631448.00000000 4527.96728516   484871.59375000 386854.81250000 
0.15600    16344157.00000000 10635574.00000000 26359330.00000000 4439.68505859   476612.84375000 380287.65625000 
0.15700    16172080.00000000 10526512.00000000 26085346.00000000 4352.27636719   468380.06250000 373746.65625000 
0.15800    15998759.00000000 10416606.00000000 25809392.00000000 4265.79248047   460162.15625000 367208.18750000 
0.15900    15824376.00000000 10305823.00000000 25531318.00000000 4180.13916016   451969.34375000 360689.06250000 
0.16000    15648573.00000000 10194158.00000000 25251060.00000000 4095.41137695   443792.21875000 354176.68750000 
0.16100    15471762.00000000 10081616.00000000 24968822.00000000 4011.57739258   435633.37500000 347678.56250000 
0.16200    15293541.00000000 9968183.00000000 24684468.00000000 3928.57226562   427487.31250000 341186.28125000 
0.16300    15114134.00000000 9853611.00000000 24397864.00000000 3846.45849609   419362.37500000 334707.90625000 
0.16400    14933396.00000000 9738298.00000000 24109284.00000000 3765.32861328   411251.75000000 328239.25000000 
0.16500    14751472.00000000 9621981.00000000 23818286.00000000 3685.09130859   403165.43750000 321782.78125000 
0.16600    14568322.00000000 9504857.00000000 23525464.00000000 3605.80053711   395101.34375000 315341.40625000 
0.16700    14384022.00000000 9386825.00000000 23230558.00000000 3527.46118164   387054.43750000 308912.15625000 
0.16800    14198508.00000000 9267949.00000000 22933628.00000000 3450.19506836   379033.00000000 302501.78125000 
0.16900    14012183.00000000 9148489.00000000 22635074.00000000 3373.97583008   371049.06250000 296116.09375000 
0.17000    13824679.00000000 9028115.00000000 22334750.00000000 3298.85498047   363090.68750000 289749.46875000 
