# SAXS profile: number of points = 501, q_min = 0, q_max = 0.5, delta_q = 0.001
#    q    intensity 
0.00000    162235184.00000000 101202080.00000000 256271632.00000000 93779.01562500  7801147.50000000 6161335.50000000 
0.00100    162201888.00000000 101179960.00000000 256214768.00000000 93753.82031250  7799300.50000000 6159872.50000000 
0.00200    162098416.00000000 101114216.00000000 256049232.00000000 93680.32031250  7793633.00000000 6155398.00000000 
0.00300    161923968.00000000 101005520.00000000 255771168.00000000 93556.60937500  7784232.00000000 6147994.00000000 
0.00400    161677824.00000000 100852384.00000000 255384432.00000000 93384.77343750  7771101.00000000 6137673.00000000 
0.00500    161361680.00000000 100656152.00000000 254886416.00000000 93163.63281250  7754226.50000000 6124369.50000000 
0.00600    160974240.00000000 100416784.00000000 254277808.00000000 92894.80468750  7733715.00000000 6108169.50000000 
0.00700    160521088.00000000 100134904.00000000 253562000.00000000 92577.66406250  7709519.50000000 6089103.50000000 
0.00800    159995712.00000000 99811248.00000000 252739248.00000000 92213.79687500  7681676.00000000 6067220.00000000 
0.00900    159403488.00000000 99445168.00000000 251810384.00000000 91802.71875000  7650319.50000000 6042494.50000000 
0.01000    158746816.00000000 99039472.00000000 250777408.00000000 91346.31250000  7615404.50000000 6015017.50000000 
0.01100    158026496.00000000 98592792.00000000 249641344.00000000 90844.78125000  7577061.00000000 5984781.50000000 
0.01200    157241248.00000000 98105488.00000000 248404128.00000000 90298.88281250  7535272.00000000 5951871.50000000 
0.01300    156392656.00000000 97578800.00000000 247065568.00000000 89709.42968750  7490209.00000000 5916337.50000000 
0.01400    155480368.00000000 97013512.00000000 245632064.00000000 89078.12500000  7441870.00000000 5878225.50000000 
0.01500    154508640.00000000 96411192.00000000 244102928.00000000 88404.82812500  7390305.00000000 5837614.00000000 
0.01600    153477040.00000000 95772208.00000000 242478272.00000000 87692.68750000  7335654.00000000 5794587.50000000 
0.01700    152389872.00000000 95097216.00000000 240764592.00000000 86941.07031250  7278034.00000000 5749153.50000000 
0.01800    151245152.00000000 94388288.00000000 238961696.00000000 86152.21093750  7217474.50000000 5701417.00000000 
0.01900    150045200.00000000 93644904.00000000 237074336.00000000 85327.07031250  7154070.00000000 5651471.50000000 
0.02000    148794208.00000000 92868840.00000000 235101968.00000000 84466.68750000  7087923.00000000 5599356.50000000 
0.02100    147492512.00000000 92060888.00000000 233051248.00000000 83573.18750000  7019180.50000000 5545203.50000000 
0.02200    146140208.00000000 91223480.00000000 230922704.00000000 82647.76562500  6947892.50000000 5489016.00000000 
0.02300    144741936.00000000 90356128.00000000 228720992.00000000 81691.65625000  6874252.00000000 5430960.50000000 
0.02400    143298848.00000000 89460504.00000000 226445856.00000000 80706.80468750  6798244.00000000 5371076.50000000 
0.02500    141812368.00000000 88538384.00000000 224104192.00000000 79694.53906250  6720106.00000000 5309470.00000000 
0.02600    140284000.00000000 87590944.00000000 221696992.00000000 78656.54687500  6639882.00000000 5246239.50000000 
0.02700    138716736.00000000 86618336.00000000 219230192.00000000 77594.77343750  6557699.00000000 5181452.00000000 
0.02800    137113936.00000000 85623680.00000000 216702720.00000000 76510.01562500  6473671.50000000 5115263.50000000 
0.02900    135475808.00000000 84607056.00000000 214122272.00000000 75404.76562500  6387969.50000000 5047669.00000000 
0.03000    133805104.00000000 83569728.00000000 211490736.00000000 74280.25781250  6300642.50000000 4978862.00000000 
0.03100    132103872.00000000 82513960.00000000 208809504.00000000 73138.32031250  6211921.50000000 4908871.00000000 
0.03200    130375336.00000000 81440536.00000000 206085376.00000000 71980.77343750  6121800.00000000 4837833.00000000 
0.03300    128620656.00000000 80351656.00000000 203320144.00000000 70808.97656250  6030467.50000000 4765813.50000000 
0.03400    126842664.00000000 79247216.00000000 200516528.00000000 69624.74218750  5938041.00000000 4692944.50000000 
0.03500    125042592.00000000 78129696.00000000 197680736.00000000 68430.10937500  5844682.00000000 4619315.00000000 
0.03600    123224384.00000000 76999992.00000000 194815296.00000000 67226.17187500  5750460.00000000 4545006.00000000 
0.03700    121389192.00000000 75859600.00000000 191919536.00000000 66015.12500000  5655511.00000000 4470142.00000000 
0.03800    119538568.00000000 74710088.00000000 189004224.00000000 64797.64062500  5559986.00000000 4394821.50000000 
0.03900    117677168.00000000 73553760.00000000 186069264.00000000 63576.35156250  5463944.50000000 4319097.50000000 
0.04000    115803456.00000000 72389880.00000000 183114928.00000000 62351.95703125  5367598.50000000 4243068.00000000 
0.04100    113923456.00000000 71221112.00000000 180150480.00000000 61127.16406250  5270972.50000000 4166855.00000000 
0.04200    112036744.00000000 70048400.00000000 177175888.00000000 59902.61718750  5174225.00000000 4090560.25000000 
0.04300    110146512.00000000 68872296.00000000 174193408.00000000 58679.00781250  5077466.00000000 4014194.50000000 
0.04400    108253928.00000000 67695760.00000000 171208448.00000000 57459.66406250  4980771.50000000 3937929.25000000 
0.04500    106362488.00000000 66518816.00000000 168225328.00000000 56244.54687500  4884284.50000000 3861812.50000000 
0.04600    104472712.00000000 65343252.00000000 165243744.00000000 55035.35546875  4788108.00000000 3785923.50000000 
0.04700    102587816.00000000 64170148.00000000 162271152.00000000 53833.58203125  4692333.50000000 3710356.25000000 
0.04800    100708376.00000000 63000712.00000000 159305616.00000000 52640.42187500  4597070.50000000 3635188.00000000 
0.04900    98837360.00000000 61836036.00000000 156353376.00000000 51457.35546875  4502430.00000000 3560466.50000000 
0.05000    96975632.00000000 60677180.00000000 153415360.00000000 50284.65234375  4408411.50000000 3486298.00000000 
0.05100    95125424.00000000 59525408.00000000 150495856.00000000 49123.93750000  4315215.00000000 3412714.75000000 
0.05200    93288968.00000000 58381544.00000000 147595648.00000000 47976.56640625  4222862.00000000 3339827.25000000 
0.05300    91466576.00000000 57246344.00000000 144719424.00000000 46842.91406250  4131429.00000000 3267673.50000000 
0.05400    89660016.00000000 56121200.00000000 141869088.00000000 45723.83593750  4041015.75000000 3196295.50000000 
0.05500    87871144.00000000 55007040.00000000 139045632.00000000 44620.96875000  3951717.75000000 3125803.75000000 
0.05600    86101616.00000000 53904424.00000000 136252320.00000000 43534.55859375  3863537.00000000 3056169.75000000 
0.05700    84352688.00000000 52814608.00000000 133491136.00000000 42465.27734375  3776580.00000000 2987525.00000000 
0.05800    82625472.00000000 51737992.00000000 130764328.00000000 41413.84375000  3690898.75000000 2919858.50000000 
0.05900    80921296.00000000 50675624.00000000 128071840.00000000 40381.44531250  3606547.25000000 2853252.25000000 
0.06000    79240888.00000000 49627684.00000000 125417256.00000000 39367.58984375  3523565.50000000 2787709.25000000 
0.06100    77584792.00000000 48595216.00000000 122802728.00000000 38374.04687500  3442008.00000000 2723321.00000000 
0.06200    75955224.00000000 47578720.00000000 120229008.00000000 37400.06250000  3361922.75000000 2660074.25000000 
0.06300    74353400.00000000 46579244.00000000 117698160.00000000 36446.50390625  3283344.50000000 2597993.25000000 
0.06400    72776912.00000000 45596748.00000000 115208880.00000000 35513.64453125  3206283.25000000 2537108.00000000 
0.06500    71230344.00000000 44631832.00000000 112765688.00000000 34601.87890625  3130781.25000000 2477492.50000000 
0.06600    69712664.00000000 43684844.00000000 110367888.00000000 33711.55859375  3056899.25000000 2419095.50000000 
0.06700    68224808.00000000 42756380.00000000 108017688.00000000 32842.49609375  2984583.00000000 2361986.75000000 
0.06800    66767112.00000000 41846608.00000000 105713824.00000000 31994.69726562  2913930.50000000 2306155.00000000 
0.06900    65339948.00000000 40955736.00000000 103458776.00000000 31168.62695312  2844890.25000000 2251605.75000000 
0.07000    63943640.00000000 40084120.00000000 101252536.00000000 30364.07421875  2777515.25000000 2198364.50000000 
0.07100    62578408.00000000 39232380.00000000 99095144.00000000 29581.20898438  2711780.25000000 2146427.75000000 
0.07200    61244864.00000000 38399980.00000000 96988096.00000000 28819.45117188  2647701.50000000 2095796.12500000 
0.07300    59943196.00000000 37587100.00000000 94930936.00000000 28079.20312500  2585282.50000000 2046455.37500000 
0.07400    58673304.00000000 36794264.00000000 92924448.00000000 27360.00390625  2524501.75000000 1998419.37500000 
0.07500    57434972.00000000 36021620.00000000 90968048.00000000 26661.38671875  2465347.25000000 1951674.37500000 
0.07600    56228464.00000000 35268504.00000000 89061224.00000000 25983.61914062  2407826.25000000 1906224.75000000 
0.07700    55054040.00000000 34535064.00000000 87205184.00000000 25326.37695312  2351924.25000000 1862025.87500000 
0.07800    53910920.00000000 33821668.00000000 85398944.00000000 24688.86523438  2297612.00000000 1819103.62500000 
0.07900    52799560.00000000 33127946.00000000 83642184.00000000 24070.98632812  2244845.50000000 1777420.50000000 
0.08000    51719052.00000000 32453572.00000000 81935056.00000000 23472.43750000  2193671.00000000 1736947.00000000 
0.08100    50669504.00000000 31798764.00000000 80277032.00000000 22892.76757812  2144016.50000000 1697700.12500000 
0.08200    49650408.00000000 31163062.00000000 78666760.00000000 22331.51953125  2095836.75000000 1659625.50000000 
0.08300    48661224.00000000 30546174.00000000 77104512.00000000 21788.27539062  2049128.25000000 1622714.75000000 
0.08400    47701852.00000000 29947886.00000000 75589608.00000000 21262.57617188  2003863.62500000 1586938.25000000 
0.08500    46771628.00000000 29368096.00000000 74120624.00000000 20753.88867188  1959993.12500000 1552278.50000000 
0.08600    45870432.00000000 28806100.00000000 72697344.00000000 20261.69140625  1917520.25000000 1518696.25000000 
0.08700    44997480.00000000 28262232.00000000 71318400.00000000 19785.43554688  1876364.62500000 1486167.25000000 
0.08800    44151480.00000000 27735242.00000000 69982856.00000000 19324.82421875  1836500.00000000 1454684.62500000 
0.08900    43332788.00000000 27225512.00000000 68691064.00000000 18879.01757812  1797919.87500000 1424184.37500000 
0.09000    42540208.00000000 26732248.00000000 67440800.00000000 18447.91796875  1760548.87500000 1394640.25000000 
0.09100    41773604.00000000 26255194.00000000 66230800.00000000 18030.58203125  1724353.87500000 1366048.87500000 
0.09200    41031808.00000000 25794012.00000000 65060396.00000000 17626.45703125  1689298.75000000 1338351.12500000 
0.09300    40313944.00000000 25347914.00000000 63928964.00000000 17235.28906250  1655337.75000000 1311528.25000000 
0.09400    39619960.00000000 24916700.00000000 62834692.00000000 16856.33984375  1622443.62500000 1285548.50000000 
0.09500    38948504.00000000 24499982.00000000 61776592.00000000 16489.18359375  1590577.25000000 1260362.00000000 
0.09600    38299100.00000000 24097224.00000000 60753432.00000000 16133.23828125  1559671.75000000 1235968.62500000 
0.09700    37670964.00000000 23707900.00000000 59764184.00000000 15787.93164062  1529717.25000000 1212310.50000000 
0.09800    37063672.00000000 23331678.00000000 58807616.00000000 15452.98339844  1500651.62500000 1189358.12500000 
0.09900    36475736.00000000 22967772.00000000 57882424.00000000 15127.55273438  1472447.62500000 1167091.62500000 
0.10000    35906832.00000000 22616114.00000000 56987596.00000000 14811.51757812  1445061.87500000 1145467.87500000 
0.10100    35356068.00000000 22275714.00000000 56121656.00000000 14504.17187500  1418437.87500000 1124448.50000000 
0.10200    34822656.00000000 21946622.00000000 55283340.00000000 14204.90917969  1392572.62500000 1104025.25000000 
0.10300    34306412.00000000 21627962.00000000 54471708.00000000 13913.74902344  1367393.00000000 1084155.50000000 
0.10400    33805364.00000000 21319290.00000000 53684948.00000000 13629.88476562  1342872.75000000 1064808.62500000 
0.10500    33319766.00000000 21020402.00000000 52922952.00000000 13353.07910156  1318994.87500000 1045963.68750000 
0.10600    32848410.00000000 20730698.00000000 52183416.00000000 13082.83398438  1295699.12500000 1027578.50000000 
0.10700    32390768.00000000 20449538.00000000 51466144.00000000 12818.83300781  1272965.75000000 1009646.81250000 
0.10800    31946020.00000000 20176610.00000000 50768828.00000000 12560.65332031  1250760.25000000 992120.25000000 
0.10900    31513522.00000000 19911532.00000000 50091136.00000000 12307.96386719  1229041.75000000 974991.25000000 
0.11000    31092658.00000000 19653720.00000000 49432184.00000000 12060.58789062  1207787.75000000 958232.25000000 
0.11100    30682556.00000000 19402732.00000000 48790128.00000000 11818.04296875  1186987.37500000 941813.68750000 
0.11200    30282810.00000000 19158382.00000000 48164816.00000000 11580.09472656  1166572.75000000 925718.43750000 
0.11300    29892412.00000000 18919954.00000000 47554588.00000000 11346.43261719  1146557.87500000 909921.56250000 
0.11400    29511202.00000000 18687346.00000000 46958448.00000000 11116.99902344  1126889.00000000 894413.31250000 
0.11500    29138162.00000000 18459954.00000000 46375576.00000000 10891.40527344  1107551.87500000 879160.62500000 
0.11600    28772756.00000000 18237486.00000000 45805328.00000000 10669.35937500  1088532.00000000 864155.12500000 
0.11700    28415020.00000000 18019646.00000000 45246260.00000000 10450.90039062  1069805.87500000 849382.12500000 
0.11800    28063772.00000000 17805972.00000000 44698048.00000000 10235.57519531  1051344.37500000 834809.93750000 
0.11900    27718834.00000000 17596362.00000000 44159636.00000000 10023.52929688  1033134.62500000 820444.68750000 
0.12000    27379406.00000000 17390102.00000000 43630324.00000000 9814.42480469   1015158.81250000 806256.50000000 
0.12100    27045454.00000000 17187112.00000000 43109668.00000000 9608.17968750   997408.43750000 792256.25000000 
0.12200    26716240.00000000 16987338.00000000 42595996.00000000 9404.63964844   979870.18750000 778411.43750000 
0.12300    26391568.00000000 16790218.00000000 42089692.00000000 9203.83789062   962527.62500000 764715.25000000 
0.12400    26070894.00000000 16595540.00000000 41589708.00000000 9005.52832031   945364.37500000 751157.62500000 
0.12500    25753738.00000000 16403091.00000000 41095400.00000000 8809.73828125   928372.50000000 737743.25000000 
0.12600    25440378.00000000 16212847.00000000 40606648.00000000 8616.54296875   911552.43750000 724462.00000000 
0.12700    25129708.00000000 16024316.00000000 40122172.00000000 8425.66992188   894887.25000000 711290.50000000 
0.12800    24821880.00000000 15837364.00000000 39642296.00000000 8237.16113281   878374.93750000 698238.37500000 
0.12900    24516614.00000000 15651927.00000000 39166168.00000000 8051.01904297   861999.75000000 685298.43750000 
0.13000    24213668.00000000 15467814.00000000 38693484.00000000 7867.27929688   845774.25000000 672464.00000000 
0.13100    23912768.00000000 15284808.00000000 38223484.00000000 7685.78027344   829685.06250000 659735.31250000 
0.13200    23613508.00000000 15102775.00000000 37756448.00000000 7506.67529297   813728.81250000 647111.18750000 
0.13300    23316178.00000000 14921684.00000000 37292100.00000000 7329.97656250   797906.56250000 634584.62500000 
0.13400    23020324.00000000 14741274.00000000 36829944.00000000 7155.59765625   782218.31250000 622159.50000000 
0.13500    22725738.00000000 14561743.00000000 36369368.00000000 6983.63916016   766650.25000000 609840.18750000 
0.13600    22432372.00000000 14382662.00000000 35910764.00000000 6814.09375000   751227.62500000 597614.18750000 
0.13700    22140316.00000000 14204027.00000000 35453792.00000000 6647.02636719   735932.75000000 585490.31250000 
0.13800    21849400.00000000 14025995.00000000 34998312.00000000 6482.43164062   720770.87500000 573471.12500000 
0.13900    21559474.00000000 13848423.00000000 34544320.00000000 6320.41796875   705747.18750000 561557.87500000 
0.14000    21270430.00000000 13671179.00000000 34091268.00000000 6160.93896484   690869.62500000 549750.81250000 
0.14100    20982556.00000000 13494408.00000000 33639924.00000000 6004.06787109   676129.12500000 538049.68750000 
0.14200    20695374.00000000 13317795.00000000 33189242.00000000 5849.81835938   661534.75000000 526459.87500000 
0.14300    20409322.00000000 13141661.00000000 32739916.00000000 5698.27783203   647096.81250000 514985.75000000 
0.14400    20124114.00000000 12965796.00000000 32291826.00000000 5549.44189453   632802.43750000 503624.93750000 
0.14500    19839954.00000000 12790290.00000000 31844922.00000000 5403.38818359   618672.50000000 492388.93750000 
0.14600    19556714.00000000 12615136.00000000 31399382.00000000 5260.14208984   604700.75000000 481277.12500000 
0.14700    19274556.00000000 12440437.00000000 30955150.00000000 5119.75000000   590897.31250000 470293.65625000 
0.14800    18993430.00000000 12265995.00000000 30511994.00000000 4982.14648438   577266.31250000 459437.53125000 
0.14900    18713462.00000000 12092061.00000000 30070568.00000000 4847.44091797   563806.43750000 448717.37500000 
0.15000    18434608.00000000 11918629.00000000 29630650.00000000 4715.66796875   550522.18750000 438134.90625000 
0.15100    18157048.00000000 11745673.00000000 29192290.00000000 4586.82958984   537426.31250000 427694.50000000 
0.15200    17880906.00000000 11573386.00000000 28755994.00000000 4460.95166016   524518.81250000 417399.46875000 
0.15300    17606414.00000000 11401662.00000000 28321538.00000000 4338.03173828   511800.96875000 407252.12500000 
0.15400    17333048.00000000 11230529.00000000 27888996.00000000 4218.03076172   499275.68750000 397256.62500000 
0.15500    17061332.00000000 11060242.00000000 27458674.00000000 4101.06689453   486951.59375000 387417.90625000 
0.15600    16791386.00000000 10890599.00000000 27030820.00000000 3987.03491211   474826.81250000 377730.50000000 
0.15700    16523319.00000000 10721945.00000000 26605228.00000000 3876.03662109   462913.03125000 368207.53125000 
0.15800    16256823.00000000 10554107.00000000 26182356.00000000 3767.90039062   451198.15625000 358846.43750000 
0.15900    15992537.00000000 10387382.00000000 25762334.00000000 3662.77734375   439701.15625000 349646.78125000 
0.16000    15730215.00000000 10221506.00000000 25345068.00000000 3560.54663086   428414.28125000 340614.28125000 
0.16100    15470134.00000000 10056886.00000000 24931200.00000000 3461.24584961   417342.87500000 331753.75000000 
0.16200    15212156.00000000 9893322.00000000 24520294.00000000 3364.83300781   406487.62500000 323063.21875000 
0.16300    14956597.00000000 9730993.00000000 24113074.00000000 3271.24023438   395849.71875000 314539.21875000 
0.16400    14703402.00000000 9570104.00000000 23709184.00000000 3180.49829102   385433.71875000 306190.34375000 
0.16500    14452704.00000000 9410321.00000000 23308982.00000000 3092.50488281   375232.71875000 298014.37500000 
0.16600    14204618.00000000 9252127.00000000 22912836.00000000 3007.23364258   365253.31250000 290009.21875000 
0.16700    13959114.00000000 9095336.00000000 22520342.00000000 2924.63696289   355491.93750000 282177.96875000 
0.16800    13716348.00000000 8940072.00000000 22132010.00000000 2844.69604492   345948.09375000 274520.56250000 
0.16900    13476485.00000000 8786340.00000000 21747994.00000000 2767.34448242   336627.28125000 267037.34375000 
0.17000    13239381.00000000 8634122.00000000 21368126.00000000 2692.51171875   327522.68750000 259724.32812500 
