# SAXS profile: number of points = 501, q_min = 0, q_max = 0.5, delta_q = 0.001
#    q    intensity 
0.00000    162238864.00000000 101201832.00000000 256272032.00000000 95727.13281250  7881798.50000000 6225008.00000000 
0.00100    162215232.00000000 101187136.00000000 256234336.00000000 95708.12500000  7880414.50000000 6223919.50000000 
0.00200    162144144.00000000 101143112.00000000 256121872.00000000 95651.76562500  7876379.00000000 6220761.00000000 
0.00300    162025408.00000000 101069344.00000000 255934352.00000000 95558.32031250  7869617.00000000 6215452.50000000 
0.00400    161859296.00000000 100966608.00000000 255671984.00000000 95427.47656250  7860123.00000000 6207999.00000000 
0.00500    161643616.00000000 100834040.00000000 255334480.00000000 95259.35156250  7847977.50000000 6198441.00000000 
0.00600    161381520.00000000 100672120.00000000 254922944.00000000 95054.39062500  7833132.00000000 6186800.50000000 
0.00700    161071296.00000000 100481960.00000000 254436960.00000000 94812.96875000  7815643.50000000 6173051.00000000 
0.00800    160714752.00000000 100262048.00000000 253877808.00000000 94534.46093750  7795487.50000000 6157231.00000000 
0.00900    160311152.00000000 100014112.00000000 253245984.00000000 94220.42968750  7772738.00000000 6139346.00000000 
0.01000    159861280.00000000 99738232.00000000 252542816.00000000 93870.53906250  7747369.00000000 6119430.00000000 
0.01100    159365904.00000000 99433136.00000000 251766480.00000000 93484.89843750  7719433.00000000 6097494.00000000 
0.01200    158826128.00000000 99101424.00000000 250918928.00000000 93064.99218750  7688970.50000000 6073579.50000000 
0.01300    158242144.00000000 98741256.00000000 250001616.00000000 92610.17968750  7655963.00000000 6047653.50000000 
0.01400    157615040.00000000 98354656.00000000 249013984.00000000 92121.46875000  7620470.50000000 6019766.50000000 
0.01500    156943328.00000000 97940296.00000000 247959440.00000000 91599.31250000  7582592.00000000 5989997.50000000 
0.01600    156226496.00000000 97499520.00000000 246836144.00000000 91044.42968750  7542241.50000000 5958315.00000000 
0.01700    155467552.00000000 97033016.00000000 245646112.00000000 90457.23437500  7499542.50000000 5924800.50000000 
0.01800    154667712.00000000 96540264.00000000 244390960.00000000 89838.89062500  7454553.50000000 5889412.50000000 
0.01900    153827680.00000000 96022440.00000000 243071696.00000000 89189.58593750  7407252.00000000 5852255.50000000 
0.02000    152946800.00000000 95479648.00000000 241688080.00000000 88509.84375000  7357743.50000000 5813333.50000000 
0.02100    152026368.00000000 94913128.00000000 240243920.00000000 87801.22656250  7306048.00000000 5772713.00000000 
0.02200    151067728.00000000 94322336.00000000 238738080.00000000 87063.48437500  7252200.50000000 5730442.50000000 
0.02300    150070304.00000000 93708152.00000000 237173376.00000000 86297.95312500  7196280.00000000 5686490.00000000 
0.02400    149036272.00000000 93071272.00000000 235550816.00000000 85505.82812500  7138352.50000000 5640957.00000000 
0.02500    147966544.00000000 92412424.00000000 233871632.00000000 84687.53906250  7078416.50000000 5593913.50000000 
0.02600    146861408.00000000 91731536.00000000 232136096.00000000 83843.78125000  7016617.50000000 5545314.00000000 
0.02700    145721984.00000000 91029968.00000000 230348208.00000000 82976.21875000  6952981.00000000 5495311.00000000 
0.02800    144549920.00000000 90307696.00000000 228507424.00000000 82084.42968750  6887518.00000000 5443871.00000000 
0.02900    143345616.00000000 89565240.00000000 226617952.00000000 81170.79687500  6820322.00000000 5391058.50000000 
0.03000    142110112.00000000 88804144.00000000 224678224.00000000 80235.44531250  6751481.00000000 5336942.50000000 
0.03100    140844880.00000000 88024304.00000000 222690496.00000000 79279.79687500  6681064.50000000 5281584.50000000 
0.03200    139550512.00000000 87226664.00000000 220658256.00000000 78304.32031250  6609114.50000000 5225009.00000000 
0.03300    138228016.00000000 86411416.00000000 218580896.00000000 77310.32031250  6535693.50000000 5167297.00000000 
0.03400    136878336.00000000 85579992.00000000 216463552.00000000 76298.60156250  6460859.50000000 5108468.50000000 
0.03500    135504496.00000000 84732072.00000000 214304480.00000000 75270.60937500  6384695.50000000 5048608.50000000 
0.03600    134105696.00000000 83869312.00000000 212106768.00000000 74227.03125000  6307259.50000000 4987750.50000000 
0.03700    132682616.00000000 82992192.00000000 209872640.00000000 73169.14062500  6228680.00000000 4925941.50000000 
0.03800    131238336.00000000 82100984.00000000 207603680.00000000 72097.60937500  6148974.50000000 4863240.50000000 
0.03900    129772416.00000000 81197120.00000000 205300912.00000000 71014.11718750  6068201.50000000 4799726.50000000 
0.04000    128286624.00000000 80280504.00000000 202966704.00000000 69919.29687500  5986458.50000000 4735442.50000000 
0.04100    126782720.00000000 79352112.00000000 200603536.00000000 68813.64843750  5903802.00000000 4670455.00000000 
0.04200    125260568.00000000 78413288.00000000 198213120.00000000 67698.93750000  5820326.50000000 4604794.00000000 
0.04300    123722616.00000000 77464408.00000000 195796352.00000000 66576.06250000  5736080.00000000 4538485.00000000 
0.04400    122169320.00000000 76504992.00000000 193355616.00000000 65446.07031250  5651141.50000000 4471679.50000000 
0.04500    120602128.00000000 75538192.00000000 190893424.00000000 64310.00781250  5565568.00000000 4404375.00000000 
0.04600    119022352.00000000 74562872.00000000 188410160.00000000 63168.55078125  5479447.50000000 4336608.50000000 
0.04700    117430352.00000000 73580688.00000000 185909312.00000000 62023.05859375  5392854.00000000 4268463.50000000 
0.04800    115828456.00000000 72591144.00000000 183391792.00000000 60874.35546875  5305844.00000000 4199991.00000000 
0.04900    114217744.00000000 71596784.00000000 180858480.00000000 59723.58203125  5218508.50000000 4131251.00000000 
0.05000    112598184.00000000 70596744.00000000 178314656.00000000 58571.77734375  5130871.00000000 4062290.75000000 
0.05100    110972024.00000000 69592168.00000000 175757296.00000000 57419.68750000  5043017.50000000 3993150.50000000 
0.05200    109340632.00000000 68584160.00000000 173191952.00000000 56268.24609375  4955067.00000000 3923883.75000000 
0.05300    107704048.00000000 67572608.00000000 170618896.00000000 55118.53906250  4866998.50000000 3854567.75000000 
0.05400    106064040.00000000 66558680.00000000 168040400.00000000 53971.18359375  4778924.00000000 3785228.00000000 
0.05500    104421888.00000000 65543668.00000000 165457584.00000000 52827.48046875  4690944.00000000 3715944.25000000 
0.05600    102778200.00000000 64527472.00000000 162873136.00000000 51688.03125000  4603053.50000000 3646727.00000000 
0.05700    101134488.00000000 63510984.00000000 160288496.00000000 50553.87500000  4515351.50000000 3577647.00000000 
0.05800    99491736.00000000 62495040.00000000 157704704.00000000 49425.51953125  4427884.50000000 3508743.00000000 
0.05900    97850392.00000000 61479976.00000000 155122960.00000000 48303.93750000  4340692.50000000 3440072.00000000 
0.06000    96212480.00000000 60466416.00000000 152546768.00000000 47190.00390625  4253880.00000000 3371671.25000000 
0.06100    94578320.00000000 59455492.00000000 149974880.00000000 46084.54296875  4167487.00000000 3303579.50000000 
0.06200    92949360.00000000 58447032.00000000 147411312.00000000 44987.92968750  4081528.50000000 3235859.25000000 
0.06300    91325976.00000000 57442288.00000000 144857328.00000000 43901.07812500  3996131.75000000 3168531.00000000 
0.06400    89709536.00000000 56441400.00000000 142312256.00000000 42824.58984375  3911260.25000000 3101643.00000000 
0.06500    88100880.00000000 55445348.00000000 139779792.00000000 41759.27734375  3827025.50000000 3035235.25000000 
0.06600    86500800.00000000 54454108.00000000 137260752.00000000 40705.79296875  3743466.50000000 2969343.00000000 
0.06700    84910120.00000000 53468600.00000000 134756480.00000000 39664.10937500  3660616.75000000 2904020.25000000 
0.06800    83329552.00000000 52489416.00000000 132269472.00000000 38635.42187500  3578503.25000000 2839253.50000000 
0.06900    81760904.00000000 51516972.00000000 129798640.00000000 37620.01953125  3497233.00000000 2775148.50000000 
0.07000    80203456.00000000 50551440.00000000 127346512.00000000 36618.87890625  3416774.75000000 2711680.75000000 
0.07100    78658872.00000000 49593792.00000000 124913712.00000000 35631.62109375  3337190.75000000 2648892.50000000 
0.07200    77127544.00000000 48644184.00000000 122501832.00000000 34659.16796875  3258534.25000000 2586812.00000000 
0.07300    75610512.00000000 47703132.00000000 120111864.00000000 33702.12500000  3180827.50000000 2525506.50000000 
0.07400    74108200.00000000 46771036.00000000 117744856.00000000 32760.49804688  3104119.75000000 2464933.25000000 
0.07500    72621728.00000000 45848308.00000000 115402776.00000000 31835.00195312  3028427.00000000 2405176.50000000 
0.07600    71150968.00000000 44935244.00000000 113084312.00000000 30925.35546875  2953772.50000000 2346233.50000000 
0.07700    69696968.00000000 44032440.00000000 110792264.00000000 30032.68750000  2880204.00000000 2288128.00000000 
0.07800    68259320.00000000 43139916.00000000 108527192.00000000 29156.64453125  2807727.75000000 2230880.75000000 
0.07900    66840148.00000000 42258148.00000000 106290096.00000000 28297.73828125  2736372.00000000 2174501.50000000 
0.08000    65439156.00000000 41387504.00000000 104081072.00000000 27456.03320312  2666169.25000000 2119032.00000000 
0.08100    64057264.00000000 40528448.00000000 101901176.00000000 26631.80664062  2597133.75000000 2064479.50000000 
0.08200    62693824.00000000 39680764.00000000 99751032.00000000 25825.19531250  2529290.75000000 2010845.25000000 
0.08300    61349884.00000000 38845088.00000000 97631528.00000000 25036.24609375  2462649.25000000 1958164.12500000 
0.08400    60025972.00000000 38021468.00000000 95542456.00000000 24265.18750000  2397205.00000000 1906418.62500000 
0.08500    58722368.00000000 37210036.00000000 93485432.00000000 23512.03906250  2333001.25000000 1855641.37500000 
0.08600    57439188.00000000 36411368.00000000 91460840.00000000 22776.73046875  2270052.75000000 1805842.50000000 
0.08700    56176852.00000000 35625420.00000000 89468848.00000000 22059.54101562  2208337.75000000 1757007.12500000 
0.08800    54935648.00000000 34852528.00000000 87508648.00000000 21360.23828125  2147886.00000000 1709160.37500000 
0.08900    53715544.00000000 34092332.00000000 85582632.00000000 20678.87304688  2088677.62500000 1662302.37500000 
0.09000    52517128.00000000 33345276.00000000 83690184.00000000 20015.60742188  2030767.75000000 1616443.25000000 
0.09100    51340136.00000000 32611546.00000000 81831720.00000000 19370.07226562  1974100.00000000 1571567.75000000 
0.09200    50185276.00000000 31891210.00000000 80007216.00000000 18742.14453125  1918716.87500000 1527704.87500000 
0.09300    49051976.00000000 31184360.00000000 78217056.00000000 18132.09179688  1864598.75000000 1484828.25000000 
0.09400    47940656.00000000 30490798.00000000 76461184.00000000 17539.40234375  1811740.87500000 1442949.25000000 
0.09500    46851716.00000000 29810740.00000000 74739680.00000000 16964.04882812  1760156.62500000 1402053.50000000 
0.09600    45784576.00000000 29144506.00000000 73052688.00000000 16405.94140625  1709824.00000000 1362150.62500000 
0.09700    44739768.00000000 28491724.00000000 71401376.00000000 15864.81640625  1660751.12500000 1323233.50000000 
0.09800    43717048.00000000 27852456.00000000 69783648.00000000 15340.45605469  1612915.87500000 1285298.75000000 
0.09900    42716216.00000000 27226882.00000000 68201288.00000000 14832.72070312  1566323.62500000 1248322.75000000 
0.10000    41737352.00000000 26614730.00000000 66652684.00000000 14341.28906250  1520953.75000000 1212315.87500000 
0.10100    40780336.00000000 26016024.00000000 65138676.00000000 13865.95410156  1476796.12500000 1177261.00000000 
0.10200    39845436.00000000 25430700.00000000 63658976.00000000 13406.48632812  1433838.25000000 1143154.62500000 
0.10300    38932072.00000000 24858822.00000000 62213080.00000000 12962.50878906  1392082.00000000 1109978.37500000 
0.10400    38039980.00000000 24300104.00000000 60800928.00000000 12533.94140625  1351492.75000000 1077726.75000000 
0.10500    37169668.00000000 23754684.00000000 59422864.00000000 12120.37890625  1312057.62500000 1046393.25000000 
0.10600    36319948.00000000 23222292.00000000 58077500.00000000 11721.24609375  1273769.75000000 1015950.87500000 
0.10700    35491720.00000000 22702630.00000000 56765108.00000000 11336.74218750  1236607.62500000 986403.37500000 
0.10800    34684072.00000000 22195826.00000000 55485388.00000000 10966.13476562  1200545.75000000 957720.43750000 
0.10900    33896964.00000000 21701758.00000000 54238328.00000000 10609.28417969  1165573.12500000 929895.00000000 
0.11000    33130054.00000000 21220190.00000000 53022140.00000000 10265.86914062  1131676.50000000 902908.93750000 
0.11100    32383248.00000000 20750986.00000000 51838064.00000000 9935.44140625   1098832.37500000 876754.68750000 
0.11200    31656174.00000000 20293892.00000000 50685148.00000000 9617.79296875   1067013.12500000 851412.37500000 
0.11300    30948348.00000000 19848896.00000000 49562760.00000000 9312.43847656   1036200.43750000 826864.00000000 
0.11400    30259648.00000000 19415616.00000000 48469988.00000000 9019.17773438   1006376.62500000 803090.87500000 
0.11500    29590060.00000000 18994014.00000000 47407060.00000000 8737.59179688   977513.00000000 780086.25000000 
0.11600    28938458.00000000 18583966.00000000 46373212.00000000 8467.20214844   949597.12500000 757821.62500000 
0.11700    28305436.00000000 18185068.00000000 45367892.00000000 8207.88964844   922602.56250000 736282.68750000 
0.11800    27690110.00000000 17797106.00000000 44390396.00000000 7959.06982422   896502.06250000 715448.31250000 
0.11900    27092132.00000000 17420024.00000000 43440592.00000000 7720.53515625   871269.93750000 695304.81250000 
0.12000    26511164.00000000 17053472.00000000 42517536.00000000 7491.93066406   846890.43750000 675830.50000000 
0.12100    25947162.00000000 16697320.00000000 41620956.00000000 7272.91113281   823344.56250000 657020.37500000 
0.12200    25399310.00000000 16351398.00000000 40750060.00000000 7063.06201172   800599.81250000 638843.06250000 
0.12300    24867436.00000000 16015332.00000000 39904400.00000000 6862.09619141   778635.18750000 621282.75000000 
0.12400    24351322.00000000 15688821.00000000 39083128.00000000 6669.61035156   757430.06250000 604317.68750000 
0.12500    23850234.00000000 15371860.00000000 38285420.00000000 6485.29199219   736957.31250000 587936.87500000 
0.12600    23363986.00000000 15064220.00000000 37512184.00000000 6308.98193359   717196.12500000 572123.56250000 
0.12700    22892176.00000000 14765301.00000000 36760948.00000000 6140.11279297   698121.87500000 556849.68750000 
0.12800    22434210.00000000 14475307.00000000 36031780.00000000 5978.46191406   679708.81250000 542107.00000000 
0.12900    21990146.00000000 14193742.00000000 35324480.00000000 5823.72119141   661946.87500000 527868.56250000 
0.13000    21559136.00000000 13920383.00000000 34637856.00000000 5675.58837891   644797.75000000 514127.56250000 
0.13100    21140880.00000000 13654977.00000000 33971388.00000000 5533.75390625   628247.68750000 500853.56250000 
0.13200    20735370.00000000 13397480.00000000 33324850.00000000 5397.93847656   612272.56250000 488041.37500000 
0.13300    20341710.00000000 13147456.00000000 32697368.00000000 5267.82080078   596853.81250000 475669.53125000 
0.13400    19959898.00000000 12904637.00000000 32088246.00000000 5143.16796875   581964.75000000 463717.96875000 
0.13500    19589274.00000000 12669044.00000000 31497130.00000000 5023.68505859   567589.50000000 452174.03125000 
0.13600    19229572.00000000 12440147.00000000 30922900.00000000 4909.06835938   553707.31250000 441022.71875000 
0.13700    18880386.00000000 12217855.00000000 30365824.00000000 4799.19970703   540292.68750000 430246.21875000 
0.13800    18541384.00000000 12001971.00000000 29824362.00000000 4693.66796875   527328.62500000 419830.31250000 
0.13900    18212272.00000000 11792195.00000000 29298842.00000000 4592.33251953   514802.96875000 409759.06250000 
0.14000    17892450.00000000 11588334.00000000 28788068.00000000 4494.92041016   502686.18750000 400016.71875000 
0.14100    17581852.00000000 11390118.00000000 28291754.00000000 4401.27246094   490969.06250000 390591.53125000 
0.14200    17279838.00000000 11197444.00000000 27809222.00000000 4311.12548828   479626.25000000 381465.59375000 
0.14300    16986394.00000000 11010022.00000000 27339896.00000000 4224.28613281   468647.56250000 372631.12500000 
0.14400    16700751.00000000 10827617.00000000 26883314.00000000 4140.49902344   458007.34375000 364066.96875000 
0.14500    16423124.00000000 10650110.00000000 26439242.00000000 4059.67089844   447702.59375000 355770.81250000 
0.14600    16152753.00000000 10477226.00000000 26006744.00000000 3981.63598633   437705.68750000 347721.87500000 
0.14700    15889504.00000000 10308836.00000000 25585476.00000000 3906.19067383   428008.12500000 339913.81250000 
0.14800    15632996.00000000 10144718.00000000 25174946.00000000 3833.12060547   418593.00000000 332328.37500000 
0.14900    15382995.00000000 9984623.00000000 24774850.00000000 3762.31079102   409446.25000000 324962.28125000 
0.15000    15139123.00000000 9828453.00000000 24384598.00000000 3693.63964844   400555.15625000 317802.18750000 
0.15100    14901151.00000000 9676013.00000000 24003388.00000000 3626.95092773   391906.50000000 310829.43750000 
0.15200    14669023.00000000 9527175.00000000 23631556.00000000 3562.11938477   383491.96875000 304053.37500000 
0.15300    14442140.00000000 9381706.00000000 23268180.00000000 3499.01586914   375292.46875000 297446.18750000 
0.15400    14220310.00000000 9239429.00000000 22912772.00000000 3437.52514648   367298.37500000 291006.09375000 
0.15500    14003324.00000000 9100300.00000000 22565200.00000000 3377.58959961   359502.84375000 284727.28125000 
0.15600    13791028.00000000 8963966.00000000 22224892.00000000 3319.03906250   351891.71875000 278593.46875000 
0.15700    13583206.00000000 8830589.00000000 21891870.00000000 3261.82104492   344464.81250000 272610.06250000 
0.15800    13379327.00000000 8699769.00000000 21565084.00000000 3205.81396484   337196.93750000 266754.87500000 
0.15900    13179610.00000000 8571428.00000000 21244966.00000000 3150.98754883   330092.87500000 261032.20312500 
0.16000    12983611.00000000 8445536.00000000 20930636.00000000 3097.23437500   323133.84375000 255429.56250000 
0.16100    12791199.00000000 8321903.50000000 20622266.00000000 3044.52734375   316325.53125000 249945.98437500 
0.16200    12602178.00000000 8200383.50000000 20318968.00000000 2992.75585938   309648.56250000 244569.67187500 
0.16300    12416387.00000000 8080972.00000000 20021008.00000000 2941.87377930   303101.15625000 239298.92187500 
0.16400    12233614.00000000 7963465.50000000 19727822.00000000 2891.87646484   296676.50000000 234128.71875000 
0.16500    12053710.00000000 7847788.50000000 19439278.00000000 2842.65649414   290369.59375000 229051.65625000 
0.16600    11876556.00000000 7733871.50000000 19155114.00000000 2794.21313477   284172.28125000 224067.71875000 
0.16700    11701995.00000000 7621564.00000000 18875032.00000000 2746.47387695   278085.06250000 219168.37500000 
0.16800    11529843.00000000 7510780.50000000 18598904.00000000 2699.42041016   272092.68750000 214350.00000000 
0.16900    11360116.00000000 7401612.00000000 18326522.00000000 2653.09570312   266203.87500000 209616.01562500 
0.17000    11192623.00000000 7293780.50000000 18057692.00000000 2607.35717773   260404.73437500 204954.25000000 
