# SAXS profile: number of points = 501, q_min = 0, q_max = 0.5, delta_q = 0.001
#    q    intensity 
0.00000    162237856.00000000 101201744.00000000 256271600.00000000 108083.50781250 8375056.50000000 6614596.00000000 
0.00100    162210560.00000000 101184432.00000000 256226608.00000000 108059.31250000 8373385.00000000 6613251.00000000 
0.00200    162125216.00000000 101130568.00000000 256091376.00000000 107987.45312500 8368319.00000000 6609311.50000000 
0.00300    161981216.00000000 101042232.00000000 255865312.00000000 107867.30468750 8359946.50000000 6602683.50000000 
0.00400    161779712.00000000 100918104.00000000 255548704.00000000 107699.21875000 8348196.00000000 6593525.00000000 
0.00500    161520304.00000000 100758664.00000000 255142912.00000000 107483.96875000 8333156.00000000 6581674.50000000 
0.00600    161205312.00000000 100564336.00000000 254647552.00000000 107220.86718750 8314753.00000000 6567246.00000000 
0.00700    160832592.00000000 100334928.00000000 254062896.00000000 106911.00781250 8293059.00000000 6550215.00000000 
0.00800    160403632.00000000 100070800.00000000 253391040.00000000 106554.74218750 8268152.00000000 6530620.00000000 
0.00900    159919312.00000000 99773272.00000000 252632480.00000000 106152.28125000 8240020.00000000 6508534.50000000 
0.01000    159379472.00000000 99441504.00000000 251786064.00000000 105704.56250000 8208636.50000000 6483895.50000000 
0.01100    158785344.00000000 99076152.00000000 250854752.00000000 105211.40625000 8174127.00000000 6456793.00000000 
0.01200    158138096.00000000 98678040.00000000 249838992.00000000 104674.14843750 8136506.50000000 6427196.50000000 
0.01300    157439200.00000000 98247328.00000000 248738736.00000000 104093.25000000 8095813.00000000 6395275.50000000 
0.01400    156687264.00000000 97783816.00000000 247559744.00000000 103470.02343750 8052089.00000000 6360925.50000000 
0.01500    155881952.00000000 97288784.00000000 246296352.00000000 102803.86718750 8005418.50000000 6324252.50000000 
0.01600    155028176.00000000 96762400.00000000 244955200.00000000 102097.58593750 7955808.50000000 6285307.00000000 
0.01700    154122864.00000000 96205456.00000000 243536752.00000000 101350.28906250 7903381.00000000 6244100.00000000 
0.01800    153170288.00000000 95618440.00000000 242041248.00000000 100564.44531250 7848127.00000000 6200711.00000000 
0.01900    152170432.00000000 95002896.00000000 240471760.00000000 99740.00000000  7790193.50000000 6155203.00000000 
0.02000    151124016.00000000 94358248.00000000 238829296.00000000 98878.53125000  7729597.50000000 6107590.00000000 
0.02100    150033168.00000000 93686056.00000000 237114624.00000000 97981.07031250  7666404.00000000 6057941.50000000 
0.02200    148896640.00000000 92986016.00000000 235332400.00000000 97048.66406250  7600737.50000000 6006317.50000000 
0.02300    147718304.00000000 92260264.00000000 233482144.00000000 96082.40625000  7532597.50000000 5952800.00000000 
0.02400    146498096.00000000 91508408.00000000 231566704.00000000 95083.96875000  7462140.50000000 5897412.50000000 
0.02500    145237664.00000000 90732312.00000000 229588144.00000000 94053.76562500  7389388.50000000 5840292.00000000 
0.02600    143937616.00000000 89931496.00000000 227548640.00000000 92993.86718750  7314479.00000000 5781396.50000000 
0.02700    142601616.00000000 89107960.00000000 225450016.00000000 91905.15625000  7237481.00000000 5720880.00000000 
0.02800    141228496.00000000 88262088.00000000 223294544.00000000 90789.09375000  7158453.00000000 5658780.50000000 
0.02900    139821712.00000000 87395056.00000000 221084224.00000000 89647.28125000  7077508.00000000 5595161.00000000 
0.03000    138381344.00000000 86506840.00000000 218822976.00000000 88480.67187500  6994741.00000000 5530106.00000000 
0.03100    136909152.00000000 85599480.00000000 216511536.00000000 87291.33593750  6910230.50000000 5463664.00000000 
0.03200    135406976.00000000 84673144.00000000 214151792.00000000 86079.64843750  6824094.50000000 5395908.50000000 
0.03300    133876704.00000000 83729528.00000000 211748352.00000000 84847.78906250  6736386.50000000 5326996.50000000 
0.03400    132318832.00000000 82769184.00000000 209301936.00000000 83596.96875000  6647258.50000000 5256892.50000000 
0.03500    130735768.00000000 81792928.00000000 206815728.00000000 82328.97656250  6556741.50000000 5185733.00000000 
0.03600    129129480.00000000 80801880.00000000 204291872.00000000 81045.15625000  6464973.00000000 5113564.00000000 
0.03700    127499704.00000000 79797096.00000000 201732848.00000000 79746.04687500  6372025.50000000 5040483.00000000 
0.03800    125850472.00000000 78778864.00000000 199141536.00000000 78434.14062500  6278046.00000000 4966561.00000000 
0.03900    124181600.00000000 77749424.00000000 196519168.00000000 77111.10156250  6183098.00000000 4891868.00000000 
0.04000    122495368.00000000 76708800.00000000 193868912.00000000 75776.53125000  6087255.00000000 4816475.50000000 
0.04100    120793464.00000000 75658120.00000000 191195376.00000000 74434.07031250  5990636.00000000 4740507.50000000 
0.04200    119076808.00000000 74598488.00000000 188498032.00000000 73084.18750000  5893340.50000000 4663935.00000000 
0.04300    117348456.00000000 73530616.00000000 185780720.00000000 71728.32031250  5795470.00000000 4586943.00000000 
0.04400    115607712.00000000 72456280.00000000 183045168.00000000 70368.01562500  5697118.00000000 4509563.00000000 
0.04500    113858432.00000000 71376384.00000000 180295616.00000000 69004.40625000  5598366.50000000 4431844.50000000 
0.04600    112101184.00000000 70290824.00000000 177534768.00000000 67638.95312500  5499302.50000000 4353871.00000000 
0.04700    110337920.00000000 69201328.00000000 174761600.00000000 66273.25781250  5400034.00000000 4275769.50000000 
0.04800    108569448.00000000 68108928.00000000 171980672.00000000 64908.34765625  5300648.00000000 4197537.00000000 
0.04900    106797520.00000000 67013712.00000000 169195248.00000000 63545.37890625  5201263.00000000 4119263.75000000 
0.05000    105024640.00000000 65917252.00000000 166406752.00000000 62185.96093750  5101896.50000000 4041045.75000000 
0.05100    103250720.00000000 64820580.00000000 163616784.00000000 60831.14843750  5002702.00000000 3962927.50000000 
0.05200    101477896.00000000 63724452.00000000 160828560.00000000 59482.12109375  4903726.00000000 3884992.00000000 
0.05300    99707704.00000000 62629568.00000000 158044768.00000000 58140.43359375  4805051.50000000 3807288.00000000 
0.05400    97941400.00000000 61536868.00000000 155266192.00000000 56806.36718750  4706796.50000000 3729899.00000000 
0.05500    96180632.00000000 60447372.00000000 152495424.00000000 55481.69921875  4609004.50000000 3652831.75000000 
0.05600    94426360.00000000 59361580.00000000 149735120.00000000 54167.56640625  4511748.00000000 3576223.75000000 
0.05700    92680352.00000000 58280412.00000000 146987872.00000000 52864.53515625  4415110.00000000 3500081.25000000 
0.05800    90943384.00000000 57204872.00000000 144253632.00000000 51573.76953125  4319167.00000000 3424475.25000000 
0.05900    89216464.00000000 56135776.00000000 141536160.00000000 50296.60546875  4224018.50000000 3349454.25000000 
0.06000    87501536.00000000 55073204.00000000 138836416.00000000 49033.16796875  4129638.50000000 3275072.75000000 
0.06100    85799424.00000000 54018560.00000000 136155280.00000000 47784.91796875  4036200.75000000 3201376.00000000 
0.06200    84110544.00000000 52972200.00000000 133497456.00000000 46552.39453125  3943696.25000000 3128443.00000000 
0.06300    82437312.00000000 51934436.00000000 130861920.00000000 45336.52734375  3852202.75000000 3056268.50000000 
0.06400    80779312.00000000 50906456.00000000 128251024.00000000 44137.76953125  3761756.25000000 2984938.00000000 
0.06500    79138600.00000000 49888980.00000000 125665864.00000000 42957.50781250  3672431.25000000 2914483.00000000 
0.06600    77515720.00000000 48882236.00000000 123109264.00000000 41795.49218750  3584290.25000000 2844923.75000000 
0.06700    75911632.00000000 47886432.00000000 120581976.00000000 40652.69531250  3497353.00000000 2776304.50000000 
0.06800    74326728.00000000 46902892.00000000 118084448.00000000 39529.64843750  3411659.00000000 2708679.50000000 
0.06900    72763040.00000000 45931596.00000000 115619424.00000000 38426.98437500  3327286.50000000 2642073.50000000 
0.07000    71219832.00000000 44973108.00000000 113186968.00000000 37345.01171875  3244237.50000000 2576495.75000000 
0.07100    69698160.00000000 44028048.00000000 110788248.00000000 36284.23437500  3162571.25000000 2511998.75000000 
0.07200    68199424.00000000 43096296.00000000 108425056.00000000 35244.65625000  3082275.00000000 2448587.00000000 
0.07300    66724128.00000000 42179176.00000000 106098112.00000000 34226.87890625  3003461.00000000 2386307.50000000 
0.07400    65271916.00000000 41275908.00000000 103807928.00000000 33231.52734375  2926088.25000000 2325181.50000000 
0.07500    63843956.00000000 40387784.00000000 101555248.00000000 32258.45898438  2850176.75000000 2265200.25000000 
0.07600    62440728.00000000 39515004.00000000 99341208.00000000 31307.43164062  2775788.25000000 2206398.00000000 
0.07700    61062772.00000000 38657164.00000000 97166912.00000000 30379.39062500  2702932.00000000 2148775.25000000 
0.07800    59710468.00000000 37814972.00000000 95032480.00000000 29474.07031250  2631599.75000000 2092378.50000000 
0.07900    58383412.00000000 36988440.00000000 92937752.00000000 28591.65234375  2561804.75000000 2037168.75000000 
0.08000    57082980.00000000 36177988.00000000 90884888.00000000 27731.74804688  2493583.50000000 1983202.75000000 
0.08100    55808860.00000000 35383476.00000000 88872072.00000000 26894.96289062  2426936.25000000 1930458.50000000 
0.08200    54561020.00000000 34605672.00000000 86901024.00000000 26080.74609375  2361835.50000000 1878938.37500000 
0.08300    53340000.00000000 33843808.00000000 84972856.00000000 25289.41015625  2298329.75000000 1828651.75000000 
0.08400    52145904.00000000 33098632.00000000 83085472.00000000 24520.45898438  2236382.75000000 1779604.37500000 
0.08500    50978760.00000000 32370074.00000000 81241328.00000000 23774.06640625  2176019.00000000 1731780.12500000 
0.08600    49838328.00000000 31657710.00000000 79438208.00000000 23049.86132812  2117200.00000000 1685189.25000000 
0.08700    48725136.00000000 30962254.00000000 77678992.00000000 22347.79296875  2059952.25000000 1639815.00000000 
0.08800    47638648.00000000 30282990.00000000 75960656.00000000 21667.25195312  2004237.62500000 1595653.12500000 
0.08900    46579140.00000000 29620426.00000000 74284520.00000000 21008.25976562  1950048.37500000 1552707.12500000 
0.09000    45546204.00000000 28974350.00000000 72650440.00000000 20370.61523438  1897391.62500000 1510953.87500000 
0.09100    44539924.00000000 28344620.00000000 71057984.00000000 19753.69140625  1846246.12500000 1470378.12500000 
0.09200    43559732.00000000 27730950.00000000 69506936.00000000 19157.33789062  1796576.25000000 1430981.62500000 
0.09300    42606060.00000000 27133466.00000000 67997192.00000000 18581.14843750  1748401.50000000 1392727.50000000 
0.09400    41678300.00000000 26552044.00000000 66527460.00000000 18024.56835938  1701645.00000000 1355614.50000000 
0.09500    40775504.00000000 25986300.00000000 65098116.00000000 17487.46679688  1656318.75000000 1319626.62500000 
0.09600    39898624.00000000 25436228.00000000 63709612.00000000 16969.29101562  1612400.62500000 1284740.87500000 
0.09700    39046656.00000000 24901704.00000000 62359432.00000000 16469.66992188  1569856.25000000 1250947.50000000 
0.09800    38219360.00000000 24382160.00000000 61048312.00000000 15988.01757812  1528665.75000000 1218199.12500000 
0.09900    37415812.00000000 23877758.00000000 59775072.00000000 15523.98339844  1488801.12500000 1186507.87500000 
0.10000    36636584.00000000 23388186.00000000 58539284.00000000 15077.04492188  1450224.12500000 1155838.25000000 
0.10100    35880828.00000000 22912958.00000000 57340332.00000000 14646.64550781  1412905.12500000 1126160.25000000 
0.10200    35147592.00000000 22451992.00000000 56177872.00000000 14232.22460938  1376828.87500000 1097466.50000000 
0.10300    34437424.00000000 22004956.00000000 55050484.00000000 13833.64941406  1341953.87500000 1069709.37500000 
0.10400    33748784.00000000 21571408.00000000 53957504.00000000 13449.96289062  1308253.12500000 1042878.50000000 
0.10500    33081522.00000000 21151454.00000000 52898920.00000000 13081.05175781  1275691.50000000 1016953.00000000 
0.10600    32435576.00000000 20744328.00000000 51873280.00000000 12726.07812500  1244235.62500000 991889.37500000 
0.10700    31809924.00000000 20350086.00000000 50879904.00000000 12384.74902344  1213844.50000000 967693.62500000 
0.10800    31204274.00000000 19968042.00000000 49917924.00000000 12056.48632812  1184508.25000000 944303.75000000 
0.10900    30618020.00000000 19598218.00000000 48986284.00000000 11740.63671875  1156162.25000000 921715.31250000 
0.11000    30050330.00000000 19240096.00000000 48084800.00000000 11436.96679688  1128794.50000000 899896.18750000 
0.11100    29501308.00000000 18893344.00000000 47211880.00000000 11144.71191406  1102362.25000000 878820.75000000 
0.11200    28969768.00000000 18557618.00000000 46366824.00000000 10863.56152344  1076827.62500000 858457.06250000 
0.11300    28455438.00000000 18232596.00000000 45548892.00000000 10592.88476562  1052169.12500000 838786.43750000 
0.11400    27957614.00000000 17917904.00000000 44757100.00000000 10332.31054688  1028347.12500000 819777.62500000 
0.11500    27475798.00000000 17613242.00000000 43990764.00000000 10081.30371094  1005328.87500000 801404.18750000 
0.11600    27009588.00000000 17318072.00000000 43248728.00000000 9839.43066406   983079.87500000 783644.25000000 
0.11700    26557926.00000000 17032428.00000000 42530408.00000000 9606.22851562   961564.18750000 766470.81250000 
0.11800    26120668.00000000 16755512.00000000 41834388.00000000 9381.18164062   940756.87500000 749849.00000000 
0.11900    25696930.00000000 16487278.00000000 41159936.00000000 9163.88378906   920613.25000000 733772.75000000 
0.12000    25286400.00000000 16227176.00000000 40506276.00000000 8953.94433594   901115.56250000 718201.37500000 
0.12100    24888374.00000000 15975130.00000000 39872848.00000000 8750.97265625   882227.56250000 703117.68750000 
0.12200    24502566.00000000 15730688.00000000 39258480.00000000 8554.62011719   863922.50000000 688495.93750000 
0.12300    24128098.00000000 15493328.00000000 38662380.00000000 8364.36132812   846173.25000000 674317.56250000 
0.12400    23764508.00000000 15262819.00000000 38083184.00000000 8179.92968750   828941.43750000 660546.81250000 
0.12500    23411484.00000000 15038981.00000000 37520860.00000000 8000.86132812   812204.93750000 647178.12500000 
0.12600    23068280.00000000 14821347.00000000 36974272.00000000 7826.98388672   795944.18750000 634193.56250000 
0.12700    22734494.00000000 14609716.00000000 36442904.00000000 7657.83837891   780121.43750000 621551.18750000 
0.12800    22409554.00000000 14403690.00000000 35924916.00000000 7493.22265625   764714.56250000 609248.25000000 
0.12900    22093244.00000000 14202995.00000000 35421096.00000000 7332.74707031   749704.37500000 597257.68750000 
0.13000    21784728.00000000 14007309.00000000 34929500.00000000 7176.22656250   735065.56250000 585566.62500000 
0.13100    21483558.00000000 13816390.00000000 34450096.00000000 7023.27832031   720771.56250000 574154.37500000 
0.13200    21189428.00000000 13629971.00000000 33981404.00000000 6873.74121094   706810.37500000 563005.37500000 
0.13300    20902236.00000000 13447819.00000000 33523974.00000000 6727.38818359   693151.06250000 552106.06250000 
0.13400    20621062.00000000 13269486.00000000 33076224.00000000 6583.98779297   679780.75000000 541432.18750000 
0.13500    20345594.00000000 13094993.00000000 32637620.00000000 6443.39404297   666677.00000000 530976.62500000 
0.13600    20075646.00000000 12923910.00000000 32207814.00000000 6305.29394531   653832.43750000 520726.96875000 
0.13700    19810746.00000000 12756048.00000000 31786190.00000000 6169.58447266   641216.68750000 510661.78125000 
0.13800    19550634.00000000 12591312.00000000 31371912.00000000 6036.14062500   628819.93750000 500776.53125000 
0.13900    19294842.00000000 12429224.00000000 30964816.00000000 5904.81787109   616639.37500000 491060.75000000 
0.14000    19043150.00000000 12269923.00000000 30564086.00000000 5775.47021484   604642.62500000 481497.09375000 
0.14100    18795186.00000000 12112966.00000000 30169608.00000000 5647.97021484   592827.75000000 472080.31250000 
0.14200    18550710.00000000 11958221.00000000 29780600.00000000 5522.29980469   581180.06250000 462798.68750000 
0.14300    18309366.00000000 11805627.00000000 29396752.00000000 5398.23974609   569694.56250000 453646.31250000 
0.14400    18071090.00000000 11654842.00000000 29017494.00000000 5275.75683594   558357.50000000 444614.12500000 
0.14500    17835362.00000000 11505820.00000000 28642832.00000000 5154.86474609   547159.00000000 435694.56250000 
0.14600    17602352.00000000 11358496.00000000 28272116.00000000 5035.43115234   536097.50000000 426882.15625000 
0.14700    17371554.00000000 11212658.00000000 27905150.00000000 4917.43603516   525158.18750000 418172.18750000 
0.14800    17142712.00000000 11068086.00000000 27541376.00000000 4800.84765625   514336.46875000 409557.75000000 
0.14900    16915914.00000000 10924756.00000000 27180696.00000000 4685.64794922   503628.59375000 401031.53125000 
0.15000    16690939.00000000 10782583.00000000 26823060.00000000 4571.77880859   493029.84375000 392595.40625000 
0.15100    16467464.00000000 10641477.00000000 26467954.00000000 4459.27148438   482538.37500000 384243.25000000 
0.15200    16245569.00000000 10501409.00000000 26115152.00000000 4348.17529297   472151.06250000 375975.50000000 
0.15300    16025045.00000000 10362162.00000000 25764738.00000000 4238.42089844   461860.37500000 367783.68750000 
0.15400    15805672.00000000 10223692.00000000 25416168.00000000 4130.04833984   451664.46875000 359672.34375000 
0.15500    15587626.00000000 10086021.00000000 25069624.00000000 4023.08398438   441569.56250000 351635.53125000 
0.15600    15370575.00000000 9948993.00000000 24724710.00000000 3917.52978516   431563.53125000 343673.34375000 
0.15700    15154718.00000000 9812702.00000000 24381682.00000000 3813.44335938   421661.78125000 335789.43750000 
0.15800    14939693.00000000 9676964.00000000 24039818.00000000 3710.82910156   411847.59375000 327978.25000000 
0.15900    14725668.00000000 9541808.00000000 23699650.00000000 3609.78100586   402134.84375000 320244.28125000 
0.16000    14512570.00000000 9407212.00000000 23360852.00000000 3510.28662109   392515.06250000 312585.03125000 
0.16100    14300349.00000000 9273249.00000000 23023626.00000000 3412.41479492   382998.43750000 305004.50000000 
0.16200    14088970.00000000 9139773.00000000 22687688.00000000 3316.20483398   373580.03125000 297503.25000000 
0.16300    13878558.00000000 9006823.00000000 22353150.00000000 3221.68627930   364264.50000000 290080.68750000 
0.16400    13669052.00000000 8874365.00000000 22019914.00000000 3128.93579102   355054.84375000 282741.12500000 
0.16500    13460405.00000000 8742503.00000000 21688148.00000000 3037.94677734   345948.31250000 275485.31250000 
0.16600    13252723.00000000 8611185.00000000 21357738.00000000 2948.85351562   336959.75000000 268316.06250000 
0.16700    13045919.00000000 8480343.00000000 21028738.00000000 2861.60913086   328080.71875000 261232.42187500 
0.16800    12840086.00000000 8350103.00000000 20701216.00000000 2776.29785156   319314.21875000 254239.82812500 
0.16900    12635419.00000000 8220538.50000000 20375492.00000000 2692.99218750   310673.43750000 247341.29687500 
0.17000    12431768.00000000 8091531.00000000 20051240.00000000 2611.70874023   302150.59375000 240538.09375000 
