# SAXS profile: number of points = 501, q_min = 0, q_max = 0.5, delta_q = 0.001
#    q    intensity 
0.00000    162231760.00000000 101202352.00000000 256270864.00000000 101134.36718750 8101335.50000000 6398395.00000000 
0.00100    162195808.00000000 101177680.00000000 256208784.00000000 101101.26562500 8099070.00000000 6396589.00000000 
0.00200    162086320.00000000 101105608.00000000 256026080.00000000 101004.58593750 8092179.50000000 6391222.00000000 
0.00300    161896944.00000000 100985968.00000000 255719936.00000000 100844.17968750 8080753.50000000 6382288.50000000 
0.00400    161621776.00000000 100818480.00000000 255292064.00000000 100618.87500000 8064816.50000000 6369732.00000000 
0.00500    161267648.00000000 100602336.00000000 254742080.00000000 100330.25781250 8044294.50000000 6353680.50000000 
0.00600    160839808.00000000 100338832.00000000 254073664.00000000 99978.73437500  8019364.00000000 6334100.00000000 
0.00700    160332320.00000000 100030848.00000000 253285840.00000000 99565.72656250  7990061.00000000 6311033.00000000 
0.00800    159752656.00000000 99676872.00000000 252380784.00000000 99091.39843750  7956352.00000000 6284578.00000000 
0.00900    159101504.00000000 99277976.00000000 251360640.00000000 98556.82812500  7918421.00000000 6254823.00000000 
0.01000    158381280.00000000 98833944.00000000 250224960.00000000 97964.67187500  7876266.00000000 6221681.50000000 
0.01100    157587536.00000000 98344272.00000000 248977936.00000000 97315.09375000  7829988.50000000 6185368.00000000 
0.01200    156719856.00000000 97812576.00000000 247623088.00000000 96609.55468750  7779737.00000000 6145893.00000000 
0.01300    155786288.00000000 97238784.00000000 246159328.00000000 95850.07812500  7725586.00000000 6103397.00000000 
0.01400    154786816.00000000 96624048.00000000 244592064.00000000 95038.76562500  7667625.00000000 6057837.00000000 
0.01500    153723584.00000000 95970840.00000000 242922160.00000000 94176.41406250  7605965.50000000 6009439.50000000 
0.01600    152594080.00000000 95277232.00000000 241154864.00000000 93265.76562500  7540777.50000000 5958251.00000000 
0.01700    151406464.00000000 94546144.00000000 239289568.00000000 92308.67187500  7472219.50000000 5904401.50000000 
0.01800    150159376.00000000 93779616.00000000 237333792.00000000 91308.12500000  7400334.50000000 5847908.50000000 
0.01900    148855072.00000000 92977544.00000000 235288464.00000000 90264.26562500  7325393.50000000 5789017.00000000 
0.02000    147496976.00000000 92142216.00000000 233158208.00000000 89181.17968750  7247378.00000000 5727735.00000000 
0.02100    146086768.00000000 91274056.00000000 230944016.00000000 88060.91406250  7166572.50000000 5664195.00000000 
0.02200    144626944.00000000 90375584.00000000 228653312.00000000 86904.91406250  7083057.00000000 5598610.50000000 
0.02300    143119216.00000000 89447096.00000000 226287104.00000000 85716.34375000  6997076.00000000 5530968.50000000 
0.02400    141567360.00000000 88491008.00000000 223850576.00000000 84497.95312500  6908696.50000000 5461490.00000000 
0.02500    139972864.00000000 87508824.00000000 221347936.00000000 83251.03125000  6818113.50000000 5390309.00000000 
0.02600    138337936.00000000 86501128.00000000 218781840.00000000 81979.12500000  6725553.50000000 5317493.00000000 
0.02700    136667648.00000000 85471016.00000000 216157408.00000000 80684.41406250  6631108.50000000 5243232.00000000 
0.02800    134962512.00000000 84420016.00000000 213479728.00000000 79369.14843750  6534923.00000000 5167569.00000000 
0.02900    133225616.00000000 83347544.00000000 210750672.00000000 78037.12500000  6437256.50000000 5090751.50000000 
0.03000    131459480.00000000 82258000.00000000 207975632.00000000 76688.42187500  6338232.00000000 5012799.50000000 
0.03100    129667120.00000000 81150936.00000000 205157936.00000000 75328.20312500  6237957.00000000 4933951.00000000 
0.03200    127850744.00000000 80030240.00000000 202304288.00000000 73956.06250000  6136727.00000000 4854223.00000000 
0.03300    126012808.00000000 78895256.00000000 199415728.00000000 72575.87500000  6034576.50000000 4773844.00000000 
0.03400    124156976.00000000 77748408.00000000 196497760.00000000 71191.26562500  5931767.50000000 4692906.50000000 
0.03500    122285328.00000000 76591440.00000000 193553808.00000000 69802.49218750  5828399.00000000 4611527.50000000 
0.03600    120400736.00000000 75425304.00000000 190588480.00000000 68412.21093750  5724574.00000000 4529764.00000000 
0.03700    118505152.00000000 74251680.00000000 187605488.00000000 67023.03125000  5620603.50000000 4447833.00000000 
0.03800    116600968.00000000 73073232.00000000 184609520.00000000 65636.25781250  5516475.50000000 4365814.50000000 
0.03900    114691272.00000000 71890296.00000000 181603632.00000000 64254.26562500  5412385.00000000 4283822.50000000 
0.04000    112778464.00000000 70704824.00000000 178592256.00000000 62879.29296875  5308503.00000000 4201918.50000000 
0.04100    110864584.00000000 69518800.00000000 175577312.00000000 61512.94140625  5204946.00000000 4120285.75000000 
0.04200    108951952.00000000 68332720.00000000 172565344.00000000 60156.59765625  5101852.50000000 4038995.00000000 
0.04300    107042888.00000000 67148288.00000000 169556880.00000000 58812.51562500  4999283.00000000 3958141.75000000 
0.04400    105139576.00000000 65965852.00000000 166557632.00000000 57482.39453125  4897465.50000000 3877800.25000000 
0.04500    103243696.00000000 64788504.00000000 163569392.00000000 56166.33984375  4796425.00000000 3798087.50000000 
0.04600    101356776.00000000 63616616.00000000 160595776.00000000 54867.39843750  4696269.50000000 3719079.25000000 
0.04700    99483432.00000000 62451740.00000000 157638880.00000000 53585.73046875  4597185.00000000 3640848.00000000 
0.04800    97621936.00000000 61294092.00000000 154703840.00000000 52322.81640625  4499148.50000000 3563456.00000000 
0.04900    95776072.00000000 60145864.00000000 151792288.00000000 51079.75000000  4402306.50000000 3487039.75000000 
0.05000    93947168.00000000 59007332.00000000 148907952.00000000 49857.05078125  4306754.50000000 3411571.00000000 
0.05100    92137200.00000000 57879712.00000000 146049888.00000000 48656.23828125  4212549.00000000 3337155.75000000 
0.05200    90346208.00000000 56764248.00000000 143222480.00000000 47478.13671875  4119792.75000000 3263836.50000000 
0.05300    88576360.00000000 55661612.00000000 140430256.00000000 46322.41796875  4028451.25000000 3191701.50000000 
0.05400    86830248.00000000 54572416.00000000 137670992.00000000 45190.46484375  3938668.25000000 3120742.00000000 
0.05500    85107064.00000000 53497436.00000000 134949568.00000000 44082.62109375  3850496.00000000 3051023.50000000 
0.05600    83409080.00000000 52437928.00000000 132266024.00000000 42999.21093750  3763918.50000000 2982612.00000000 
0.05700    81736936.00000000 51393996.00000000 129624232.00000000 41940.56250000  3679002.00000000 2915476.75000000 
0.05800    80092256.00000000 50366628.00000000 127023656.00000000 40906.41015625  3595815.50000000 2849656.75000000 
0.05900    78474968.00000000 49355892.00000000 124466528.00000000 39897.38671875  3514348.25000000 2785200.00000000 
0.06000    76886768.00000000 48362760.00000000 121954584.00000000 38913.80468750  3434657.75000000 2722144.50000000 
0.06100    75326944.00000000 47386908.00000000 119487448.00000000 37954.72656250  3356665.50000000 2660430.75000000 
0.06200    73797296.00000000 46430124.00000000 117067040.00000000 37021.05859375  3280521.75000000 2600125.00000000 
0.06300    72298072.00000000 45491540.00000000 114695128.00000000 36112.02734375  3206105.50000000 2541250.25000000 
0.06400    70829040.00000000 44571912.00000000 112370168.00000000 35227.39843750  3133451.50000000 2483740.50000000 
0.06500    69391304.00000000 43671168.00000000 110093992.00000000 34366.97656250  3062618.75000000 2427605.75000000 
0.06600    67984896.00000000 42789956.00000000 107867928.00000000 33530.94531250  2993524.25000000 2372924.50000000 
0.06700    66608920.00000000 41928028.00000000 105690448.00000000 32717.77539062  2926194.50000000 2319567.50000000 
0.06800    65265772.00000000 41085896.00000000 103562024.00000000 31928.18359375  2860607.25000000 2267615.00000000 
0.06900    63953520.00000000 40262992.00000000 101484672.00000000 31161.28515625  2796728.75000000 2217011.25000000 
0.07000    62673256.00000000 39460148.00000000 99457024.00000000 30416.72656250  2734559.00000000 2167759.25000000 
0.07100    61424136.00000000 38676424.00000000 97477680.00000000 29693.79882812  2674068.25000000 2119813.25000000 
0.07200    60206212.00000000 37912592.00000000 95548488.00000000 28991.40234375  2615219.00000000 2073170.87500000 
0.07300    59019184.00000000 37167888.00000000 93669160.00000000 28310.18554688  2557984.50000000 2027824.12500000 
0.07400    57863456.00000000 36442672.00000000 91836664.00000000 27648.86718750  2502343.00000000 1983716.37500000 
0.07500    56738336.00000000 35736356.00000000 90054712.00000000 27006.65625000  2448233.25000000 1940840.25000000 
0.07600    55642940.00000000 35049184.00000000 88318784.00000000 26383.12890625  2395667.25000000 1899160.87500000 
0.07700    54577300.00000000 34380540.00000000 86630504.00000000 25778.00976562  2344546.75000000 1858638.62500000 
0.07800    53541036.00000000 33729992.00000000 84988864.00000000 25190.39062500  2294864.50000000 1819253.87500000 
0.07900    52533768.00000000 33098720.00000000 83392704.00000000 24619.66601562  2246574.00000000 1780996.75000000 
0.08000    51554340.00000000 32484280.00000000 81841536.00000000 24065.05078125  2199638.50000000 1743809.12500000 
0.08100    50602280.00000000 31887606.00000000 80334664.00000000 23526.12500000  2154053.75000000 1707663.37500000 
0.08200    49677804.00000000 31308002.00000000 78870200.00000000 23002.18359375  2109709.00000000 1672525.50000000 
0.08300    48780024.00000000 30745224.00000000 77447968.00000000 22492.79882812  2066599.00000000 1638356.12500000 
0.08400    47907752.00000000 30198704.00000000 76067312.00000000 21997.40625000  2024679.62500000 1605130.12500000 
0.08500    47060932.00000000 29668112.00000000 74727008.00000000 21515.23828125  1983903.87500000 1572839.62500000 
0.08600    46238520.00000000 29153444.00000000 73424896.00000000 21045.98828125  1944238.75000000 1541415.50000000 
0.08700    45440044.00000000 28653684.00000000 72161720.00000000 20588.92187500  1905654.37500000 1510837.50000000 
0.08800    44664652.00000000 28168692.00000000 70935472.00000000 20143.72460938  1868076.62500000 1481078.62500000 
0.08900    43911888.00000000 27698136.00000000 69744456.00000000 19709.52929688  1831485.37500000 1452112.00000000 
0.09000    43180868.00000000 27241282.00000000 68588840.00000000 19286.38476562  1795855.00000000 1423897.87500000 
0.09100    42470816.00000000 26797996.00000000 67467024.00000000 18873.48632812  1761122.87500000 1396398.75000000 
0.09200    41780984.00000000 26367674.00000000 66377604.00000000 18470.40429688  1727275.62500000 1369596.12500000 
0.09300    41111220.00000000 25949818.00000000 65318512.00000000 18076.98828125  1694261.62500000 1343482.62500000 
0.09400    40460000.00000000 25544356.00000000 64290972.00000000 17692.76367188  1662044.50000000 1317970.62500000 
0.09500    39827068.00000000 25150208.00000000 63292260.00000000 17317.23437500  1630591.12500000 1293098.62500000 
0.09600    39212060.00000000 24767396.00000000 62321700.00000000 16950.35156250  1599892.12500000 1268805.87500000 
0.09700    38613764.00000000 24395402.00000000 61377652.00000000 16591.24218750  1569904.62500000 1245082.37500000 
0.09800    38031560.00000000 24033776.00000000 60459532.00000000 16240.36328125  1540587.75000000 1221899.75000000 
0.09900    37464876.00000000 23682062.00000000 59566488.00000000 15896.92382812  1511911.87500000 1199223.50000000 
0.10000    36912724.00000000 23339988.00000000 58697324.00000000 15560.74707031  1483875.87500000 1177046.12500000 
0.10100    36375036.00000000 23006632.00000000 57850660.00000000 15231.66601562  1456419.75000000 1155335.00000000 
0.10200    35850588.00000000 22682114.00000000 57025884.00000000 14909.31250000  1429542.00000000 1134092.62500000 
0.10300    35339616.00000000 22365942.00000000 56221212.00000000 14593.70410156  1403231.75000000 1113280.00000000 
0.10400    34840584.00000000 22057506.00000000 55436688.00000000 14284.55468750  1377408.62500000 1092869.87500000 
0.10500    34353888.00000000 21756776.00000000 54671012.00000000 13981.69042969  1352129.12500000 1072884.75000000 
0.10600    33878280.00000000 21462766.00000000 53922876.00000000 13684.76953125  1327314.62500000 1053262.75000000 
0.10700    33412576.00000000 21175962.00000000 53192132.00000000 13393.95117188  1302974.37500000 1034018.18750000 
0.10800    32957570.00000000 20895504.00000000 52477344.00000000 13108.89843750  1279090.75000000 1015126.12500000 
0.10900    32511866.00000000 20621056.00000000 51777492.00000000 12829.47558594  1255615.87500000 996581.87500000 
0.11000    32075552.00000000 20352372.00000000 51092076.00000000 12555.63476562  1232581.50000000 978359.31250000 
0.11100    31647524.00000000 20088834.00000000 50420876.00000000 12287.18164062  1209944.87500000 960459.12500000 
0.11200    31227898.00000000 19830714.00000000 49762244.00000000 12024.04394531  1187692.75000000 942857.75000000 
0.11300    30815848.00000000 19577500.00000000 49115760.00000000 11766.19628906  1165817.75000000 925559.81250000 
0.11400    30411416.00000000 19328652.00000000 48480656.00000000 11513.35058594  1144315.50000000 908551.93750000 
0.11500    30013286.00000000 19084130.00000000 47856784.00000000 11265.56933594  1123163.00000000 891812.43750000 
0.11600    29621666.00000000 18843806.00000000 47242988.00000000 11022.75976562  1102359.50000000 875343.50000000 
0.11700    29236500.00000000 18606902.00000000 46639008.00000000 10784.65917969  1081887.50000000 859136.81250000 
0.11800    28857024.00000000 18373782.00000000 46043456.00000000 10551.35644531  1061728.12500000 843183.50000000 
0.11900    28483054.00000000 18143826.00000000 45456720.00000000 10322.63769531  1041893.18750000 827474.62500000 
0.12000    28113888.00000000 17917126.00000000 44877796.00000000 10098.53320312  1022357.25000000 812001.56250000 
0.12100    27749806.00000000 17693396.00000000 44306956.00000000 9878.87500000   1003128.87500000 796765.62500000 
0.12200    27390134.00000000 17472356.00000000 43742668.00000000 9663.53808594   984184.50000000 781760.31250000 
0.12300    27034816.00000000 17253872.00000000 43185312.00000000 9452.60351562   965531.75000000 766968.06250000 
0.12400    26683556.00000000 17037710.00000000 42633648.00000000 9245.85546875   947155.62500000 752395.68750000 
0.12500    26335972.00000000 16823614.00000000 42087884.00000000 9043.20605469   929050.06250000 738035.00000000 
0.12600    25991918.00000000 16611735.00000000 41547836.00000000 8844.62695312   911208.50000000 723883.50000000 
0.12700    25651476.00000000 16401881.00000000 41012632.00000000 8649.91210938   893632.43750000 709938.25000000 
0.12800    25314170.00000000 16193735.00000000 40482488.00000000 8459.15527344   876312.93750000 696185.81250000 
0.12900    24979658.00000000 15987382.00000000 39957184.00000000 8272.08007812   859236.00000000 682629.93750000 
0.13000    24648112.00000000 15782594.00000000 39435828.00000000 8088.72802734   842413.06250000 669261.25000000 
0.13100    24319426.00000000 15579365.00000000 38918388.00000000 7908.94824219   825822.43750000 656083.62500000 
0.13200    23993194.00000000 15377590.00000000 38405128.00000000 7732.69580078   809470.06250000 643089.37500000 
0.13300    23669388.00000000 15177090.00000000 37895612.00000000 7559.87304688   793352.06250000 630277.12500000 
0.13400    23348034.00000000 14977869.00000000 37388968.00000000 7390.34228516   777465.62500000 617644.81250000 
0.13500    23028936.00000000 14779915.00000000 36886268.00000000 7224.11865234   761794.06250000 605185.56250000 
0.13600    22712008.00000000 14583035.00000000 36386580.00000000 7060.97753906   746352.62500000 592903.81250000 
0.13700    22397224.00000000 14387333.00000000 35889744.00000000 6901.00927734   731118.37500000 580783.06250000 
0.13800    22084542.00000000 14192657.00000000 35396196.00000000 6743.93359375   716101.81250000 568830.50000000 
0.13900    21773596.00000000 13999156.00000000 34905400.00000000 6589.80761719   701298.75000000 557048.50000000 
0.14000    21464818.00000000 13806602.00000000 34417560.00000000 6438.51855469   686698.31250000 545431.37500000 
0.14100    21157766.00000000 13615039.00000000 33932216.00000000 6290.05517578   672300.56250000 533964.62500000 
0.14200    20852924.00000000 13424524.00000000 33450152.00000000 6144.21337891   658108.12500000 522662.65625000 
0.14300    20549788.00000000 13234947.00000000 32970738.00000000 6001.13085938   644119.06250000 511518.53125000 
0.14400    20248720.00000000 13046400.00000000 32493774.00000000 5860.55810547   630315.81250000 500527.93750000 
0.14500    19949312.00000000 12858735.00000000 32019786.00000000 5722.49853516   616714.31250000 489692.59375000 
0.14600    19651762.00000000 12672142.00000000 31548482.00000000 5586.90283203   603304.06250000 479008.43750000 
0.14700    19356470.00000000 12486692.00000000 31079900.00000000 5453.73876953   590079.56250000 468478.34375000 
0.14800    19062644.00000000 12301987.00000000 30614300.00000000 5322.94726562   577048.56250000 458089.68750000 
0.14900    18770922.00000000 12118459.00000000 30151214.00000000 5194.44238281   564207.62500000 447855.62500000 
0.15000    18481152.00000000 11935996.00000000 29691404.00000000 5068.28564453   551539.75000000 437765.50000000 
0.15100    18193550.00000000 11754660.00000000 29234372.00000000 4944.36132812   539061.81250000 427819.93750000 
0.15200    17907998.00000000 11574439.00000000 28780728.00000000 4822.70458984   526768.25000000 418024.46875000 
0.15300    17624414.00000000 11395389.00000000 28329808.00000000 4703.19189453   514656.87500000 408371.50000000 
0.15400    17342714.00000000 11217485.00000000 27882076.00000000 4585.84423828   502720.78125000 398860.06250000 
0.15500    17063406.00000000 11040787.00000000 27437778.00000000 4470.68896484   490967.46875000 389495.31250000 
0.15600    16786364.00000000 10865366.00000000 26996698.00000000 4357.65234375   479390.00000000 380269.40625000 
0.15700    16511783.00000000 10691235.00000000 26559264.00000000 4246.75683594   467996.37500000 371188.78125000 
0.15800    16239250.00000000 10518477.00000000 26125192.00000000 4137.96875000   456772.50000000 362245.68750000 
0.15900    15969207.00000000 10347109.00000000 25695098.00000000 4031.35278320   445732.78125000 353447.78125000 
0.16000    15701511.00000000 10177105.00000000 25268244.00000000 3926.78149414   434862.50000000 344792.68750000 
0.16100    15436417.00000000 10008617.00000000 24845410.00000000 3824.35595703   424176.53125000 336277.00000000 
0.16200    15173675.00000000 9841576.00000000 24426724.00000000 3724.02197266   413661.43750000 327898.71875000 
0.16300    14913733.00000000 9676166.00000000 24011880.00000000 3625.80004883   403324.21875000 319665.21875000 
0.16400    14656535.00000000 9512338.00000000 23601318.00000000 3529.69213867   393166.65625000 311569.84375000 
0.16500    14401891.00000000 9350078.00000000 23194790.00000000 3435.65258789   383175.50000000 303614.56250000 
0.16600    14150094.00000000 9189454.00000000 22792686.00000000 3343.77880859   373367.81250000 295800.15625000 
0.16700    13901046.00000000 9030582.00000000 22394816.00000000 3253.94580078   363730.00000000 288127.40625000 
0.16800    13655016.00000000 8873324.00000000 22001284.00000000 3166.22436523   354267.25000000 280592.09375000 
0.16900    13411817.00000000 8718068.00000000 21612798.00000000 3080.63525391   344985.31250000 273197.81250000 
0.17000    13171657.00000000 8564490.00000000 21228550.00000000 2997.16162109   335871.46875000 265942.18750000 
