# SAXS profile: number of points = 501, q_min = 0, q_max = 0.5, delta_q = 0.001
#    q    intensity 
0.00000    162233904.00000000 101202536.00000000 256270096.00000000 111121.61718750 8491945.00000000 6706952.50000000 
0.00100    162199680.00000000 101179656.00000000 256213168.00000000 111088.44531250 8489710.00000000 6705192.50000000 
0.00200    162096608.00000000 101112544.00000000 256043104.00000000 110990.33593750 8483113.00000000 6699988.00000000 
0.00300    161917920.00000000 101001480.00000000 255757552.00000000 110825.91406250 8472012.00000000 6691269.00000000 
0.00400    161663536.00000000 100845736.00000000 255358496.00000000 110596.72656250 8456477.00000000 6679094.00000000 
0.00500    161336144.00000000 100645128.00000000 254849664.00000000 110302.85937500 8436566.00000000 6663466.00000000 
0.00600    160934720.00000000 100398800.00000000 254223312.00000000 109945.10156250 8412360.00000000 6644543.00000000 
0.00700    160462688.00000000 100112152.00000000 253491984.00000000 109524.26562500 8383832.00000000 6622160.50000000 
0.00800    159918656.00000000 99782136.00000000 252646384.00000000 109040.96093750 8351047.50000000 6596504.50000000 
0.00900    159309920.00000000 99410696.00000000 251692064.00000000 108495.99218750 8314101.00000000 6567516.00000000 
0.01000    158635648.00000000 98996360.00000000 250632144.00000000 107890.96093750 8273065.50000000 6535283.50000000 
0.01100    157891760.00000000 98539608.00000000 249467920.00000000 107225.95312500 8227910.50000000 6499910.00000000 
0.01200    157081824.00000000 98043280.00000000 248196480.00000000 106504.89062500 8178801.50000000 6461443.50000000 
0.01300    156203456.00000000 97505784.00000000 246826528.00000000 105725.79687500 8125864.50000000 6419897.00000000 
0.01400    155264576.00000000 96930072.00000000 245355488.00000000 104892.96093750 8069127.00000000 6375429.50000000 
0.01500    154263184.00000000 96316256.00000000 243787520.00000000 104007.47656250 8008724.50000000 6328033.50000000 
0.01600    153201456.00000000 95666144.00000000 242124736.00000000 103069.32031250 7944720.00000000 6277804.00000000 
0.01700    152080992.00000000 94979024.00000000 240369920.00000000 102083.07031250 7877278.00000000 6224903.00000000 
0.01800    150902240.00000000 94256552.00000000 238524528.00000000 101048.63281250 7806498.50000000 6169365.50000000 
0.01900    149669584.00000000 93499352.00000000 236593728.00000000 99969.26562500  7732492.00000000 6111303.00000000 
0.02000    148382496.00000000 92710632.00000000 234576160.00000000 98845.62500000  7655388.00000000 6050792.00000000 
0.02100    147043552.00000000 91889832.00000000 232479168.00000000 97681.05468750  7575291.50000000 5987984.50000000 
0.02200    145655216.00000000 91037520.00000000 230305024.00000000 96477.31250000  7492401.00000000 5922935.50000000 
0.02300    144219344.00000000 90156680.00000000 228053648.00000000 95236.59375000  7406843.50000000 5855709.00000000 
0.02400    142736912.00000000 89246952.00000000 225731872.00000000 93961.86718750  7318724.00000000 5786552.00000000 
0.02500    141213184.00000000 88310464.00000000 223340288.00000000 92653.57031250  7228144.50000000 5715466.50000000 
0.02600    139647536.00000000 87348224.00000000 220886112.00000000 91316.78906250  7135327.00000000 5642587.50000000 
0.02700    138040784.00000000 86361272.00000000 218368176.00000000 89951.07812500  7040470.00000000 5568117.00000000 
0.02800    136398288.00000000 85352392.00000000 215795008.00000000 88560.27343750  6943617.50000000 5492027.00000000 
0.02900    134722784.00000000 84321152.00000000 213165392.00000000 87147.41406250  6844964.50000000 5414516.50000000 
0.03000    133013624.00000000 83270320.00000000 210484656.00000000 85713.20312500  6744623.00000000 5335664.00000000 
0.03100    131274152.00000000 82200872.00000000 207758112.00000000 84261.11718750  6642816.50000000 5255699.00000000 
0.03200    129508792.00000000 81113376.00000000 204986160.00000000 82793.21875000  6539628.50000000 5174598.00000000 
0.03300    127716864.00000000 80010776.00000000 202173936.00000000 81311.78906250  6435294.00000000 5092569.00000000 
0.03400    125902752.00000000 78893664.00000000 199326512.00000000 79819.14843750  6329810.00000000 5009683.00000000 
0.03500    124067632.00000000 77763872.00000000 196446240.00000000 78317.92968750  6223533.00000000 4926091.50000000 
0.03600    122214752.00000000 76622536.00000000 193537424.00000000 76809.31250000  6116432.50000000 4841873.50000000 
0.03700    120345248.00000000 75470536.00000000 190600304.00000000 75297.29687500  6008706.00000000 4757179.00000000 
0.03800    118462672.00000000 74309816.00000000 187643040.00000000 73782.09375000  5900551.50000000 4672097.50000000 
0.03900    116568424.00000000 73140312.00000000 184667136.00000000 72266.04687500  5791996.00000000 4586717.50000000 
0.04000    114665296.00000000 71965016.00000000 181677248.00000000 70752.54687500  5683316.50000000 4501193.50000000 
0.04100    112754152.00000000 70785904.00000000 178674416.00000000 69242.83593750  5574585.00000000 4415595.50000000 
0.04200    110839088.00000000 69602440.00000000 175663568.00000000 67738.26562500  5465938.00000000 4330041.50000000 
0.04300    108921504.00000000 68417296.00000000 172648144.00000000 66241.05468750  5357491.00000000 4244657.50000000 
0.04400    107002968.00000000 67231440.00000000 169629360.00000000 64752.37500000  5249332.00000000 4159495.00000000 
0.04500    105085920.00000000 66045088.00000000 166614336.00000000 63274.93359375  5141627.00000000 4074670.25000000 
0.04600    103172064.00000000 64860856.00000000 163603376.00000000 61809.98437500  5034525.50000000 3990246.50000000 
0.04700    101263984.00000000 63679308.00000000 160598832.00000000 60358.84765625  4928066.00000000 3906373.25000000 
0.04800    99362680.00000000 62502128.00000000 157607328.00000000 58922.71093750  4822384.00000000 3823072.00000000 
0.04900    97471056.00000000 61329404.00000000 154628560.00000000 57503.43359375  4717596.50000000 3740441.25000000 
0.05000    95589680.00000000 60163184.00000000 151666464.00000000 56102.25000000  4613796.50000000 3658558.00000000 
0.05100    93720976.00000000 59004092.00000000 148722624.00000000 54719.84765625  4510995.50000000 3577515.50000000 
0.05200    91866264.00000000 57852864.00000000 145800320.00000000 53357.43359375  4409384.00000000 3497357.25000000 
0.05300    90026888.00000000 56711116.00000000 142901312.00000000 52016.05078125  4309009.00000000 3418160.25000000 
0.05400    88204952.00000000 55579108.00000000 140029184.00000000 50696.66406250  4209967.50000000 3339960.25000000 
0.05500    86402008.00000000 54458144.00000000 137185808.00000000 49400.20312500  4112230.50000000 3262823.25000000 
0.05600    84618096.00000000 53349396.00000000 134373136.00000000 48127.04296875  4016001.75000000 3186850.25000000 
0.05700    82855632.00000000 52253184.00000000 131594144.00000000 46878.88671875  3921277.25000000 3112016.25000000 
0.05800    81115472.00000000 51170140.00000000 128847800.00000000 45654.77734375  3828096.75000000 3038398.00000000 
0.05900    79399336.00000000 50101064.00000000 126138288.00000000 44456.02734375  3736512.00000000 2966036.25000000 
0.06000    77707952.00000000 49046920.00000000 123467360.00000000 43282.80468750  3646573.00000000 2894952.50000000 
0.06100    76041000.00000000 48007832.00000000 120835608.00000000 42135.60937500  3558363.50000000 2825213.50000000 
0.06200    74401440.00000000 46985208.00000000 118244912.00000000 41014.49609375  3471838.75000000 2756782.75000000 
0.06300    72788920.00000000 45978332.00000000 115696744.00000000 39919.84375000  3387072.50000000 2689746.00000000 
0.06400    71203984.00000000 44988764.00000000 113191768.00000000 38852.00390625  3304092.25000000 2624094.00000000 
0.06500    69647032.00000000 44016376.00000000 110731392.00000000 37810.48437500  3222904.75000000 2559852.00000000 
0.06600    68120784.00000000 43061904.00000000 108316704.00000000 36795.70703125  3143547.00000000 2497005.00000000 
0.06700    66623668.00000000 42125516.00000000 105948360.00000000 35807.10156250  3065984.75000000 2435630.50000000 
0.06800    65156272.00000000 41207512.00000000 103627328.00000000 34845.00781250  2990267.50000000 2375678.75000000 
0.06900    63719536.00000000 40308232.00000000 101354184.00000000 33908.99609375  2916387.75000000 2317146.75000000 
0.07000    62314416.00000000 39427696.00000000 99129184.00000000 32999.10546875  2844331.25000000 2260043.00000000 
0.07100    60940272.00000000 38566472.00000000 96953768.00000000 32114.46484375  2774089.25000000 2204382.25000000 
0.07200    59597204.00000000 37724512.00000000 94826984.00000000 31255.50195312  2705662.75000000 2150160.25000000 
0.07300    58285684.00000000 36901772.00000000 92749728.00000000 30421.19921875  2639063.00000000 2097341.50000000 
0.07400    57006248.00000000 36098580.00000000 90721552.00000000 29611.57812500  2574238.50000000 2045949.87500000 
0.07500    55757664.00000000 35314620.00000000 88743104.00000000 28826.10156250  2511174.25000000 1995936.25000000 
0.07600    54541028.00000000 34550268.00000000 86813976.00000000 28064.24218750  2449877.00000000 1947311.62500000 
0.07700    53356016.00000000 33805152.00000000 84934768.00000000 27325.43554688  2390301.25000000 1900030.25000000 
0.07800    52201640.00000000 33079894.00000000 83104184.00000000 26609.52539062  2332428.00000000 1854105.50000000 
0.07900    51078940.00000000 32373570.00000000 81323352.00000000 25915.45117188  2276216.75000000 1809485.62500000 
0.08000    49986812.00000000 31686396.00000000 79590336.00000000 25243.21875000  2221671.25000000 1766156.50000000 
0.08100    48925472.00000000 31018320.00000000 77905664.00000000 24591.85546875  2168694.00000000 1724124.00000000 
0.08200    47894076.00000000 30368832.00000000 76269128.00000000 23961.02343750  2117306.25000000 1683302.25000000 
0.08300    46892540.00000000 29737662.00000000 74678720.00000000 23349.79101562  2067478.87500000 1643709.25000000 
0.08400    45920404.00000000 29125372.00000000 73135520.00000000 22757.82031250  2019134.00000000 1605309.62500000 
0.08500    44977376.00000000 28530750.00000000 71638088.00000000 22184.62695312  1972256.87500000 1568055.37500000 
0.08600    44062848.00000000 27954182.00000000 70185672.00000000 21629.41015625  1926815.12500000 1531944.62500000 
0.08700    43176080.00000000 27395054.00000000 68777024.00000000 21091.57421875  1882744.62500000 1496921.87500000 
0.08800    42316968.00000000 26852840.00000000 67412640.00000000 20570.79296875  1840024.25000000 1462961.25000000 
0.08900    41484620.00000000 26327862.00000000 66090268.00000000 20066.11914062  1798616.62500000 1430043.12500000 
0.09000    40678704.00000000 25819330.00000000 64809648.00000000 19577.37695312  1758462.62500000 1398128.75000000 
0.09100    39898336.00000000 25326602.00000000 63569876.00000000 19103.66406250  1719554.62500000 1367193.25000000 
0.09200    39143132.00000000 24849966.00000000 62369948.00000000 18644.38867188  1681811.00000000 1337172.25000000 
0.09300    38412100.00000000 24388778.00000000 61208220.00000000 18199.22070312  1645220.25000000 1308084.62500000 
0.09400    37704996.00000000 23942420.00000000 60084456.00000000 17767.65039062  1609731.87500000 1279850.25000000 
0.09500    37020596.00000000 23510608.00000000 58997620.00000000 17348.77148438  1575304.25000000 1252470.12500000 
0.09600    36359292.00000000 23093140.00000000 57946652.00000000 16942.68359375  1541905.12500000 1225907.25000000 
0.09700    35719416.00000000 22689380.00000000 56930152.00000000 16548.30859375  1509484.87500000 1200111.00000000 
0.09800    35100512.00000000 22298948.00000000 55946804.00000000 16165.47753906  1478008.87500000 1175079.87500000 
0.09900    34502472.00000000 21921628.00000000 54996496.00000000 15793.77539062  1447440.87500000 1150780.25000000 
0.10000    33923444.00000000 21556446.00000000 54077160.00000000 15432.39355469  1417745.12500000 1127146.25000000 
0.10100    33363766.00000000 21203622.00000000 53188028.00000000 15081.28320312  1388892.62500000 1104198.62500000 
0.10200    32822400.00000000 20862250.00000000 52328524.00000000 14739.71679688  1360833.12500000 1081876.25000000 
0.10300    32298498.00000000 20532270.00000000 51496672.00000000 14407.60449219  1333534.37500000 1060169.75000000 
0.10400    31791252.00000000 20212940.00000000 50691836.00000000 14084.35253906  1306977.50000000 1039035.06250000 
0.10500    31300872.00000000 19904140.00000000 49913560.00000000 13769.83007812  1281121.37500000 1018471.68750000 
0.10600    30825542.00000000 19605072.00000000 49159544.00000000 13463.21875000  1255923.12500000 998434.06250000 
0.10700    30365270.00000000 19315836.00000000 48429344.00000000 13164.73242188  1231377.37500000 978911.18750000 
0.10800    29919208.00000000 19035524.00000000 47722172.00000000 12873.74023438  1207438.50000000 959872.68750000 
0.10900    29486790.00000000 18764120.00000000 47036872.00000000 12589.97558594  1184090.00000000 941296.00000000 
0.11000    29067386.00000000 18500652.00000000 46372244.00000000 12313.31542969  1161289.25000000 923174.06250000 
0.11100    28660224.00000000 18245416.00000000 45727408.00000000 12043.28125000  1139026.25000000 905463.81250000 
0.11200    28264900.00000000 17997482.00000000 45101180.00000000 11779.73437500  1117268.37500000 888162.12500000 
0.11300    27880898.00000000 17757008.00000000 44493148.00000000 11522.44824219  1095989.00000000 871245.56250000 
0.11400    27507372.00000000 17523126.00000000 43901912.00000000 11271.09960938  1075194.75000000 854701.37500000 
0.11500    27143678.00000000 17295768.00000000 43327276.00000000 11025.50781250  1054834.25000000 838506.25000000 
0.11600    26789444.00000000 17074378.00000000 42767044.00000000 10785.54980469  1034888.06250000 822656.56250000 
0.11700    26444416.00000000 16859064.00000000 42221568.00000000 10551.00683594  1015348.75000000 807120.81250000 
0.11800    26107550.00000000 16649097.00000000 41689760.00000000 10321.55371094  996199.62500000 791896.93750000 
0.11900    25778938.00000000 16444072.00000000 41170252.00000000 10097.20214844  977425.31250000 776959.56250000 
0.12000    25457486.00000000 16243936.00000000 40662908.00000000 9877.86230469   958995.50000000 762318.81250000 
0.12100    25143386.00000000 16048326.00000000 40166964.00000000 9663.12011719   940922.31250000 747943.93750000 
0.12200    24835500.00000000 15856877.00000000 39681604.00000000 9453.00195312   923169.56250000 733825.43750000 
0.12300    24534038.00000000 15669437.00000000 39205972.00000000 9247.33593750   905741.25000000 719961.56250000 
0.12400    24238016.00000000 15485730.00000000 38739844.00000000 9045.94824219   888604.06250000 706343.00000000 
0.12500    23947678.00000000 15305320.00000000 38281216.00000000 8848.85449219   871764.18750000 692949.50000000 
0.12600    23662208.00000000 15128227.00000000 37831672.00000000 8655.83984375   855211.43750000 679786.31250000 
0.12700    23381266.00000000 14954007.00000000 37389244.00000000 8466.83203125   838927.56250000 666836.50000000 
0.12800    23104502.00000000 14782635.00000000 36953688.00000000 8281.72558594   822911.06250000 654096.62500000 
0.12900    22832134.00000000 14613626.00000000 36524556.00000000 8100.41552734   807151.06250000 641565.81250000 
0.13000    22563230.00000000 14447210.00000000 36100868.00000000 7922.85595703   791643.06250000 629224.93750000 
0.13100    22297798.00000000 14282643.00000000 35683128.00000000 7748.90527344   776373.56250000 617078.25000000 
0.13200    22035618.00000000 14120179.00000000 35270172.00000000 7578.52978516   761338.75000000 605122.50000000 
0.13300    21775868.00000000 13959675.00000000 34861684.00000000 7411.67626953   746539.00000000 593349.75000000 
0.13400    21519078.00000000 13800597.00000000 34457236.00000000 7248.18017578   731968.43750000 581749.93750000 
0.13500    21264704.00000000 13643244.00000000 34056896.00000000 7087.98632812   717616.68750000 570330.68750000 
0.13600    21012510.00000000 13487046.00000000 33660128.00000000 6931.11962891   703472.56250000 559082.75000000 
0.13700    20762622.00000000 13332234.00000000 33266380.00000000 6777.48291016   689545.31250000 547996.75000000 
0.13800    20514434.00000000 13178495.00000000 32875616.00000000 6626.90576172   675835.68750000 537084.12500000 
0.13900    20267890.00000000 13025803.00000000 32487426.00000000 6479.53125000   662328.62500000 526324.81250000 
0.14000    20023012.00000000 12874100.00000000 32101832.00000000 6335.17138672   649014.62500000 515733.46875000 
0.14100    19779804.00000000 12723153.00000000 31718432.00000000 6193.76074219   635906.87500000 505298.56250000 
0.14200    19537552.00000000 12572942.00000000 31336980.00000000 6055.24169922   622991.81250000 495016.12500000 
0.14300    19296696.00000000 12423546.00000000 30957368.00000000 5919.67041016   610279.87500000 484891.46875000 
0.14400    19056982.00000000 12274732.00000000 30579408.00000000 5786.91259766   597755.50000000 474917.12500000 
0.14500    18818750.00000000 12126533.00000000 30203306.00000000 5656.91943359   585424.50000000 465092.43750000 
0.14600    18580870.00000000 11978821.00000000 29828418.00000000 5529.66650391   573277.87500000 455417.12500000 
0.14700    18344344.00000000 11831602.00000000 29455244.00000000 5405.12744141   561320.25000000 445892.15625000 
0.14800    18108690.00000000 11684841.00000000 29082988.00000000 5283.19140625   549548.25000000 436510.90625000 
0.14900    17873724.00000000 11538373.00000000 28711950.00000000 5163.90087891   537957.62500000 427275.65625000 
0.15000    17639646.00000000 11392435.00000000 28342248.00000000 5047.11962891   526550.50000000 418185.28125000 
0.15100    17406436.00000000 11246920.00000000 27973570.00000000 4932.83642578   515322.40625000 409237.31250000 
0.15200    17174096.00000000 11101673.00000000 27606214.00000000 4821.05761719   504273.78125000 400431.31250000 
0.15300    16942444.00000000 10956925.00000000 27239910.00000000 4711.69726562   493403.56250000 391766.78125000 
0.15400    16711646.00000000 10812437.00000000 26874620.00000000 4604.72363281   482708.87500000 383240.84375000 
0.15500    16481702.00000000 10668412.00000000 26510470.00000000 4500.12792969   472190.15625000 374852.37500000 
0.15600    16252506.00000000 10524721.00000000 26147242.00000000 4397.84765625   461840.25000000 366600.93750000 
0.15700    16024237.00000000 10381405.00000000 25785684.00000000 4297.86181641   451668.31250000 358490.65625000 
0.15800    15796809.00000000 10238595.00000000 25424828.00000000 4200.06347656   441660.68750000 350511.46875000 
0.15900    15570274.00000000 10096177.00000000 25065634.00000000 4104.49121094   431831.25000000 342667.65625000 
0.16000    15344641.00000000 9954111.00000000 24707552.00000000 4011.06689453   422158.75000000 334956.09375000 
0.16100    15120111.00000000 9812684.00000000 24351044.00000000 3919.81762695   412661.96875000 327379.75000000 
0.16200    14896678.00000000 9671790.00000000 23995924.00000000 3830.61401367   403327.46875000 319931.81250000 
0.16300    14674251.00000000 9531406.00000000 23642378.00000000 3743.52099609   394156.84375000 312613.53125000 
0.16400    14452957.00000000 9391600.00000000 23290508.00000000 3658.43115234   385147.65625000 305426.28125000 
0.16500    14232798.00000000 9252438.00000000 22940580.00000000 3575.35009766   376298.62500000 298365.25000000 
0.16600    14014039.00000000 9113857.00000000 22592144.00000000 3494.19506836   367610.96875000 291432.37500000 
0.16700    13796547.00000000 8975995.00000000 22245856.00000000 3414.96826172   359080.18750000 284620.65625000 
0.16800    13580314.00000000 8838810.00000000 21901396.00000000 3337.62402344   350703.65625000 277933.03125000 
0.16900    13365599.00000000 8702631.00000000 21559044.00000000 3262.15844727   342483.84375000 271373.81250000 
0.17000    13152383.00000000 8567139.00000000 21219406.00000000 3188.52026367   334413.59375000 264932.78125000 
