# SAXS profile: number of points = 501, q_min = 0, q_max = 0.5, delta_q = 0.001
#    q    intensity 
0.00000    162235600.00000000 101202144.00000000 256271488.00000000 99667.17187500  8042379.50000000 6351841.50000000 
0.00100    162213776.00000000 101187912.00000000 256235568.00000000 99647.30468750  8040996.00000000 6350765.00000000 
0.00200    162148128.00000000 101146088.00000000 256128528.00000000 99587.32812500  8036814.00000000 6347515.00000000 
0.00300    162036048.00000000 101075656.00000000 255950272.00000000 99487.01562500  8029850.50000000 6342039.50000000 
0.00400    161877648.00000000 100977608.00000000 255700048.00000000 99346.89843750  8020135.50000000 6334425.50000000 
0.00500    161671456.00000000 100852360.00000000 255378592.00000000 99167.56250000  8007634.50000000 6324586.00000000 
0.00600    161420368.00000000 100699448.00000000 254986544.00000000 98947.58593750  7992395.50000000 6312644.50000000 
0.00700    161123712.00000000 100517168.00000000 254524016.00000000 98688.89843750  7974438.00000000 6298545.50000000 
0.00800    160782848.00000000 100309144.00000000 253991696.00000000 98391.67968750  7953720.00000000 6282307.50000000 
0.00900    160396704.00000000 100073928.00000000 253390352.00000000 98055.03906250  7930352.50000000 6263986.00000000 
0.01000    159966720.00000000 99811080.00000000 252718960.00000000 97680.56250000  7904306.50000000 6243545.00000000 
0.01100    159493920.00000000 99522320.00000000 251978800.00000000 97268.21875000  7875613.50000000 6221043.50000000 
0.01200    158978448.00000000 99206704.00000000 251170640.00000000 96818.71093750  7844292.50000000 6196477.50000000 
0.01300    158420176.00000000 98864872.00000000 250297200.00000000 96332.43750000  7810429.50000000 6169887.00000000 
0.01400    157819536.00000000 98496328.00000000 249355920.00000000 95809.83593750  7774010.50000000 6141302.50000000 
0.01500    157176000.00000000 98102424.00000000 248349056.00000000 95252.21093750  7735078.50000000 6110778.50000000 
0.01600    156491504.00000000 97683616.00000000 247277296.00000000 94659.67187500  7693679.00000000 6078286.00000000 
0.01700    155765808.00000000 97239232.00000000 246141200.00000000 94032.17968750  7649843.00000000 6043920.00000000 
0.01800    155001152.00000000 96770016.00000000 244944880.00000000 93371.40625000  7603644.50000000 6007655.00000000 
0.01900    154195280.00000000 96277056.00000000 243683952.00000000 92678.35937500  7555096.50000000 5969568.50000000 
0.02000    153352848.00000000 95760688.00000000 242364016.00000000 91954.06250000  7504290.50000000 5929678.50000000 
0.02100    152471520.00000000 95220888.00000000 240984768.00000000 91197.29687500  7451217.00000000 5888067.00000000 
0.02200    151551728.00000000 94657664.00000000 239545984.00000000 90411.12500000  7395981.00000000 5844687.50000000 
0.02300    150596416.00000000 94072160.00000000 238050320.00000000 89595.29687500  7338611.50000000 5799679.50000000 
0.02400    149605616.00000000 93464872.00000000 236496976.00000000 88751.41406250  7279195.00000000 5753049.00000000 
0.02500    148580288.00000000 92836096.00000000 234891568.00000000 87880.06250000  7217781.00000000 5704812.50000000 
0.02600    147519936.00000000 92186288.00000000 233231984.00000000 86982.03906250  7154398.50000000 5655044.00000000 
0.02700    146426928.00000000 91515984.00000000 231520928.00000000 86058.85937500  7089133.50000000 5603784.50000000 
0.02800    145301808.00000000 90826168.00000000 229757568.00000000 85111.66406250  7022031.50000000 5551135.50000000 
0.02900    144145824.00000000 90116704.00000000 227945024.00000000 84139.89062500  6953199.50000000 5497072.50000000 
0.03000    142958736.00000000 89388480.00000000 226085920.00000000 83146.24218750  6882627.00000000 5441679.00000000 
0.03100    141742608.00000000 88642144.00000000 224181456.00000000 82131.55468750  6810467.00000000 5384974.50000000 
0.03200    140497568.00000000 87878216.00000000 222230752.00000000 81096.68750000  6736746.00000000 5327067.00000000 
0.03300    139226464.00000000 87097440.00000000 220236944.00000000 80042.88281250  6661524.00000000 5267971.00000000 
0.03400    137927472.00000000 86300432.00000000 218202000.00000000 78970.69531250  6584877.00000000 5207786.00000000 
0.03500    136604512.00000000 85487440.00000000 216127168.00000000 77882.06250000  6506910.00000000 5146505.50000000 
0.03600    135255600.00000000 84659096.00000000 214014160.00000000 76777.38281250  6427609.00000000 5084211.50000000 
0.03700    133884176.00000000 83816360.00000000 211864480.00000000 75658.23437500  6347152.50000000 5020990.00000000 
0.03800    132491160.00000000 82959976.00000000 209678464.00000000 74525.42968750  6265535.00000000 4956857.50000000 
0.03900    131076304.00000000 82090352.00000000 207460800.00000000 73380.69531250  6182895.50000000 4891874.50000000 
0.04000    129641392.00000000 81208280.00000000 205210304.00000000 72224.36718750  6099263.00000000 4826143.00000000 
0.04100    128187032.00000000 80314208.00000000 202929328.00000000 71057.93750000  6014653.00000000 4759643.00000000 
0.04200    126716320.00000000 79408472.00000000 200621712.00000000 69882.50000000  5929249.00000000 4692481.50000000 
0.04300    125227152.00000000 78492552.00000000 198285232.00000000 68699.56250000  5843077.00000000 4624695.50000000 
0.04400    123723192.00000000 77566832.00000000 195925376.00000000 67509.34375000  5756206.00000000 4556353.00000000 
0.04500    122204264.00000000 76631912.00000000 193542192.00000000 66313.92968750  5668691.50000000 4487572.00000000 
0.04600    120671544.00000000 75688448.00000000 191135904.00000000 65113.83593750  5580632.00000000 4418280.00000000 
0.04700    119126192.00000000 74736680.00000000 188710800.00000000 63910.27734375  5492068.00000000 4348622.50000000 
0.04800    117569944.00000000 73777984.00000000 186267248.00000000 62704.21093750  5403133.50000000 4278625.50000000 
0.04900    116003704.00000000 72812416.00000000 183806944.00000000 61496.88671875  5313833.50000000 4208355.50000000 
0.05000    114427360.00000000 71840280.00000000 181331920.00000000 60289.23437500  5224241.00000000 4137847.50000000 
0.05100    112843112.00000000 70863496.00000000 178843952.00000000 59082.10937500  5134446.00000000 4067178.00000000 
0.05200    111251832.00000000 69881728.00000000 176343152.00000000 57876.37890625  5044544.00000000 3996380.75000000 
0.05300    109654024.00000000 68895432.00000000 173831968.00000000 56673.60546875  4954560.50000000 3925523.25000000 
0.05400    108051696.00000000 67906064.00000000 171315600.00000000 55474.46875000  4864571.50000000 3854652.00000000 
0.05500    106445280.00000000 66914156.00000000 168790240.00000000 54279.32812500  4774635.50000000 3783801.75000000 
0.05600    104835920.00000000 65919708.00000000 166258800.00000000 53090.07812500  4684808.00000000 3713048.75000000 
0.05700    103223968.00000000 64923868.00000000 163724736.00000000 51906.73828125  4595167.00000000 3642433.00000000 
0.05800    101611312.00000000 63926980.00000000 161189200.00000000 50730.59765625  4505779.00000000 3571975.25000000 
0.05900    99998216.00000000 62929876.00000000 158652224.00000000 49562.45703125  4416679.50000000 3501771.50000000 
0.06000    98386760.00000000 61932904.00000000 156116208.00000000 48402.84375000  4327938.00000000 3431808.75000000 
0.06100    96776456.00000000 60936380.00000000 153581920.00000000 47252.85937500  4239650.50000000 3362185.50000000 
0.06200    95168624.00000000 59941412.00000000 151052704.00000000 46112.99218750  4151767.50000000 3292921.75000000 
0.06300    93565208.00000000 58948068.00000000 148528080.00000000 44984.04687500  4064457.50000000 3224050.75000000 
0.06400    91965504.00000000 57957108.00000000 146010144.00000000 43866.60156250  3977687.00000000 3155605.25000000 
0.06500    90370520.00000000 56969336.00000000 143500544.00000000 42761.60156250  3891548.00000000 3087652.50000000 
0.06600    88782904.00000000 55984768.00000000 140999936.00000000 41669.30078125  3806091.25000000 3020211.25000000 
0.06700    87201736.00000000 55004240.00000000 138508944.00000000 40590.20312500  3721335.00000000 2953320.00000000 
0.06800    85628400.00000000 54028148.00000000 136030832.00000000 39525.16796875  3637329.50000000 2887016.25000000 
0.06900    84063704.00000000 53056860.00000000 133564824.00000000 38474.54296875  3554148.00000000 2821325.00000000 
0.07000    82508232.00000000 52091052.00000000 131114056.00000000 37439.11328125  3471790.50000000 2756282.25000000 
0.07100    80962560.00000000 51130924.00000000 128677616.00000000 36418.67968750  3390306.75000000 2691936.75000000 
0.07200    79427624.00000000 50177188.00000000 126257136.00000000 35414.26562500  3309734.50000000 2628301.00000000 
0.07300    77904320.00000000 49229996.00000000 123855016.00000000 34426.27734375  3230139.75000000 2565402.75000000 
0.07400    76392784.00000000 48290084.00000000 121470736.00000000 33454.44921875  3151490.75000000 2503258.25000000 
0.07500    74894096.00000000 47357492.00000000 119106192.00000000 32499.60742188  3073875.25000000 2441881.50000000 
0.07600    73407720.00000000 46432904.00000000 116761184.00000000 31562.10742188  2997296.00000000 2381364.75000000 
0.07700    71936544.00000000 45516304.00000000 114438792.00000000 30641.90039062  2921822.25000000 2321660.75000000 
0.07800    70479152.00000000 44608420.00000000 112137608.00000000 29739.35351562  2847405.50000000 2262805.25000000 
0.07900    69036048.00000000 43709300.00000000 109859488.00000000 28854.75585938  2774110.75000000 2204834.25000000 
0.08000    67608840.00000000 42819460.00000000 107605520.00000000 27988.18164062  2701962.00000000 2147720.00000000 
0.08100    66197792.00000000 41939104.00000000 105376296.00000000 27139.80078125  2630972.25000000 2091545.50000000 
0.08200    64802328.00000000 41068420.00000000 103171312.00000000 26309.67968750  2561144.25000000 2036278.50000000 
0.08300    63424060.00000000 40207840.00000000 100993312.00000000 25497.82812500  2492538.00000000 1981948.37500000 
0.08400    62062772.00000000 39357708.00000000 98841528.00000000 24704.59570312  2425117.75000000 1928565.50000000 
0.08500    60719052.00000000 38518348.00000000 96717128.00000000 23929.91015625  2358928.00000000 1876133.12500000 
0.08600    59393088.00000000 37689288.00000000 94619984.00000000 23173.67773438  2293964.75000000 1824668.37500000 
0.08700    58085396.00000000 36871220.00000000 92551496.00000000 22435.84375000  2230242.00000000 1774169.87500000 
0.08800    56795968.00000000 36064400.00000000 90511528.00000000 21716.60742188  2167763.25000000 1724648.62500000 
0.08900    55525328.00000000 35269192.00000000 88500944.00000000 21015.56640625  2106545.25000000 1676112.87500000 
0.09000    54273868.00000000 34485364.00000000 86519600.00000000 20332.90625000  2046579.37500000 1628567.87500000 
0.09100    53041396.00000000 33713304.00000000 84568872.00000000 19668.54101562  1987883.37500000 1582011.75000000 
0.09200    51828136.00000000 32952778.00000000 82648200.00000000 19022.14453125  1930447.62500000 1536443.12500000 
0.09300    50635116.00000000 32204542.00000000 80757904.00000000 18393.70703125  1874276.00000000 1491869.87500000 
0.09400    49461708.00000000 31468306.00000000 78898832.00000000 17783.14843750  1819349.37500000 1448281.87500000 
0.09500    48307736.00000000 30744076.00000000 77069864.00000000 17189.96484375  1765687.50000000 1405686.00000000 
0.09600    47173964.00000000 30032126.00000000 75273640.00000000 16614.31640625  1713289.87500000 1364085.87500000 
0.09700    46060496.00000000 29332620.00000000 73508248.00000000 16055.95898438  1662143.00000000 1323448.50000000 
0.09800    44967136.00000000 28645418.00000000 71774240.00000000 15514.35156250  1612230.87500000 1283813.12500000 
0.09900    43894028.00000000 27970644.00000000 70072160.00000000 14989.63769531  1563561.62500000 1245130.25000000 
0.10000    42841048.00000000 27308474.00000000 68402312.00000000 14481.23046875  1516114.62500000 1207429.37500000 
0.10100    41808516.00000000 26658578.00000000 66763528.00000000 13989.13476562  1469884.00000000 1170678.75000000 
0.10200    40796448.00000000 26021260.00000000 65156528.00000000 13512.94628906  1424857.12500000 1134882.87500000 
0.10300    39804352.00000000 25396382.00000000 63582448.00000000 13052.48242188  1381035.12500000 1100023.37500000 
0.10400    38832664.00000000 24784040.00000000 62039472.00000000 12607.27929688  1338373.87500000 1066100.00000000 
0.10500    37881184.00000000 24184358.00000000 60528248.00000000 12177.23925781  1296901.25000000 1033102.87500000 
0.10600    36949612.00000000 23596744.00000000 59048468.00000000 11761.77832031  1256561.25000000 1001004.50000000 
0.10700    36038300.00000000 23021578.00000000 57600652.00000000 11360.93554688  1217376.75000000 969811.50000000 
0.10800    35147012.00000000 22458854.00000000 56183828.00000000 10974.11132812  1179312.87500000 939507.25000000 
0.10900    34275192.00000000 21908372.00000000 54798504.00000000 10601.07617188  1142351.87500000 910077.31250000 
0.11000    33423130.00000000 21370082.00000000 53443848.00000000 10241.52441406  1106484.00000000 881505.18750000 
0.11100    32590536.00000000 20843888.00000000 52120040.00000000 9895.10058594   1071682.62500000 853778.68750000 
0.11200    31777560.00000000 20329872.00000000 50826804.00000000 9561.46386719   1037933.68750000 826895.18750000 
0.11300    30983626.00000000 19827570.00000000 49563940.00000000 9240.20214844   1005222.31250000 800820.18750000 
0.11400    30208920.00000000 19337360.00000000 48331012.00000000 8931.24023438   973533.93750000 775558.37500000 
0.11500    29453008.00000000 18858832.00000000 47128004.00000000 8633.91503906   942835.87500000 751089.81250000 
0.11600    28715688.00000000 18391794.00000000 45954404.00000000 8348.12597656   913115.31250000 727390.06250000 
0.11700    27997024.00000000 17936476.00000000 44809940.00000000 8073.50976562   884362.06250000 704452.31250000 
0.11800    27296182.00000000 17492302.00000000 43694096.00000000 7809.57226562   856535.43750000 682252.31250000 
0.11900    26613566.00000000 17059424.00000000 42606764.00000000 7556.11083984   829625.50000000 660784.56250000 
0.12000    25948546.00000000 16637764.00000000 41547424.00000000 7312.77441406   803607.68750000 640026.75000000 
0.12100    25301316.00000000 16226954.00000000 40515936.00000000 7079.27001953   778482.93750000 619961.06250000 
0.12200    24671054.00000000 15826972.00000000 39511776.00000000 6855.15527344   754199.37500000 600582.87500000 
0.12300    24058012.00000000 15437704.00000000 38534724.00000000 6640.29003906   730754.12500000 581862.12500000 
0.12400    23461678.00000000 15058795.00000000 37583860.00000000 6434.26660156   708121.68750000 563788.93750000 
0.12500    22881614.00000000 14690398.00000000 36658848.00000000 6236.69091797   686282.62500000 546342.12500000 
0.12600    22317966.00000000 14332122.00000000 35760224.00000000 6047.46630859   665216.31250000 529513.37500000 
0.12700    21770154.00000000 13983770.00000000 34886560.00000000 5866.10595703   644900.56250000 513279.37500000 
0.12800    21237940.00000000 13645327.00000000 34037528.00000000 5692.41259766   625316.87500000 497628.81250000 
0.12900    20721168.00000000 13316575.00000000 33212872.00000000 5526.10156250   606438.93750000 482542.90625000 
0.13000    20219522.00000000 12997242.00000000 32412376.00000000 5366.84375000   588258.25000000 468007.18750000 
0.13100    19732362.00000000 12687283.00000000 31635144.00000000 5214.43310547   570737.62500000 454002.65625000 
0.13200    19259934.00000000 12386402.00000000 30880928.00000000 5068.50195312   553870.43750000 440516.68750000 
0.13300    18801690.00000000 12094498.00000000 30149324.00000000 4928.88330078   537638.12500000 427531.25000000 
0.13400    18357168.00000000 11811403.00000000 29439638.00000000 4795.35546875   522007.15625000 415032.50000000 
0.13500    17926306.00000000 11536779.00000000 28751562.00000000 4667.49804688   506974.96875000 403003.46875000 
0.13600    17508672.00000000 11270629.00000000 28084704.00000000 4545.28857422   492510.71875000 391434.09375000 
0.13700    17103886.00000000 11012664.00000000 27438392.00000000 4428.31542969   478601.96875000 380304.93750000 
0.13800    16712043.00000000 10762812.00000000 26812286.00000000 4316.42431641   465221.34375000 369597.96875000 
0.13900    16332487.00000000 10520694.00000000 26206022.00000000 4209.43896484   452363.71875000 359306.40625000 
0.14000    15965055.00000000 10286219.00000000 25618924.00000000 4107.08398438   440005.37500000 349415.12500000 
0.14100    15609372.00000000 10059401.00000000 25050484.00000000 4009.19824219   428123.53125000 339903.90625000 
0.14200    15265085.00000000 9839710.00000000 24500516.00000000 3915.57250977   416710.84375000 330766.68750000 
0.14300    14932122.00000000 9627149.00000000 23968372.00000000 3825.99609375   405741.28125000 321983.46875000 
0.14400    14609865.00000000 9421521.00000000 23453440.00000000 3740.27758789   395204.21875000 313544.37500000 
0.14500    14298407.00000000 9222662.00000000 22955662.00000000 3658.27368164   385081.25000000 305437.40625000 
0.14600    13997175.00000000 9030351.00000000 22474146.00000000 3579.80200195   375359.84375000 297651.65625000 
0.14700    13706086.00000000 8844401.00000000 22008728.00000000 3504.71069336   366022.46875000 290170.03125000 
0.14800    13424605.00000000 8664689.00000000 21558806.00000000 3432.82006836   357047.21875000 282983.25000000 
0.14900    13152548.00000000 8490884.00000000 21123802.00000000 3363.97363281   348430.68750000 276076.46875000 
0.15000    12889785.00000000 8322986.50000000 20703568.00000000 3298.03808594   340150.40625000 269442.53125000 
0.15100    12635781.00000000 8160766.50000000 20297648.00000000 3234.84912109   332198.40625000 263069.15625000 
0.15200    12390623.00000000 8004149.50000000 19905444.00000000 3174.33349609   324558.40625000 256945.95312500 
0.15300    12153713.00000000 7852739.00000000 19526556.00000000 3116.30786133   317217.59375000 251060.51562500 
0.15400    11924775.00000000 7706463.00000000 19160578.00000000 3060.64233398   310160.25000000 245402.79687500 
0.15500    11703823.00000000 7565258.50000000 18807044.00000000 3007.23437500   303377.93750000 239963.90625000 
0.15600    11490358.00000000 7428822.00000000 18465830.00000000 2955.98779297   296855.62500000 234734.67187500 
0.15700    11284303.00000000 7297136.50000000 18136174.00000000 2906.76538086   290584.96875000 229705.09375000 
0.15800    11085185.00000000 7169856.00000000 17817720.00000000 2859.45996094   284549.81250000 224864.60937500 
0.15900    10892971.00000000 7047023.50000000 17510228.00000000 2814.00244141   278745.40625000 220206.09375000 
0.16000    10707287.00000000 6928331.00000000 17213306.00000000 2770.25903320   273152.59375000 215720.34375000 
0.16100    10527951.00000000 6813736.00000000 16926440.00000000 2728.18212891   267768.90625000 211400.59375000 
0.16200    10354762.00000000 6702975.00000000 16649465.00000000 2687.64794922   262581.62500000 207236.92187500 
0.16300    10187403.00000000 6596048.50000000 16381723.00000000 2648.58032227   257578.85937500 203222.67187500 
0.16400    10025721.00000000 6492649.00000000 16123090.00000000 2610.93701172   252755.01562500 199349.06250000 
0.16500    9869402.00000000 6392804.00000000 15873148.00000000 2574.57617188   248099.65625000 195609.14062500 
0.16600    9718347.00000000 6296221.50000000 15631460.00000000 2539.45336914   243604.78125000 191997.87500000 
0.16700    9572358.00000000 6202868.00000000 15397874.00000000 2505.49121094   239255.48437500 188507.34375000 
0.16800    9431020.00000000 6112548.50000000 15171850.00000000 2472.62548828   235050.48437500 185128.06250000 
0.16900    9294345.00000000 6025177.50000000 14953223.00000000 2440.79589844   230982.59375000 181860.76562500 
0.17000    9162092.00000000 5940661.50000000 14741757.00000000 2409.94458008   227041.07812500 178692.39062500 
