# SAXS profile: number of points = 501, q_min = 0, q_max = 0.5, delta_q = 0.001
#    q    intensity 
0.00000    162231600.00000000 101202432.00000000 256270656.00000000 110423.24218750 8465208.00000000 6685805.00000000 
0.00100    162190224.00000000 101173624.00000000 256199120.00000000 110383.64062500 8462523.00000000 6683691.50000000 
0.00200    162061616.00000000 101089656.00000000 255988416.00000000 110268.10156250 8454469.00000000 6677372.00000000 
0.00300    161839216.00000000 100950480.00000000 255633632.00000000 110074.10156250 8441124.00000000 6666842.00000000 
0.00400    161523392.00000000 100755816.00000000 255136384.00000000 109804.06250000 8422278.00000000 6652074.00000000 
0.00500    161115952.00000000 100505072.00000000 254497904.00000000 109457.96875000 8398358.00000000 6633243.00000000 
0.00600    160620656.00000000 100199272.00000000 253723072.00000000 109037.13281250 8369174.50000000 6610270.00000000 
0.00700    160031344.00000000 99841896.00000000 252811584.00000000 108541.54687500 8334771.00000000 6583270.50000000 
0.00800    159365152.00000000 99432088.00000000 251763952.00000000 107973.51562500 8295434.00000000 6552265.50000000 
0.00900    158614880.00000000 98969320.00000000 250582192.00000000 107333.53906250 8251004.00000000 6517323.50000000 
0.01000    157782560.00000000 98453392.00000000 249271200.00000000 106624.23437500 8201701.50000000 6478583.50000000 
0.01100    156866432.00000000 97887832.00000000 247830240.00000000 105847.65625000 8147645.00000000 6436101.50000000 
0.01200    155866576.00000000 97271536.00000000 246264992.00000000 105004.28906250 8088982.50000000 6389961.50000000 
0.01300    154791888.00000000 96609504.00000000 244576400.00000000 104096.38281250 8025841.50000000 6340240.00000000 
0.01400    153644048.00000000 95899480.00000000 242770912.00000000 103126.90625000 7958242.00000000 6287137.00000000 
0.01500    152420640.00000000 95144944.00000000 240849808.00000000 102098.45312500 7886493.00000000 6230650.00000000 
0.01600    151126704.00000000 94346256.00000000 238816528.00000000 101012.36718750 7810645.50000000 6171007.00000000 
0.01700    149764848.00000000 93505464.00000000 236676016.00000000 99871.71093750  7730896.50000000 6108244.50000000 
0.01800    148337264.00000000 92623576.00000000 234431264.00000000 98680.37500000  7647476.00000000 6042590.00000000 
0.01900    146846640.00000000 91703520.00000000 232090656.00000000 97439.53906250  7560483.50000000 5974205.00000000 
0.02000    145295312.00000000 90746032.00000000 229650352.00000000 96152.82031250  7470153.50000000 5903078.50000000 
0.02100    143689024.00000000 89752576.00000000 227124176.00000000 94822.25000000  7376653.00000000 5829516.50000000 
0.02200    142027408.00000000 88725480.00000000 224512160.00000000 93451.96875000  7280180.00000000 5753514.50000000 
0.02300    140313552.00000000 87667296.00000000 221817488.00000000 92045.01562500  7180915.00000000 5675428.00000000 
0.02400    138553952.00000000 86577992.00000000 219049184.00000000 90603.40625000  7079153.00000000 5595277.50000000 
0.02500    136748480.00000000 85460872.00000000 216209776.00000000 89132.32031250  6974976.50000000 5513265.00000000 
0.02600    134902000.00000000 84319552.00000000 213304080.00000000 87632.08593750  6868625.50000000 5429557.50000000 
0.02700    133018456.00000000 83153656.00000000 210341504.00000000 86108.07812500  6760321.50000000 5344279.00000000 
0.02800    131099088.00000000 81965728.00000000 207322832.00000000 84562.47656250  6650338.00000000 5257653.50000000 
0.02900    129149648.00000000 80758032.00000000 204252656.00000000 82997.34375000  6538727.00000000 5169792.00000000 
0.03000    127170904.00000000 79531816.00000000 201137984.00000000 81418.78906250  6425883.50000000 5080852.50000000 
0.03100    125167792.00000000 78292136.00000000 197985728.00000000 79827.21875000  6311885.00000000 4991092.00000000 
0.03200    123143280.00000000 77038064.00000000 194797792.00000000 78225.91406250  6197013.50000000 4900555.50000000 
0.03300    121101312.00000000 75772896.00000000 191582576.00000000 76619.40625000  6081380.00000000 4809463.00000000 
0.03400    119044624.00000000 74496616.00000000 188341568.00000000 75008.92187500  5965241.50000000 4717892.00000000 
0.03500    116974872.00000000 73212976.00000000 185082496.00000000 73398.62500000  5848808.50000000 4626139.50000000 
0.03600    114897512.00000000 71924440.00000000 181809040.00000000 71789.84375000  5732173.50000000 4534172.50000000 
0.03700    112815232.00000000 70631128.00000000 178528208.00000000 70186.08593750  5615592.50000000 4442298.50000000 
0.03800    110729408.00000000 69336672.00000000 175241792.00000000 68589.45312500  5499265.00000000 4350558.00000000 
0.03900    108645816.00000000 68041984.00000000 171956256.00000000 67002.53906250  5383294.50000000 4259101.50000000 
0.04000    106564896.00000000 66748484.00000000 168675632.00000000 65427.85937500  5267918.00000000 4168069.75000000 
0.04100    104490992.00000000 65458520.00000000 165405360.00000000 63867.18750000  5153240.50000000 4077628.50000000 
0.04200    102425328.00000000 64174956.00000000 162147408.00000000 62323.39453125  5039432.00000000 3987821.50000000 
0.04300    100372352.00000000 62897400.00000000 158907952.00000000 60797.25781250  4926684.50000000 3898835.00000000 
0.04400    98333728.00000000 61628616.00000000 155691408.00000000 59292.05468750  4815079.50000000 3810754.25000000 
0.04500    96310888.00000000 60369316.00000000 152499664.00000000 57808.49218750  4704708.50000000 3723673.25000000 
0.04600    94307712.00000000 59122000.00000000 149338224.00000000 56348.38671875  4595840.00000000 3637683.00000000 
0.04700    92325232.00000000 57887024.00000000 146208384.00000000 54913.27343750  4488406.00000000 3552892.00000000 
0.04800    90366144.00000000 56666248.00000000 143114704.00000000 53504.37500000  4382661.50000000 3469347.75000000 
0.04900    88432056.00000000 55460816.00000000 140060928.00000000 52123.27734375  4278633.00000000 3387198.25000000 
0.05000    86525944.00000000 54271828.00000000 137050800.00000000 50770.19921875  4176412.50000000 3306455.00000000 
0.05100    84647952.00000000 53100348.00000000 134085440.00000000 49446.86718750  4076100.25000000 3227199.00000000 
0.05200    82800376.00000000 51947564.00000000 131167352.00000000 48153.77734375  3977766.50000000 3149472.25000000 
0.05300    80985240.00000000 50814464.00000000 128298640.00000000 46891.64453125  3881449.25000000 3073361.00000000 
0.05400    79203264.00000000 49701868.00000000 125481864.00000000 45660.63671875  3787225.50000000 2998885.50000000 
0.05500    77455712.00000000 48610384.00000000 122720640.00000000 44462.09375000  3695163.00000000 2926074.00000000 
0.05600    75744544.00000000 47540932.00000000 120014248.00000000 43295.28515625  3605240.00000000 2855020.75000000 
0.05700    74068992.00000000 46493820.00000000 117364824.00000000 42160.69140625  3517553.50000000 2785667.25000000 
0.05800    72430464.00000000 45469828.00000000 114775480.00000000 41058.78125000  3432114.00000000 2718103.50000000 
0.05900    70830864.00000000 44469536.00000000 112244584.00000000 39989.35546875  3348916.00000000 2652285.50000000 
0.06000    69270024.00000000 43493352.00000000 109775368.00000000 38952.25000000  3267962.25000000 2588252.25000000 
0.06100    67748512.00000000 42541384.00000000 107369216.00000000 37947.10937500  3189331.75000000 2526039.50000000 
0.06200    66265612.00000000 41614236.00000000 105024208.00000000 36973.56640625  3112912.75000000 2465585.75000000 
0.06300    64824116.00000000 40711596.00000000 102742512.00000000 36031.83203125  3038784.25000000 2406905.75000000 
0.06400    63421772.00000000 39834104.00000000 100523680.00000000 35120.43750000  2966845.25000000 2350009.75000000 
0.06500    62059676.00000000 38981396.00000000 98369088.00000000 34240.17578125  2897198.50000000 2294851.75000000 
0.06600    60738176.00000000 38154296.00000000 96277640.00000000 33388.96875000  2829689.00000000 2241452.50000000 
0.06700    59456072.00000000 37351900.00000000 94248328.00000000 32567.27539062  2764364.75000000 2189735.50000000 
0.06800    58213872.00000000 36574172.00000000 92283592.00000000 31773.84765625  2701153.75000000 2139692.25000000 
0.06900    57011184.00000000 35821448.00000000 90379776.00000000 31007.94140625  2640044.00000000 2091339.87500000 
0.07000    55847452.00000000 35093124.00000000 88539496.00000000 30269.20898438  2580985.75000000 2044562.62500000 
0.07100    54722344.00000000 34389228.00000000 86758848.00000000 29556.15234375  2523898.50000000 1999405.12500000 
0.07200    53634616.00000000 33708940.00000000 85038192.00000000 28868.27148438  2468810.75000000 1955765.25000000 
0.07300    52585036.00000000 33052562.00000000 83377832.00000000 28204.59570312  2415551.75000000 1913646.75000000 
0.07400    51571928.00000000 32419066.00000000 81775680.00000000 27564.15429688  2364185.50000000 1872973.12500000 
0.07500    50594244.00000000 31808340.00000000 80229672.00000000 26946.25195312  2314566.75000000 1833719.50000000 
0.07600    49652132.00000000 31219740.00000000 78740728.00000000 26349.82617188  2266682.50000000 1795826.87500000 
0.07700    48744256.00000000 30652586.00000000 77304744.00000000 25773.68164062  2220468.75000000 1759259.50000000 
0.07800    47869448.00000000 30107100.00000000 75924120.00000000 25217.38476562  2175866.25000000 1723948.00000000 
0.07900    47027504.00000000 29582236.00000000 74593296.00000000 24679.53320312  2132767.00000000 1689878.87500000 
0.08000    46217248.00000000 29077016.00000000 73313816.00000000 24159.54882812  2091164.37500000 1656966.87500000 
0.08100    45436748.00000000 28591268.00000000 72082048.00000000 23656.23242188  2050978.12500000 1625188.25000000 
0.08200    44686244.00000000 28124288.00000000 70897464.00000000 23169.10937500  2012145.25000000 1594486.37500000 
0.08300    43963784.00000000 27675530.00000000 69759272.00000000 22696.95507812  1974584.87500000 1564803.00000000 
0.08400    43269048.00000000 27244058.00000000 68663432.00000000 22239.10546875  1938251.87500000 1536105.62500000 
0.08500    42600312.00000000 26829302.00000000 67610312.00000000 21794.68164062  1903101.12500000 1508314.87500000 
0.08600    41956856.00000000 26430778.00000000 66598232.00000000 21362.75585938  1869033.25000000 1481413.37500000 
0.08700    41337044.00000000 26047562.00000000 65623064.00000000 20942.93164062  1836023.50000000 1455346.37500000 
0.08800    40740728.00000000 25679038.00000000 64685476.00000000 20534.11328125  1803999.25000000 1430067.37500000 
0.08900    40166476.00000000 25324758.00000000 63783256.00000000 20135.93554688  1772913.25000000 1405528.50000000 
0.09000    39612592.00000000 24983738.00000000 62913480.00000000 19747.58203125  1742707.50000000 1381690.62500000 
0.09100    39078968.00000000 24655450.00000000 62076340.00000000 19368.33203125  1713310.62500000 1358506.12500000 
0.09200    38563508.00000000 24339056.00000000 61268280.00000000 18997.81835938  1684676.50000000 1335928.25000000 
0.09300    38066528.00000000 24034124.00000000 60489076.00000000 18635.27343750  1656804.87500000 1313939.12500000 
0.09400    37585756.00000000 23739772.00000000 59736852.00000000 18280.48046875  1629573.25000000 1292491.00000000 
0.09500    37120588.00000000 23455502.00000000 59009160.00000000 17932.53125000  1602996.37500000 1271551.50000000 
0.09600    36670188.00000000 23180832.00000000 58304852.00000000 17591.42578125  1577002.87500000 1251068.25000000 
0.09700    36233568.00000000 22914622.00000000 57623096.00000000 17256.72851562  1551570.87500000 1231034.87500000 
0.09800    35809596.00000000 22656594.00000000 56961268.00000000 16927.73046875  1526654.00000000 1211402.25000000 
0.09900    35397340.00000000 22406308.00000000 56318348.00000000 16604.36914062  1502206.75000000 1192151.62500000 
0.10000    34996348.00000000 22163184.00000000 55694060.00000000 16286.12304688  1478209.00000000 1173261.00000000 
0.10100    34605260.00000000 21926406.00000000 55084948.00000000 15972.92773438  1454616.00000000 1154674.37500000 
0.10200    34223704.00000000 21695652.00000000 54491244.00000000 15664.51074219  1431404.37500000 1136405.50000000 
0.10300    33850972.00000000 21470172.00000000 53910696.00000000 15360.55664062  1408561.62500000 1118420.12500000 
0.10400    33485610.00000000 21249836.00000000 53343216.00000000 15060.99218750  1386033.62500000 1100692.25000000 
0.10500    33127334.00000000 21033688.00000000 52786376.00000000 14765.62207031  1363824.87500000 1083207.00000000 
0.10600    32775852.00000000 20821878.00000000 52240016.00000000 14474.25585938  1341912.37500000 1065940.37500000 
0.10700    32429860.00000000 20613510.00000000 51702668.00000000 14186.77441406  1320250.87500000 1048889.75000000 
0.10800    32089148.00000000 20408366.00000000 51173328.00000000 13903.14550781  1298846.00000000 1032026.68750000 
0.10900    31753022.00000000 20206008.00000000 50651388.00000000 13623.10937500  1277671.62500000 1015350.50000000 
0.11000    31421102.00000000 20006202.00000000 50135992.00000000 13346.89160156  1256729.75000000 998850.37500000 
0.11100    31092678.00000000 19808258.00000000 49625800.00000000 13074.27929688  1235988.62500000 982510.62500000 
0.11200    30767116.00000000 19612310.00000000 49120408.00000000 12805.14648438  1215458.87500000 966313.68750000 
0.11300    30444380.00000000 19417904.00000000 48618812.00000000 12539.66210938  1195114.25000000 950269.93750000 
0.11400    30124018.00000000 19224690.00000000 48120708.00000000 12277.70800781  1174943.37500000 934367.18750000 
0.11500    29805462.00000000 19032340.00000000 47625480.00000000 12019.33691406  1154957.00000000 918589.68750000 
0.11600    29488226.00000000 18841020.00000000 47131804.00000000 11764.47167969  1135136.37500000 902952.37500000 
0.11700    29172494.00000000 18650014.00000000 46640944.00000000 11513.21093750  1115486.75000000 887434.62500000 
0.11800    28857638.00000000 18459478.00000000 46150064.00000000 11265.41796875  1095990.00000000 872033.06250000 
0.11900    28543386.00000000 18268978.00000000 45661148.00000000 11021.14550781  1076666.37500000 856757.00000000 
0.12000    28229674.00000000 18078522.00000000 45171408.00000000 10780.55175781  1057484.25000000 841590.12500000 
0.12100    27916272.00000000 17887984.00000000 44682916.00000000 10543.55078125  1038471.75000000 826556.18750000 
0.12200    27603056.00000000 17697276.00000000 44193644.00000000 10310.23144531  1019612.87500000 811631.50000000 
0.12300    27289860.00000000 17506284.00000000 43703980.00000000 10080.60546875  1000908.68750000 796824.62500000 
0.12400    26976402.00000000 17314760.00000000 43214060.00000000 9854.49902344   982361.81250000 782130.18750000 
0.12500    26662576.00000000 17122766.00000000 42722860.00000000 9632.19433594   963973.12500000 767559.43750000 
0.12600    26348844.00000000 16930320.00000000 42230976.00000000 9413.61425781   945750.25000000 753115.93750000 
0.12700    26034618.00000000 16737315.00000000 41738144.00000000 9198.73632812   927686.68750000 738793.81250000 
0.12800    25719888.00000000 16543788.00000000 41244380.00000000 8987.63964844   909800.37500000 724591.18750000 
0.12900    25404842.00000000 16349365.00000000 40749596.00000000 8780.12304688   892067.12500000 710520.43750000 
0.13000    25089508.00000000 16154620.00000000 40253324.00000000 8576.45703125   874507.56250000 696571.18750000 
0.13100    24773452.00000000 15959232.00000000 39756076.00000000 8376.47460938   857116.00000000 682761.25000000 
0.13200    24457348.00000000 15763219.00000000 39258452.00000000 8180.23681641   839915.62500000 669077.62500000 
0.13300    24141024.00000000 15566709.00000000 38759344.00000000 7987.67138672   822891.18750000 655529.93750000 
0.13400    23824172.00000000 15369626.00000000 38259228.00000000 7798.84814453   806039.87500000 642132.25000000 
0.13500    23507346.00000000 15172196.00000000 37759076.00000000 7613.73339844   789381.31250000 628869.12500000 
0.13600    23190442.00000000 14974263.00000000 37257984.00000000 7432.23437500   772907.62500000 615746.75000000 
0.13700    22873464.00000000 14776127.00000000 36756628.00000000 7254.40234375   756625.06250000 602777.56250000 
0.13800    22556640.00000000 14577653.00000000 36255400.00000000 7080.08203125   740540.00000000 589953.06250000 
0.13900    22240122.00000000 14379042.00000000 35753388.00000000 6909.44238281   724651.93750000 577287.43750000 
0.14000    21923764.00000000 14180298.00000000 35252224.00000000 6742.38916016   708955.31250000 564769.37500000 
0.14100    21607982.00000000 13981560.00000000 34750948.00000000 6578.70947266   693466.62500000 552409.87500000 
0.14200    21292690.00000000 13782798.00000000 34250248.00000000 6418.58447266   678178.18750000 540206.37500000 
0.14300    20978282.00000000 13584346.00000000 33750696.00000000 6261.83789062   663098.43750000 528168.75000000 
0.14400    20664644.00000000 13385882.00000000 33251610.00000000 6108.41699219   648223.00000000 516291.31250000 
0.14500    20352058.00000000 13188106.00000000 32754128.00000000 5958.42968750   633561.37500000 504578.37500000 
0.14600    20040418.00000000 12990592.00000000 32257944.00000000 5811.72216797   619114.81250000 493029.65625000 
0.14700    19730098.00000000 12793578.00000000 31763608.00000000 5668.25390625   604874.00000000 481649.96875000 
0.14800    19421266.00000000 12597328.00000000 31270968.00000000 5527.90771484   590852.81250000 470440.18750000 
0.14900    19113824.00000000 12401772.00000000 30780808.00000000 5390.71875000   577050.00000000 459398.28125000 
0.15000    18808018.00000000 12206971.00000000 30292886.00000000 5256.61865234   563457.18750000 448526.62500000 
0.15100    18504306.00000000 12013277.00000000 29807524.00000000 5125.56884766   550081.12500000 437825.15625000 
0.15200    18202290.00000000 11820518.00000000 29324928.00000000 4997.50341797   536930.06250000 427305.81250000 
0.15300    17902590.00000000 11628971.00000000 28845566.00000000 4872.34912109   523992.87500000 416954.75000000 
0.15400    17604904.00000000 11438515.00000000 28369378.00000000 4750.08056641   511280.43750000 406774.59375000 
0.15500    17309452.00000000 11249469.00000000 27896928.00000000 4630.69140625   498783.75000000 396771.81250000 
0.15600    17016574.00000000 11061816.00000000 27427984.00000000 4514.03955078   486505.81250000 386942.62500000 
0.15700    16726569.00000000 10875598.00000000 26963244.00000000 4400.17236328   474447.81250000 377286.75000000 
0.15800    16438916.00000000 10690974.00000000 26502268.00000000 4288.92724609   462606.87500000 367807.56250000 
0.15900    16154189.00000000 10508052.00000000 26045804.00000000 4180.34179688   450992.56250000 358506.28125000 
0.16000    15872159.00000000 10326776.00000000 25593724.00000000 4074.37060547   439587.59375000 349373.71875000 
0.16100    15593289.00000000 10147353.00000000 25146444.00000000 3970.96850586   428408.87500000 340419.50000000 
0.16200    15317415.00000000 9969869.00000000 24703748.00000000 3870.04370117   417439.62500000 331636.28125000 
0.16300    15044769.00000000 9794266.00000000 24266270.00000000 3771.56469727   406687.53125000 323021.46875000 
0.16400    14775407.00000000 9620601.00000000 23833764.00000000 3675.55004883   396152.43750000 314587.59375000 
0.16500    14509396.00000000 9448987.00000000 23406538.00000000 3581.85156250   385831.75000000 306320.68750000 
0.16600    14246766.00000000 9279569.00000000 22984670.00000000 3490.54980469   375719.25000000 298222.50000000 
0.16700    13987601.00000000 9112245.00000000 22568124.00000000 3401.53051758   365818.75000000 290294.71875000 
0.16800    13731906.00000000 8947134.00000000 22157142.00000000 3314.71313477   356123.87500000 282534.75000000 
0.16900    13479852.00000000 8784291.00000000 21752148.00000000 3230.14892578   346643.81250000 274938.25000000 
0.17000    13231501.00000000 8623636.00000000 21352766.00000000 3147.74096680   337360.71875000 267509.15625000 
