# SAXS profile: number of points = 501, q_min = 0, q_max = 0.5, delta_q = 0.001
#    q    intensity 
0.00000    162236736.00000000 101201920.00000000 256271088.00000000 102013.39843750 8136485.00000000 6426180.00000000 
0.00100    162201712.00000000 101179008.00000000 256214512.00000000 101983.92968750 8134358.50000000 6424502.50000000 
0.00200    162096048.00000000 101111440.00000000 256042176.00000000 101894.53125000 8128015.50000000 6419480.50000000 
0.00300    161913408.00000000 100998736.00000000 255754736.00000000 101747.14062500 8117429.50000000 6411183.50000000 
0.00400    161657488.00000000 100840952.00000000 255353824.00000000 101540.14843750 8102632.00000000 6399548.50000000 
0.00500    161329632.00000000 100638968.00000000 254840528.00000000 101274.47656250 8083643.00000000 6384589.00000000 
0.00600    160930784.00000000 100391680.00000000 254211552.00000000 100951.25000000 8060573.00000000 6366410.00000000 
0.00700    160459760.00000000 100101168.00000000 253472768.00000000 100571.02343750 8033324.00000000 6345037.50000000 
0.00800    159917200.00000000 99767592.00000000 252622992.00000000 100133.58593750 8002007.00000000 6320394.00000000 
0.00900    159307040.00000000 99390440.00000000 251666016.00000000 99640.76562500  7966735.00000000 6292594.50000000 
0.01000    158628528.00000000 98972232.00000000 250598336.00000000 99093.07812500  7927496.00000000 6261752.50000000 
0.01100    157883984.00000000 98511424.00000000 249425984.00000000 98491.53125000  7884401.50000000 6227839.00000000 
0.01200    157072976.00000000 98009480.00000000 248149552.00000000 97837.82031250  7837473.00000000 6190908.50000000 
0.01300    156195456.00000000 97467512.00000000 246769776.00000000 97131.95312500  7786880.50000000 6151055.50000000 
0.01400    155254848.00000000 96886248.00000000 245292064.00000000 96376.53125000  7732611.50000000 6108377.50000000 
0.01500    154251648.00000000 96266408.00000000 243715056.00000000 95572.31250000  7674841.50000000 6062886.00000000 
0.01600    153188752.00000000 95609216.00000000 242044992.00000000 94720.58593750  7613603.00000000 6014708.00000000 
0.01700    152067600.00000000 94916192.00000000 240280192.00000000 93823.51562500  7549046.00000000 5963901.50000000 
0.01800    150887984.00000000 94187344.00000000 238425904.00000000 92882.22656250  7481221.50000000 5910535.00000000 
0.01900    149652768.00000000 93423888.00000000 236484736.00000000 91899.48437500  7410344.50000000 5854757.00000000 
0.02000    148365760.00000000 92627864.00000000 234459008.00000000 90875.57812500  7336456.50000000 5796567.00000000 
0.02100    147025680.00000000 91799736.00000000 232352784.00000000 89813.17187500  7259682.00000000 5736152.50000000 
0.02200    145636752.00000000 90941008.00000000 230168112.00000000 88713.85937500  7180171.50000000 5673560.50000000 
0.02300    144200672.00000000 90052632.00000000 227908592.00000000 87579.82031250  7098087.00000000 5608932.50000000 
0.02400    142718432.00000000 89136400.00000000 225577424.00000000 86412.80468750  7013479.00000000 5542328.50000000 
0.02500    141192704.00000000 88193040.00000000 223178752.00000000 85215.29687500  6926515.50000000 5473878.50000000 
0.02600    139626720.00000000 87224360.00000000 220715648.00000000 83988.68750000  6837390.50000000 5403660.00000000 
0.02700    138022592.00000000 86231504.00000000 218191104.00000000 82735.43750000  6746145.00000000 5331847.50000000 
0.02800    136381360.00000000 85216312.00000000 215610064.00000000 81457.89843750  6652995.50000000 5258499.00000000 
0.02900    134706512.00000000 84179232.00000000 212974992.00000000 80157.78125000  6558040.50000000 5183734.50000000 
0.03000    132999072.00000000 83123168.00000000 210288528.00000000 78836.85156250  6461523.50000000 5107676.50000000 
0.03100    131262872.00000000 82048624.00000000 207556464.00000000 77498.53906250  6363441.50000000 5030486.00000000 
0.03200    129499128.00000000 80957152.00000000 204781856.00000000 76142.86718750  6264017.50000000 4952160.50000000 
0.03300    127710632.00000000 79850744.00000000 201966416.00000000 74774.59375000  6163398.50000000 4872910.00000000 
0.03400    125900736.00000000 78729472.00000000 199119296.00000000 73393.42968750  6061739.50000000 4792841.00000000 
0.03500    124070176.00000000 77595856.00000000 196238176.00000000 72003.05468750  5959161.50000000 4711986.50000000 
0.03600    122223168.00000000 76451168.00000000 193328496.00000000 70604.09375000  5855775.00000000 4630558.00000000 
0.03700    120359608.00000000 75297048.00000000 190397088.00000000 69200.20312500  5751821.00000000 4548637.00000000 
0.03800    118484224.00000000 74135824.00000000 187444368.00000000 67792.07812500  5647362.50000000 4466324.00000000 
0.03900    116597928.00000000 72967208.00000000 184474992.00000000 66383.18750000  5542560.50000000 4383741.50000000 
0.04000    114703160.00000000 71793624.00000000 181490976.00000000 64973.59375000  5437488.50000000 4300931.50000000 
0.04100    112802536.00000000 70615400.00000000 178499152.00000000 63566.17578125  5332379.00000000 4218098.50000000 
0.04200    110898008.00000000 69434416.00000000 175500320.00000000 62162.67187500  5227320.00000000 4135244.25000000 
0.04300    108991664.00000000 68252464.00000000 172498848.00000000 60764.95312500  5122407.00000000 4052551.00000000 
0.04400    107086488.00000000 67070956.00000000 169496688.00000000 59374.57421875  5017816.50000000 3970074.75000000 
0.04500    105183920.00000000 65890784.00000000 166499712.00000000 57993.09765625  4913626.00000000 3887934.75000000 
0.04600    103285264.00000000 64713116.00000000 163509520.00000000 56622.34765625  4809960.00000000 3806192.75000000 
0.04700    101393312.00000000 63539304.00000000 160528432.00000000 55263.70312500  4706958.50000000 3724976.75000000 
0.04800    99510176.00000000 62370956.00000000 157561760.00000000 53918.52734375  4604706.00000000 3644339.25000000 
0.04900    97637712.00000000 61208508.00000000 154610448.00000000 52588.55078125  4503325.50000000 3564352.25000000 
0.05000    95776944.00000000 60053340.00000000 151678208.00000000 51274.29296875  4402848.50000000 3485141.00000000 
0.05100    93929816.00000000 58906632.00000000 148767984.00000000 49978.38671875  4303496.00000000 3406726.50000000 
0.05200    92098512.00000000 57769404.00000000 145880976.00000000 48700.58984375  4205252.00000000 3329208.00000000 
0.05300    90284504.00000000 56642488.00000000 143022416.00000000 47443.00390625  4108249.50000000 3252656.50000000 
0.05400    88488960.00000000 55526780.00000000 140190816.00000000 46205.61718750  4012542.25000000 3177109.00000000 
0.05500    86713112.00000000 54423304.00000000 137391312.00000000 44990.31250000  3918198.50000000 3102657.75000000 
0.05600    84958584.00000000 53333068.00000000 134624112.00000000 43796.98046875  3825307.75000000 3029314.00000000 
0.05700    83226832.00000000 52256428.00000000 131893840.00000000 42627.80859375  3733943.00000000 2957196.25000000 
0.05800    81519264.00000000 51194472.00000000 129199600.00000000 41482.43359375  3644137.75000000 2886296.00000000 
0.05900    79835512.00000000 50147372.00000000 126544752.00000000 40361.21875000  3555958.00000000 2816662.50000000 
0.06000    78177936.00000000 49116584.00000000 123930176.00000000 39264.99218750  3469454.75000000 2748338.00000000 
0.06100    76548304.00000000 48102484.00000000 121358536.00000000 38194.75781250  3384665.75000000 2681370.75000000 
0.06200    74945320.00000000 47104912.00000000 118830312.00000000 37149.85546875  3301636.00000000 2615775.50000000 
0.06300    73371544.00000000 46125304.00000000 116346488.00000000 36131.82031250  3220390.75000000 2551586.75000000 
0.06400    71826720.00000000 45163796.00000000 113908456.00000000 35139.73828125  3140949.25000000 2488843.75000000 
0.06500    70311168.00000000 44220360.00000000 111517224.00000000 34174.03906250  3063364.00000000 2427516.50000000 
0.06600    68826904.00000000 43295832.00000000 109174032.00000000 33235.83593750  2987631.50000000 2367672.25000000 
0.06700    67372800.00000000 42390252.00000000 106878880.00000000 32323.61523438  2913747.00000000 2309262.00000000 
0.06800    65950448.00000000 41504240.00000000 104633272.00000000 31438.35351562  2841766.50000000 2252349.25000000 
0.06900    64559800.00000000 40637296.00000000 102436608.00000000 30579.54882812  2771656.00000000 2196919.25000000 
0.07000    63200708.00000000 39790308.00000000 100291008.00000000 29746.98046875  2703437.50000000 2142973.25000000 
0.07100    61873216.00000000 38962876.00000000 98195352.00000000 28940.42187500  2637081.25000000 2090487.37500000 
0.07200    60578332.00000000 38155548.00000000 96149528.00000000 28159.79296875  2572589.50000000 2039485.00000000 
0.07300    59315360.00000000 37368000.00000000 94155384.00000000 27404.52148438  2509967.00000000 1989948.37500000 
0.07400    58084688.00000000 36600368.00000000 92210360.00000000 26674.53125000  2449185.75000000 1941867.50000000 
0.07500    56885420.00000000 35852300.00000000 90316984.00000000 25969.18750000  2390220.75000000 1895219.37500000 
0.07600    55718404.00000000 35124292.00000000 88472376.00000000 25287.89062500  2333054.00000000 1849979.87500000 
0.07700    54583104.00000000 34415652.00000000 86679416.00000000 24630.44140625  2277643.50000000 1806138.62500000 
0.07800    53478832.00000000 33726416.00000000 84934208.00000000 23996.04296875  2224019.75000000 1763680.37500000 
0.07900    52405564.00000000 33056880.00000000 83238208.00000000 23384.31835938  2172059.50000000 1722576.75000000 
0.08000    51362976.00000000 32406124.00000000 81591088.00000000 22794.29492188  2121795.25000000 1682784.25000000 
0.08100    50350852.00000000 31774246.00000000 79991512.00000000 22225.97851562  2073182.87500000 1644302.50000000 
0.08200    49368192.00000000 31160824.00000000 78438008.00000000 21678.14648438  2026156.87500000 1607058.50000000 
0.08300    48414632.00000000 30565636.00000000 76931624.00000000 21150.31640625  1980704.37500000 1571083.12500000 
0.08400    47489888.00000000 29988132.00000000 75469752.00000000 20641.87695312  1936761.37500000 1536283.12500000 
0.08500    46593228.00000000 29428554.00000000 74052864.00000000 20152.01562500  1894306.25000000 1502662.25000000 
0.08600    45723992.00000000 28885840.00000000 72678360.00000000 19680.10351562  1853280.00000000 1470170.62500000 
0.08700    44881700.00000000 28359962.00000000 71347680.00000000 19225.49023438  1813638.87500000 1438766.62500000 
0.08800    44065468.00000000 27850346.00000000 70057560.00000000 18787.27929688  1775321.37500000 1408433.62500000 
0.08900    43274872.00000000 27356596.00000000 68807544.00000000 18364.79882812  1738314.37500000 1379116.00000000 
0.09000    42509168.00000000 26878424.00000000 67597464.00000000 17957.60937500  1702536.25000000 1350781.00000000 
0.09100    41767108.00000000 26415184.00000000 66424724.00000000 17564.59179688  1667947.00000000 1323384.75000000 
0.09200    41048180.00000000 25966520.00000000 65288688.00000000 17185.16601562  1634508.62500000 1296902.12500000 
0.09300    40351964.00000000 25532194.00000000 64188740.00000000 16818.84960938  1602178.37500000 1271291.75000000 
0.09400    39677456.00000000 25111260.00000000 63122596.00000000 16464.69921875  1570875.87500000 1246499.37500000 
0.09500    39023456.00000000 24703584.00000000 62090040.00000000 16122.29980469  1540579.50000000 1222508.87500000 
0.09600    38390064.00000000 24308474.00000000 61089504.00000000 15790.68066406  1511232.25000000 1199261.37500000 
0.09700    37775636.00000000 23925700.00000000 60119216.00000000 15469.42871094  1482796.12500000 1176752.37500000 
0.09800    37180228.00000000 23554482.00000000 59178460.00000000 15157.84960938  1455209.62500000 1154911.25000000 
0.09900    36602680.00000000 23194454.00000000 58266380.00000000 14855.62011719  1428438.62500000 1133717.62500000 
0.10000    36041784.00000000 22845150.00000000 57381028.00000000 14561.65136719  1402447.00000000 1113124.25000000 
0.10100    35497268.00000000 22506084.00000000 56521740.00000000 14275.74804688  1377163.75000000 1093112.75000000 
0.10200    34968144.00000000 22176784.00000000 55686964.00000000 13997.30273438  1352573.62500000 1073638.75000000 
0.10300    34454060.00000000 21856862.00000000 54875284.00000000 13725.67187500  1328618.50000000 1054691.37500000 
0.10400    33953924.00000000 21545694.00000000 54086264.00000000 13460.66113281  1305275.87500000 1036207.75000000 
0.10500    33467182.00000000 21243036.00000000 53318296.00000000 13201.69824219  1282489.87500000 1018181.56250000 
0.10600    32992780.00000000 20948224.00000000 52570260.00000000 12948.16015625  1260230.75000000 1000568.37500000 
0.10700    32530404.00000000 20660954.00000000 51841116.00000000 12699.84179688  1238481.25000000 983353.37500000 
0.10800    32079184.00000000 20380904.00000000 51130304.00000000 12456.35937500  1217177.50000000 966503.62500000 
0.10900    31638690.00000000 20107444.00000000 50435432.00000000 12217.36425781  1196313.87500000 949999.81250000 
0.11000    31208082.00000000 19840252.00000000 49757164.00000000 11982.55371094  1175829.62500000 933801.43750000 
0.11100    30786912.00000000 19579022.00000000 49093580.00000000 11751.60937500  1155733.50000000 917896.06250000 
0.11200    30374396.00000000 19323394.00000000 48443864.00000000 11524.11523438  1135981.00000000 902275.12500000 
0.11300    29970338.00000000 19073034.00000000 47807652.00000000 11299.92187500  1116547.75000000 886900.62500000 
0.11400    29573906.00000000 18827552.00000000 47183340.00000000 11079.05273438  1097397.25000000 871774.06250000 
0.11500    29184622.00000000 18586420.00000000 46570648.00000000 10860.99414062  1078535.25000000 856852.18750000 
0.11600    28801952.00000000 18349720.00000000 45968484.00000000 10645.67871094  1059935.00000000 842140.75000000 
0.11700    28425766.00000000 18116734.00000000 45376380.00000000 10432.99707031  1041565.25000000 827616.43750000 
0.11800    28055264.00000000 17887664.00000000 44793188.00000000 10222.73339844  1023418.56250000 813260.87500000 
0.11900    27690242.00000000 17661852.00000000 44218924.00000000 10014.86816406  1005476.37500000 799079.50000000 
0.12000    27330012.00000000 17439144.00000000 43652132.00000000 9809.22265625   987727.50000000 785044.25000000 
0.12100    26974644.00000000 17219492.00000000 43093252.00000000 9605.93554688   970169.50000000 771149.31250000 
0.12200    26623740.00000000 17002384.00000000 42541252.00000000 9404.69433594   952771.87500000 757389.87500000 
0.12300    26276914.00000000 16787918.00000000 41995504.00000000 9205.60253906   935546.62500000 743766.81250000 
0.12400    25933472.00000000 16575766.00000000 41455860.00000000 9008.59375000   918473.68750000 730252.81250000 
0.12500    25593898.00000000 16365712.00000000 40921352.00000000 8813.71191406   901550.93750000 716864.25000000 
0.12600    25257352.00000000 16157746.00000000 40392084.00000000 8620.99023438   884776.18750000 703586.93750000 
0.12700    24924112.00000000 15951484.00000000 39867580.00000000 8430.35937500   868143.75000000 690418.37500000 
0.12800    24593670.00000000 15747087.00000000 39347692.00000000 8241.78222656   851638.56250000 677358.12500000 
0.12900    24265748.00000000 15544278.00000000 38831888.00000000 8055.49707031   835278.81250000 664402.25000000 
0.13000    23940432.00000000 15343080.00000000 38319988.00000000 7871.46289062   819058.00000000 651550.62500000 
0.13100    23617444.00000000 15143139.00000000 37811592.00000000 7689.63964844   802964.00000000 638807.43750000 
0.13200    23297058.00000000 14944710.00000000 37306964.00000000 7510.21679688   787014.12500000 626169.50000000 
0.13300    22978718.00000000 14747455.00000000 36805576.00000000 7333.23095703   771208.25000000 613634.87500000 
0.13400    22662472.00000000 14551347.00000000 36307548.00000000 7158.63281250   755538.06250000 601210.12500000 
0.13500    22348240.00000000 14356529.00000000 35812564.00000000 6986.61523438   740016.50000000 588895.12500000 
0.13600    22036230.00000000 14162886.00000000 35320596.00000000 6817.21972656   724635.31250000 576695.75000000 
0.13700    21726044.00000000 13970334.00000000 34832028.00000000 6650.41113281   709406.18750000 564609.25000000 
0.13800    21417732.00000000 13778805.00000000 34345816.00000000 6486.46679688   694335.81250000 552642.93750000 
0.13900    21111742.00000000 13588483.00000000 33862744.00000000 6325.23583984   679428.62500000 540800.56250000 
0.14000    20807402.00000000 13399245.00000000 33382856.00000000 6166.98876953   664677.93750000 529084.18750000 
0.14100    20505080.00000000 13210993.00000000 32905854.00000000 6011.67431641   650102.31250000 517500.84375000 
0.14200    20204900.00000000 13023948.00000000 32431424.00000000 5859.28173828   635701.06250000 506052.06250000 
0.14300    19906774.00000000 12838079.00000000 31960654.00000000 5710.03564453   621476.68750000 494739.25000000 
0.14400    19610646.00000000 12653212.00000000 31492402.00000000 5563.77294922   607437.12500000 483568.21875000 
0.14500    19316676.00000000 12469588.00000000 31027688.00000000 5420.76611328   593587.31250000 472546.93750000 
0.14600    19024702.00000000 12287094.00000000 30566186.00000000 5280.90771484   579937.56250000 461673.68750000 
0.14700    18735186.00000000 12105945.00000000 30107882.00000000 5144.25878906   566486.68750000 450958.81250000 
0.14800    18447986.00000000 11925934.00000000 29653090.00000000 5010.91650391   553232.75000000 440394.78125000 
0.14900    18162904.00000000 11747287.00000000 29201812.00000000 4880.76318359   540186.25000000 429995.75000000 
0.15000    17880322.00000000 11570007.00000000 28753902.00000000 4753.92480469   527357.00000000 419761.75000000 
0.15100    17600280.00000000 11394039.00000000 28309812.00000000 4630.38525391   514740.53125000 409695.59375000 
0.15200    17322820.00000000 11219667.00000000 27869906.00000000 4510.16552734   502346.09375000 399802.18750000 
0.15300    17047934.00000000 11046550.00000000 27433508.00000000 4393.19042969   490175.46875000 390081.15625000 
0.15400    16775618.00000000 10875041.00000000 27001198.00000000 4279.51171875   478228.81250000 380534.93750000 
0.15500    16506192.00000000 10705087.00000000 26573362.00000000 4169.10156250   466506.93750000 371167.34375000 
0.15600    16239449.00000000 10536694.00000000 26149292.00000000 4061.87988281   455015.28125000 361978.62500000 
0.15700    15975622.00000000 10369914.00000000 25729838.00000000 3957.89916992   443758.90625000 352971.50000000 
0.15800    15714713.00000000 10204934.00000000 25314654.00000000 3857.03710938   432728.81250000 344144.78125000 
0.15900    15456840.00000000 10041594.00000000 24904162.00000000 3759.32958984   421935.71875000 335506.03125000 
0.16000    15201905.00000000 9879970.00000000 24498082.00000000 3664.67553711   411374.43750000 327044.87500000 
0.16100    14950295.00000000 9720168.00000000 24097130.00000000 3573.08203125   401049.12500000 318775.90625000 
0.16200    14701614.00000000 9562256.00000000 23700564.00000000 3484.41577148   390955.78125000 310683.81250000 
0.16300    14456203.00000000 9406081.00000000 23309068.00000000 3398.62695312   381095.00000000 302776.40625000 
0.16400    14213964.00000000 9251902.00000000 22922476.00000000 3315.70556641   371464.46875000 295052.96875000 
0.16500    13974965.00000000 9099579.00000000 22540730.00000000 3235.51635742   362063.84375000 287509.68750000 
0.16600    13739378.00000000 8949151.00000000 22164186.00000000 3158.03637695   352893.15625000 280146.96875000 
0.16700    13506863.00000000 8800692.00000000 21792654.00000000 3083.11596680   343943.25000000 272962.15625000 
0.16800    13277774.00000000 8654156.00000000 21426276.00000000 3010.74316406   335217.84375000 265955.00000000 
0.16900    13052077.00000000 8509689.00000000 21065108.00000000 2940.86230469   326715.34375000 259121.89062500 
0.17000    12829750.00000000 8367152.50000000 20708966.00000000 2873.28686523   318423.43750000 252460.12500000 
