# SAXS profile: number of points = 501, q_min = 0, q_max = 0.5, delta_q = 0.001
#    q    intensity 
0.00000    162231200.00000000 101202136.00000000 256269776.00000000 108441.14062500 8388904.00000000 6625571.50000000 
0.00100    162195248.00000000 101176872.00000000 256205264.00000000 108405.40625000 8386470.50000000 6623648.50000000 
0.00200    162080016.00000000 101102416.00000000 256016720.00000000 108297.82812500 8379123.00000000 6617888.00000000 
0.00300    161882400.00000000 100978256.00000000 255699504.00000000 108119.53125000 8366889.00000000 6608286.00000000 
0.00400    161599648.00000000 100804176.00000000 255257616.00000000 107869.35156250 8349804.50000000 6594884.50000000 
0.00500    161231136.00000000 100580496.00000000 254686048.00000000 107549.10937500 8327874.00000000 6577686.00000000 
0.00600    160787392.00000000 100308952.00000000 253992288.00000000 107158.33593750 8301185.00000000 6556743.00000000 
0.00700    160260304.00000000 99989080.00000000 253177952.00000000 106700.19531250 8269802.00000000 6532138.50000000 
0.00800    159658512.00000000 99622880.00000000 252237696.00000000 106173.66406250 8233783.00000000 6503866.00000000 
0.00900    158983776.00000000 99210336.00000000 251179520.00000000 105580.65625000 8193152.50000000 6471986.00000000 
0.01000    158236672.00000000 98749512.00000000 250005952.00000000 104922.46875000 8148043.50000000 6436588.00000000 
0.01100    157412912.00000000 98243880.00000000 248712240.00000000 104201.17187500 8098530.50000000 6397796.00000000 
0.01200    156513472.00000000 97693320.00000000 247308272.00000000 103418.57031250 8044736.50000000 6355597.50000000 
0.01300    155544688.00000000 97099352.00000000 245792512.00000000 102575.53906250 7986757.50000000 6310089.00000000 
0.01400    154507456.00000000 96463488.00000000 244167280.00000000 101674.65625000 7924761.00000000 6261449.50000000 
0.01500    153403776.00000000 95786280.00000000 242437120.00000000 100717.75000000 7858823.50000000 6209678.50000000 
0.01600    152234464.00000000 95069216.00000000 240605680.00000000 99706.75000000  7789035.00000000 6154910.50000000 
0.01700    151002112.00000000 94313024.00000000 238674416.00000000 98644.64843750  7715575.50000000 6097327.00000000 
0.01800    149708784.00000000 93518904.00000000 236649232.00000000 97533.16406250  7638683.00000000 6036897.00000000 
0.01900    148356736.00000000 92689792.00000000 234528528.00000000 96375.07812500  7558401.50000000 5973921.50000000 
0.02000    146947808.00000000 91824392.00000000 232322912.00000000 95172.54687500  7474982.50000000 5908388.50000000 
0.02100    145486064.00000000 90926864.00000000 230029968.00000000 93928.22656250  7388443.00000000 5840467.00000000 
0.02200    143971312.00000000 89996944.00000000 227656016.00000000 92645.37500000  7299053.00000000 5770292.00000000 
0.02300    142409232.00000000 89036656.00000000 225205536.00000000 91326.25781250  7207005.50000000 5697949.00000000 
0.02400    140800704.00000000 88046824.00000000 222682768.00000000 89974.25000000  7112352.50000000 5623651.50000000 
0.02500    139148432.00000000 87031384.00000000 220092192.00000000 88590.53125000  7015448.50000000 5547463.00000000 
0.02600    137454464.00000000 85989816.00000000 217436384.00000000 87178.17187500  6916291.50000000 5469593.50000000 
0.02700    135723744.00000000 84924512.00000000 214719376.00000000 85741.68750000  6815176.50000000 5390148.50000000 
0.02800    133956888.00000000 83837064.00000000 211947216.00000000 84283.07812500  6712234.50000000 5309245.00000000 
0.02900    132156640.00000000 82728384.00000000 209123312.00000000 82803.95312500  6607682.50000000 5227032.50000000 
0.03000    130327048.00000000 81601528.00000000 206251296.00000000 81308.26562500  6501630.00000000 5143677.50000000 
0.03100    128470776.00000000 80458080.00000000 203336480.00000000 79798.95312500  6394359.50000000 5059309.50000000 
0.03200    126590544.00000000 79299112.00000000 200384336.00000000 78277.17968750  6285970.50000000 4974095.00000000 
0.03300    124688184.00000000 78126568.00000000 197396208.00000000 76747.29687500  6176689.00000000 4888131.00000000 
0.03400    122768408.00000000 76942352.00000000 194379744.00000000 75211.14062500  6066623.00000000 4801538.50000000 
0.03500    120830480.00000000 75746744.00000000 191334800.00000000 73671.92968750  5955958.00000000 4714500.00000000 
0.03600    118880304.00000000 74542024.00000000 188270816.00000000 72131.14062500  5844940.50000000 4627161.50000000 
0.03700    116919216.00000000 73330584.00000000 185186896.00000000 70591.64843750  5733667.50000000 4539507.00000000 
0.03800    114950440.00000000 72113464.00000000 182089760.00000000 69055.50781250  5622258.50000000 4451837.00000000 
0.03900    112976208.00000000 70893024.00000000 178984448.00000000 67525.03906250  5510936.00000000 4364142.00000000 
0.04000    110998432.00000000 69669696.00000000 175875584.00000000 66002.67187500  5399839.50000000 4276655.50000000 
0.04100    109020800.00000000 68445952.00000000 172761968.00000000 64490.46875000  5289133.00000000 4189425.50000000 
0.04200    107045400.00000000 67221920.00000000 169652720.00000000 62990.49609375  5178923.00000000 4102553.75000000 
0.04300    105073792.00000000 66000384.00000000 166549328.00000000 61503.83593750  5069353.00000000 4016216.25000000 
0.04400    103108512.00000000 64781928.00000000 163454304.00000000 60033.19531250  4960527.00000000 3930432.50000000 
0.04500    101151728.00000000 63568908.00000000 160372496.00000000 58579.64062500  4852638.00000000 3845336.50000000 
0.04600    99205456.00000000 62361488.00000000 157305744.00000000 57145.38281250  4745719.50000000 3761039.25000000 
0.04700    97272424.00000000 61161096.00000000 154260816.00000000 55731.12109375  4639922.50000000 3677587.25000000 
0.04800    95354336.00000000 59969488.00000000 151235952.00000000 54338.33203125  4535389.00000000 3595097.25000000 
0.04900    93452328.00000000 58787632.00000000 148237344.00000000 52968.71093750  4432169.50000000 3513623.50000000 
0.05000    91568368.00000000 57616524.00000000 145267104.00000000 51622.70703125  4330317.50000000 3433237.00000000 
0.05100    89705304.00000000 56456612.00000000 142326400.00000000 50301.56250000  4229997.50000000 3354011.00000000 
0.05200    87863032.00000000 55310280.00000000 139420560.00000000 49006.52343750  4131246.75000000 3276028.25000000 
0.05300    86043888.00000000 54177176.00000000 136549504.00000000 47737.86718750  4034124.25000000 3199308.75000000 
0.05400    84248968.00000000 53058896.00000000 133716712.00000000 46496.17187500  3938708.50000000 3123913.50000000 
0.05500    82479776.00000000 51956024.00000000 130922112.00000000 45282.88671875  3845079.75000000 3049899.00000000 
0.05600    80737616.00000000 50868764.00000000 128169728.00000000 44097.38671875  3753233.75000000 2977283.25000000 
0.05700    79023440.00000000 49798776.00000000 125460448.00000000 42940.42578125  3663262.75000000 2906146.50000000 
0.05800    77337096.00000000 48746356.00000000 122795544.00000000 41812.61328125  3575183.25000000 2836474.75000000 
0.05900    75681568.00000000 47711768.00000000 120178552.00000000 40713.32031250  3489005.25000000 2768317.25000000 
0.06000    74056392.00000000 46695524.00000000 117607856.00000000 39643.42578125  3404804.25000000 2701678.50000000 
0.06100    72461952.00000000 45698412.00000000 115086472.00000000 38602.53125000  3322537.25000000 2636573.00000000 
0.06200    70899944.00000000 44720640.00000000 112614968.00000000 37590.76953125  3242289.50000000 2573052.25000000 
0.06300    69370088.00000000 43762816.00000000 110194008.00000000 36607.58203125  3164036.25000000 2511074.50000000 
0.06400    67873072.00000000 42825292.00000000 107824208.00000000 35653.08203125  3087737.75000000 2450649.00000000 
0.06500    66409856.00000000 41907908.00000000 105507024.00000000 34726.56640625  3013428.25000000 2391795.75000000 
0.06600    64979856.00000000 41011228.00000000 103242032.00000000 33828.25781250  2941140.75000000 2334481.75000000 
0.06700    63583328.00000000 40135376.00000000 101030088.00000000 32957.28906250  2870786.00000000 2278742.75000000 
0.06800    62220796.00000000 39279756.00000000 98870744.00000000 32113.91015625  2802404.75000000 2224523.00000000 
0.06900    60892012.00000000 38445952.00000000 96765832.00000000 31296.66406250  2735963.25000000 2171858.50000000 
0.07000    59597388.00000000 37632340.00000000 94712992.00000000 30505.12695312  2671415.00000000 2120672.50000000 
0.07100    58336484.00000000 36840272.00000000 92714120.00000000 29739.19531250  2608765.25000000 2071003.12500000 
0.07200    57108720.00000000 36068500.00000000 90767392.00000000 28998.20507812  2547975.25000000 2022758.12500000 
0.07300    55914656.00000000 35317860.00000000 88874400.00000000 28281.03515625  2488968.50000000 1975963.00000000 
0.07400    54753748.00000000 34587544.00000000 87032336.00000000 27587.11328125  2431793.75000000 1930582.50000000 
0.07500    53625632.00000000 33878240.00000000 85243672.00000000 26916.11523438  2376333.75000000 1886588.87500000 
0.07600    52529856.00000000 33188840.00000000 83504216.00000000 26266.96484375  2322603.50000000 1843935.00000000 
0.07700    51466324.00000000 32519780.00000000 81816656.00000000 25639.25976562  2270510.25000000 1802619.62500000 
0.07800    50433764.00000000 31870242.00000000 80178224.00000000 25031.65625000  2220078.75000000 1762560.00000000 
0.07900    49432560.00000000 31239458.00000000 78589808.00000000 24444.01171875  2171206.50000000 1723765.87500000 
0.08000    48461556.00000000 30628354.00000000 77048968.00000000 23875.33203125  2123869.50000000 1686167.75000000 
0.08100    47520304.00000000 30035860.00000000 75555568.00000000 23325.07812500  2077999.75000000 1649770.62500000 
0.08200    46608408.00000000 29461812.00000000 74107968.00000000 22792.31835938  2033571.12500000 1614497.62500000 
0.08300    45724912.00000000 28905750.00000000 72706880.00000000 22276.19726562  1990540.00000000 1580340.50000000 
0.08400    44869620.00000000 28367532.00000000 71349200.00000000 21776.28320312  1948844.75000000 1547229.00000000 
0.08500    44041248.00000000 27846474.00000000 70035336.00000000 21291.76953125  1908446.50000000 1515158.37500000 
0.08600    43239584.00000000 27341838.00000000 68763648.00000000 20822.08007812  1869289.50000000 1484070.00000000 
0.08700    42463340.00000000 26853876.00000000 67532128.00000000 20366.27929688  1831316.00000000 1453933.37500000 
0.08800    41712568.00000000 26381782.00000000 66341624.00000000 19923.89257812  1794516.00000000 1424717.12500000 
0.08900    40985864.00000000 25924838.00000000 65188840.00000000 19494.47070312  1758811.75000000 1396375.75000000 
0.09000    40282840.00000000 25483192.00000000 64074580.00000000 19077.10937500  1724150.25000000 1368874.75000000 
0.09100    39602156.00000000 25056048.00000000 62995948.00000000 18671.37500000  1690508.62500000 1342174.37500000 
0.09200    38943648.00000000 24642864.00000000 61952644.00000000 18276.66992188  1657836.12500000 1316239.75000000 
0.09300    38306332.00000000 24243238.00000000 60943212.00000000 17892.43554688  1626079.75000000 1291050.75000000 
0.09400    37689572.00000000 23856568.00000000 59966900.00000000 17518.37890625  1595209.50000000 1266560.25000000 
0.09500    37092696.00000000 23482606.00000000 59020952.00000000 17153.66992188  1565181.62500000 1242734.50000000 
0.09600    36514560.00000000 23120604.00000000 58106124.00000000 16798.06054688  1535952.87500000 1219553.12500000 
0.09700    35954328.00000000 22770524.00000000 57219964.00000000 16451.04101562  1507480.37500000 1196980.25000000 
0.09800    35411672.00000000 22431510.00000000 56362456.00000000 16112.10351562  1479743.37500000 1174998.62500000 
0.09900    34885860.00000000 22103124.00000000 55530428.00000000 15781.19726562  1452700.12500000 1153554.37500000 
0.10000    34375680.00000000 21785008.00000000 54725348.00000000 15457.56347656  1426311.00000000 1132626.12500000 
0.10100    33880732.00000000 21476614.00000000 53943536.00000000 15141.03906250  1400546.25000000 1112200.62500000 
0.10200    33400444.00000000 21177654.00000000 53185548.00000000 14831.41796875  1375370.25000000 1092242.37500000 
0.10300    32934084.00000000 20887408.00000000 52449568.00000000 14528.12890625  1350760.50000000 1072754.75000000 
0.10400    32480602.00000000 20605768.00000000 51734876.00000000 14231.13281250  1326680.50000000 1053665.37500000 
0.10500    32040108.00000000 20332306.00000000 51040112.00000000 13940.12988281  1303118.50000000 1034999.62500000 
0.10600    31610962.00000000 20066298.00000000 50364428.00000000 13654.62011719  1280030.87500000 1016709.00000000 
0.10700    31193248.00000000 19807364.00000000 49707036.00000000 13374.74511719  1257400.87500000 998790.31250000 
0.10800    30786112.00000000 19555604.00000000 49066112.00000000 13100.03027344  1235206.75000000 981205.56250000 
0.10900    30389064.00000000 19310164.00000000 48441532.00000000 12830.32324219  1213435.62500000 963953.25000000 
0.11000    30001522.00000000 19071008.00000000 47832332.00000000 12565.61035156  1192053.37500000 947021.93750000 
0.11100    29622924.00000000 18837312.00000000 47237064.00000000 12305.63281250  1171046.25000000 930387.31250000 
0.11200    29252672.00000000 18609084.00000000 46655004.00000000 12050.19238281  1150396.12500000 914030.50000000 
0.11300    28890412.00000000 18385816.00000000 46086692.00000000 11799.07226562  1130078.62500000 897944.50000000 
0.11400    28535292.00000000 18167362.00000000 45529248.00000000 11552.39843750  1110100.75000000 882122.37500000 
0.11500    28187328.00000000 17953400.00000000 44983336.00000000 11309.88671875  1090427.25000000 866545.81250000 
0.11600    27845668.00000000 17743598.00000000 44447356.00000000 11071.36914062  1071066.00000000 851206.43750000 
0.11700    27510342.00000000 17537502.00000000 43921128.00000000 10836.87207031  1051973.25000000 836090.25000000 
0.11800    27180418.00000000 17334982.00000000 43403848.00000000 10606.16015625  1033165.43750000 821184.62500000 
0.11900    26855672.00000000 17135686.00000000 42894940.00000000 10379.25390625  1014623.50000000 806490.62500000 
0.12000    26535876.00000000 16939378.00000000 42393632.00000000 10156.10058594  996322.68750000 792000.50000000 
0.12100    26220602.00000000 16746020.00000000 41899264.00000000 9936.49511719   978282.81250000 777706.87500000 
0.12200    25909340.00000000 16555232.00000000 41411716.00000000 9720.41406250   960482.00000000 763600.62500000 
0.12300    25602224.00000000 16366726.00000000 40930324.00000000 9507.95410156   942892.18750000 749670.25000000 
0.12400    25298350.00000000 16180572.00000000 40454020.00000000 9298.80273438   925549.37500000 735918.00000000 
0.12500    24997948.00000000 15996158.00000000 39983316.00000000 9093.06542969   908411.81250000 722334.06250000 
0.12600    24700600.00000000 15813688.00000000 39517260.00000000 8890.68652344   891486.56250000 708924.93750000 
0.12700    24406002.00000000 15632874.00000000 39055444.00000000 8691.52050781   874771.93750000 695675.81250000 
0.12800    24113690.00000000 15453502.00000000 38597148.00000000 8495.59472656   858256.93750000 682580.00000000 
0.12900    23823938.00000000 15275520.00000000 38142692.00000000 8302.80859375   841947.56250000 669647.31250000 
0.13000    23536332.00000000 15098749.00000000 37691576.00000000 8113.22851562   825833.68750000 656865.00000000 
0.13100    23250446.00000000 14923035.00000000 37242908.00000000 7926.58203125   809906.87500000 644236.31250000 
0.13200    22966726.00000000 14748342.00000000 36797616.00000000 7743.06054688   794174.12500000 631757.56250000 
0.13300    22684426.00000000 14574553.00000000 36354208.00000000 7562.59082031   778628.25000000 619414.68750000 
0.13400    22403668.00000000 14401552.00000000 35913332.00000000 7385.05908203   763262.75000000 607233.87500000 
0.13500    22124298.00000000 14229179.00000000 35474348.00000000 7210.55468750   748090.12500000 595193.37500000 
0.13600    21846116.00000000 14057589.00000000 35037000.00000000 7038.93603516   733087.62500000 583288.93750000 
0.13700    21569342.00000000 13886475.00000000 34601660.00000000 6870.22021484   718281.31250000 571532.00000000 
0.13800    21293466.00000000 13715891.00000000 34167436.00000000 6704.37255859   703644.62500000 559918.75000000 
0.13900    21018734.00000000 13545794.00000000 33735224.00000000 6541.40576172   689196.81250000 548448.93750000 
0.14000    20745128.00000000 13376151.00000000 33304284.00000000 6381.30078125   674924.62500000 537114.12500000 
0.14100    20472474.00000000 13206961.00000000 32874252.00000000 6223.98535156   660826.75000000 525923.43750000 
0.14200    20200540.00000000 13038136.00000000 32445768.00000000 6069.46875000   646909.06250000 514874.34375000 
0.14300    19929854.00000000 12869636.00000000 32018614.00000000 5917.79443359   633176.31250000 503963.43750000 
0.14400    19659726.00000000 12701551.00000000 31592062.00000000 5768.83300781   619618.93750000 493195.21875000 
0.14500    19390754.00000000 12533889.00000000 31167414.00000000 5622.68896484   606242.06250000 482564.53125000 
0.14600    19122516.00000000 12366534.00000000 30743648.00000000 5479.32763672   593043.00000000 472083.34375000 
0.14700    18855232.00000000 12199710.00000000 30321252.00000000 5338.73437500   580026.43750000 461744.43750000 
0.14800    18588972.00000000 12033029.00000000 29899880.00000000 5200.92822266   567195.37500000 451542.68750000 
0.14900    18323668.00000000 11866947.00000000 29480034.00000000 5065.75585938   554536.37500000 441484.53125000 
0.15000    18059432.00000000 11701304.00000000 29061502.00000000 4933.46533203   542063.18750000 431570.21875000 
0.15100    17796204.00000000 11536246.00000000 28644456.00000000 4803.85156250   529773.43750000 421804.12500000 
0.15200    17534366.00000000 11371633.00000000 28228982.00000000 4677.02392578   517668.28125000 412181.71875000 
0.15300    17273414.00000000 11207560.00000000 27815264.00000000 4552.93212891   505752.62500000 402700.21875000 
0.15400    17013752.00000000 11043984.00000000 27403290.00000000 4431.58105469   494020.50000000 393370.46875000 
0.15500    16755509.00000000 10881223.00000000 26993030.00000000 4312.94775391   482469.93750000 384186.40625000 
0.15600    16498752.00000000 10719089.00000000 26584840.00000000 4197.12792969   471109.53125000 375148.43750000 
0.15700    16243400.00000000 10557754.00000000 26178970.00000000 4084.03857422   459939.03125000 366259.25000000 
0.15800    15989413.00000000 10397208.00000000 25775112.00000000 3973.65014648   448953.56250000 357517.15625000 
0.15900    15737190.00000000 10237515.00000000 25373652.00000000 3866.05541992   438157.90625000 348924.81250000 
0.16000    15486521.00000000 10078656.00000000 24974698.00000000 3761.21069336   427554.31250000 340481.15625000 
0.16100    15237880.00000000 9920914.00000000 24578450.00000000 3659.10644531   417137.37500000 332190.84375000 
0.16200    14990925.00000000 9764026.00000000 24184860.00000000 3559.71923828   406918.65625000 324045.75000000 
0.16300    14746077.00000000 9608334.00000000 23794334.00000000 3463.06982422   396882.93750000 316053.06250000 
0.16400    14503262.00000000 9453806.00000000 23406834.00000000 3369.14257812   387041.31250000 308207.87500000 
0.16500    14262482.00000000 9300333.00000000 23022586.00000000 3277.92529297   377393.43750000 300516.87500000 
0.16600    14023964.00000000 9148242.00000000 22641732.00000000 3189.41259766   367933.68750000 292971.06250000 
0.16700    13787671.00000000 8997389.00000000 22264206.00000000 3103.57226562   358664.75000000 285579.62500000 
0.16800    13553818.00000000 8847985.00000000 21890248.00000000 3020.35229492   349584.37500000 278333.31250000 
0.16900    13322505.00000000 8699987.00000000 21520164.00000000 2939.82519531   340699.15625000 271238.06250000 
0.17000    13093659.00000000 8553408.00000000 21153868.00000000 2861.87573242   332000.40625000 264291.09375000 
