# SAXS profile: number of points = 501, q_min = 0, q_max = 0.5, delta_q = 0.001
#    q    intensity 
0.00000    162235184.00000000 101201960.00000000 256271200.00000000 104850.46875000 8248854.50000000 6514937.50000000 
0.00100    162204272.00000000 101182040.00000000 256221616.00000000 104822.20312500 8246902.00000000 6513392.50000000 
0.00200    162112896.00000000 101124152.00000000 256073744.00000000 104737.08593750 8241107.00000000 6508817.00000000 
0.00300    161955728.00000000 101027272.00000000 255825728.00000000 104596.14062500 8231414.50000000 6501249.00000000 
0.00400    161735632.00000000 100891792.00000000 255478464.00000000 104398.70312500 8217871.00000000 6490641.50000000 
0.00500    161449296.00000000 100717440.00000000 255032816.00000000 104144.84375000 8200483.00000000 6477049.00000000 
0.00600    161100240.00000000 100504984.00000000 254488400.00000000 103835.64843750 8179343.50000000 6460470.00000000 
0.00700    160691264.00000000 100253584.00000000 253847856.00000000 103471.66406250 8154402.00000000 6440902.00000000 
0.00800    160218896.00000000 99965936.00000000 253112000.00000000 103053.20312500 8125731.00000000 6418435.50000000 
0.00900    159683408.00000000 99640592.00000000 252280416.00000000 102581.68750000 8093345.50000000 6393056.50000000 
0.01000    159092016.00000000 99278976.00000000 251353088.00000000 102056.69531250 8057369.50000000 6364879.50000000 
0.01100    158441376.00000000 98880904.00000000 250334368.00000000 101480.48437500 8017767.50000000 6333858.00000000 
0.01200    157732048.00000000 98446840.00000000 249223328.00000000 100852.59375000 7974655.00000000 6300055.50000000 
0.01300    156965312.00000000 97976680.00000000 248022432.00000000 100175.52343750 7928064.50000000 6263516.50000000 
0.01400    156138256.00000000 97472336.00000000 246731856.00000000 99449.58593750  7878121.50000000 6224332.50000000 
0.01500    155258480.00000000 96934128.00000000 245354512.00000000 98676.21875000  7824814.00000000 6182576.50000000 
0.01600    154323488.00000000 96361216.00000000 243892704.00000000 97856.96093750  7768305.00000000 6138272.00000000 
0.01700    153335472.00000000 95756824.00000000 242347296.00000000 96992.54687500  7708646.00000000 6091470.00000000 
0.01800    152296112.00000000 95120272.00000000 240719456.00000000 96084.56250000  7645887.50000000 6042297.50000000 
0.01900    151204640.00000000 94453400.00000000 239013936.00000000 95135.76562500  7580155.00000000 5990753.00000000 
0.02000    150064896.00000000 93755744.00000000 237228496.00000000 94145.49218750  7511615.50000000 5936976.50000000 
0.02100    148877696.00000000 93028144.00000000 235369360.00000000 93116.87500000  7440235.50000000 5881018.00000000 
0.02200    147643360.00000000 92272320.00000000 233437984.00000000 92051.36718750  7366210.00000000 5822927.00000000 
0.02300    146364064.00000000 91489216.00000000 231436448.00000000 90950.48437500  7289601.50000000 5762842.50000000 
0.02400    145042448.00000000 90679320.00000000 229367728.00000000 89815.98437500  7210553.00000000 5700840.50000000 
0.02500    143677584.00000000 89843672.00000000 227230384.00000000 88650.08593750  7129126.50000000 5636972.50000000 
0.02600    142274464.00000000 88983584.00000000 225032400.00000000 87453.66406250  7045475.50000000 5571342.00000000 
0.02700    140831344.00000000 88099448.00000000 222774736.00000000 86229.47656250  6959741.50000000 5504061.50000000 
0.02800    139354192.00000000 87193080.00000000 220459264.00000000 84978.75781250  6871974.50000000 5435147.00000000 
0.02900    137840576.00000000 86264480.00000000 218089856.00000000 83704.33593750  6782370.00000000 5364835.50000000 
0.03000    136295072.00000000 85316416.00000000 215666992.00000000 82407.21093750  6690961.50000000 5293082.50000000 
0.03100    134717472.00000000 84348080.00000000 213194992.00000000 81089.57031250  6597939.50000000 5220093.00000000 
0.03200    133110384.00000000 83362360.00000000 210677424.00000000 79753.75781250  6503423.50000000 5145884.50000000 
0.03300    131476152.00000000 82358904.00000000 208116672.00000000 78400.59375000  6407512.00000000 5070577.00000000 
0.03400    129817184.00000000 81340032.00000000 205515840.00000000 77033.01562500  6310303.50000000 4994223.00000000 
0.03500    128133296.00000000 80305064.00000000 202877680.00000000 75652.89843750  6211980.00000000 4917012.50000000 
0.03600    126428136.00000000 79257632.00000000 200203088.00000000 74261.92187500  6112635.00000000 4838915.00000000 
0.03700    124703272.00000000 78196488.00000000 197497296.00000000 72861.53125000  6012372.00000000 4760200.50000000 
0.03800    122959992.00000000 77125160.00000000 194762944.00000000 71454.66406250  5911415.00000000 4680795.00000000 
0.03900    121200536.00000000 76043160.00000000 192004752.00000000 70042.78125000  5809774.00000000 4600930.00000000 
0.04000    119426648.00000000 74951632.00000000 189220816.00000000 68626.68750000  5707572.00000000 4520608.50000000 
0.04100    117641216.00000000 73852888.00000000 186417936.00000000 67209.58593750  5604997.50000000 4439943.50000000 
0.04200    115843632.00000000 72746264.00000000 183598960.00000000 65792.59375000  5502145.00000000 4359098.00000000 
0.04300    114038432.00000000 71634240.00000000 180763024.00000000 64377.39843750  5399087.00000000 4278026.50000000 
0.04400    112225512.00000000 70516832.00000000 177917024.00000000 62965.56250000  5295945.00000000 4196906.00000000 
0.04500    110407560.00000000 69395936.00000000 175061904.00000000 61559.32812500  5192890.00000000 4115803.00000000 
0.04600    108586352.00000000 68272344.00000000 172201152.00000000 60159.39453125  5089967.00000000 4034812.00000000 
0.04700    106763000.00000000 67147536.00000000 169336176.00000000 58768.06640625  4987329.50000000 3954045.00000000 
0.04800    104939552.00000000 66021964.00000000 166470976.00000000 57386.34375000  4885077.50000000 3873509.25000000 
0.04900    103118640.00000000 64896912.00000000 163608976.00000000 56015.94921875  4783269.00000000 3793346.75000000 
0.05000    101299952.00000000 63773408.00000000 160750496.00000000 54657.96875000  4682028.00000000 3713619.25000000 
0.05100    99487104.00000000 62652496.00000000 157898496.00000000 53313.96093750  4581421.50000000 3634382.50000000 
0.05200    97679096.00000000 61534976.00000000 155055984.00000000 51985.21093750  4481565.00000000 3555708.75000000 
0.05300    95879936.00000000 60421832.00000000 152224608.00000000 50672.20312500  4382592.00000000 3477697.75000000 
0.05400    94089800.00000000 59313768.00000000 149407248.00000000 49377.03515625  4284489.00000000 3400380.50000000 
0.05500    92311024.00000000 58211952.00000000 146606096.00000000 48100.26953125  4187422.50000000 3323847.00000000 
0.05600    90543568.00000000 57116864.00000000 143824560.00000000 46842.78515625  4091418.25000000 3248117.25000000 
0.05700    88789464.00000000 56029840.00000000 141062352.00000000 45606.10937500  3996574.00000000 3173284.00000000 
0.05800    87050072.00000000 54951012.00000000 138322272.00000000 44390.20703125  3902907.25000000 3099415.75000000 
0.05900    85327120.00000000 53881532.00000000 135607344.00000000 43196.28125000  3810551.75000000 3026493.50000000 
0.06000    83620328.00000000 52821776.00000000 132918704.00000000 42024.97656250  3719511.75000000 2954633.25000000 
0.06100    81931608.00000000 51773024.00000000 130256896.00000000 40877.06640625  3629875.00000000 2883850.00000000 
0.06200    80262896.00000000 50735512.00000000 127624248.00000000 39752.93359375  3541684.00000000 2814197.75000000 
0.06300    78613792.00000000 49709912.00000000 125023520.00000000 38653.49218750  3455002.75000000 2745701.00000000 
0.06400    76985624.00000000 48697080.00000000 122454904.00000000 37578.29296875  3369863.75000000 2678393.00000000 
0.06500    75379192.00000000 47697004.00000000 119920056.00000000 36528.60937500  3286243.75000000 2612310.00000000 
0.06600    73796360.00000000 46710760.00000000 117420712.00000000 35504.43359375  3204295.25000000 2547493.50000000 
0.06700    72236896.00000000 45738496.00000000 114958256.00000000 34505.83984375  3123960.00000000 2483949.00000000 
0.06800    70701440.00000000 44780832.00000000 112532456.00000000 33533.35156250  3045292.75000000 2421700.75000000 
0.06900    69190176.00000000 43838448.00000000 110145136.00000000 32586.81054688  2968326.50000000 2360772.00000000 
0.07000    67705704.00000000 42911008.00000000 107797712.00000000 31666.00390625  2893067.00000000 2301198.75000000 
0.07100    66246080.00000000 41999396.00000000 105491032.00000000 30771.49218750  2819535.50000000 2242960.25000000 
0.07200    64813428.00000000 41103552.00000000 103225176.00000000 29902.78906250  2747746.25000000 2186076.75000000 
0.07300    63407780.00000000 40224160.00000000 101001640.00000000 29060.38476562  2677704.25000000 2130553.25000000 
0.07400    62029480.00000000 39361144.00000000 98820320.00000000 28243.38671875  2609392.50000000 2076411.12500000 
0.07500    60678420.00000000 38514928.00000000 96680928.00000000 27451.92187500  2542863.25000000 2023640.75000000 
0.07600    59355444.00000000 37685960.00000000 94586208.00000000 26685.81054688  2478056.75000000 1972230.37500000 
0.07700    58060312.00000000 36873740.00000000 92535024.00000000 25944.50000000  2415003.75000000 1922193.00000000 
0.07800    56793444.00000000 36078696.00000000 90527808.00000000 25227.68945312  2353699.75000000 1873515.87500000 
0.07900    55555096.00000000 35300700.00000000 88564704.00000000 24535.17773438  2294102.75000000 1826188.25000000 
0.08000    54345224.00000000 34540352.00000000 86646552.00000000 23866.58007812  2236215.50000000 1780207.62500000 
0.08100    53163504.00000000 33797252.00000000 84771848.00000000 23221.20507812  2180010.25000000 1735547.50000000 
0.08200    52010172.00000000 33071708.00000000 82942184.00000000 22598.73828125  2125496.25000000 1692209.12500000 
0.08300    50885036.00000000 32363518.00000000 81156240.00000000 21998.46289062  2072624.37500000 1650156.12500000 
0.08400    49788092.00000000 31672504.00000000 79415168.00000000 21419.95703125  2021369.00000000 1609389.00000000 
0.08500    48719480.00000000 30998690.00000000 77718008.00000000 20862.77539062  1971720.75000000 1569875.25000000 
0.08600    47678392.00000000 30342064.00000000 76064536.00000000 20326.12500000  1923640.00000000 1531603.50000000 
0.08700    46664768.00000000 29702454.00000000 74453512.00000000 19809.45312500  1877085.12500000 1494536.37500000 
0.08800    45678748.00000000 29079666.00000000 72886128.00000000 19312.08203125  1832049.00000000 1458663.12500000 
0.08900    44719312.00000000 28473478.00000000 71360984.00000000 18833.46679688  1788489.50000000 1423942.12500000 
0.09000    43786428.00000000 27883960.00000000 69877736.00000000 18373.08398438  1746356.50000000 1390372.62500000 
0.09100    42880560.00000000 27310708.00000000 68435992.00000000 17930.08789062  1705637.37500000 1357884.25000000 
0.09200    42000052.00000000 26753460.00000000 67034480.00000000 17503.86914062  1666270.75000000 1326494.00000000 
0.09300    41145396.00000000 26211908.00000000 65673796.00000000 17093.67578125  1628226.87500000 1296152.87500000 
0.09400    40315028.00000000 25685978.00000000 64352388.00000000 16698.94140625  1591469.12500000 1266820.12500000 
0.09500    39509616.00000000 25175290.00000000 63069676.00000000 16318.97167969  1555965.37500000 1238474.87500000 
0.09600    38728592.00000000 24679730.00000000 61824812.00000000 15953.07812500  1521651.25000000 1211082.12500000 
0.09700    37970480.00000000 24198840.00000000 60617284.00000000 15600.67187500  1488505.87500000 1184611.50000000 
0.09800    37235620.00000000 23732316.00000000 59445728.00000000 15260.96093750  1456476.37500000 1159031.50000000 
0.09900    36523140.00000000 23280068.00000000 58310788.00000000 14933.57128906  1425546.00000000 1134311.50000000 
0.10000    35832748.00000000 22841198.00000000 57209252.00000000 14617.61328125  1395641.25000000 1110418.12500000 
0.10100    35163416.00000000 22416022.00000000 56142216.00000000 14312.54589844  1366734.12500000 1087321.50000000 
0.10200    34514760.00000000 22003718.00000000 55108180.00000000 14017.77734375  1338777.87500000 1064979.00000000 
0.10300    33886344.00000000 21604256.00000000 54105576.00000000 13732.74511719  1311745.50000000 1043364.93750000 
0.10400    33277412.00000000 21217002.00000000 53134424.00000000 13456.87207031  1285574.62500000 1022452.50000000 
0.10500    32687584.00000000 20841942.00000000 52193376.00000000 13189.53710938  1260258.37500000 1002212.31250000 
0.10600    32116176.00000000 20478174.00000000 51281388.00000000 12930.16992188  1235717.62500000 982598.12500000 
0.10700    31562182.00000000 20125724.00000000 50397832.00000000 12678.49316406  1211936.12500000 963593.00000000 
0.10800    31025592.00000000 19784314.00000000 49541444.00000000 12433.69433594  1188875.37500000 945163.18750000 
0.10900    30505348.00000000 19453366.00000000 48711432.00000000 12195.35937500  1166505.00000000 927279.62500000 
0.11000    30000970.00000000 19132600.00000000 47906776.00000000 11963.21679688  1144772.25000000 909919.56250000 
0.11100    29511766.00000000 18821444.00000000 47126748.00000000 11736.77343750  1123657.00000000 893035.37500000 
0.11200    29037728.00000000 18519830.00000000 46369884.00000000 11515.35156250  1103101.37500000 876624.87500000 
0.11300    28577418.00000000 18227180.00000000 45635824.00000000 11299.01269531  1083108.12500000 860647.18750000 
0.11400    28130688.00000000 17943204.00000000 44923656.00000000 11087.06640625  1063621.62500000 845088.12500000 
0.11500    27697162.00000000 17667842.00000000 44232100.00000000 10879.17773438  1044605.43750000 829915.43750000 
0.11600    27275674.00000000 17399990.00000000 43560460.00000000 10675.14746094  1026047.12500000 815102.25000000 
0.11700    26866102.00000000 17140124.00000000 42907716.00000000 10474.76855469  1007912.68750000 800633.75000000 
0.11800    26467812.00000000 16887178.00000000 42273208.00000000 10277.49902344  990168.31250000 786485.50000000 
0.11900    26080176.00000000 16641598.00000000 41655676.00000000 10083.19140625  972804.93750000 772635.25000000 
0.12000    25702746.00000000 16402344.00000000 41054648.00000000 9891.64648438   955776.56250000 759067.18750000 
0.12100    25335176.00000000 16169564.00000000 40469300.00000000 9702.78222656   939070.25000000 745762.31250000 
0.12200    24976584.00000000 15942720.00000000 39899068.00000000 9516.11621094   922666.68750000 732703.00000000 
0.12300    24626908.00000000 15721578.00000000 39342796.00000000 9331.68359375   906549.50000000 719866.37500000 
0.12400    24285412.00000000 15505769.00000000 38799760.00000000 9149.37402344   890688.06250000 707247.06250000 
0.12500    23951660.00000000 15295062.00000000 38269492.00000000 8968.82226562   875065.31250000 694826.93750000 
0.12600    23625366.00000000 15089247.00000000 37750968.00000000 8790.19335938   859684.56250000 682596.81250000 
0.12700    23305994.00000000 14887956.00000000 37244024.00000000 8613.31738281   844501.50000000 670531.25000000 
0.12800    22993188.00000000 14690931.00000000 36747428.00000000 8437.99316406   829512.50000000 658631.87500000 
0.12900    22686498.00000000 14497978.00000000 36260952.00000000 8264.27441406   814723.06250000 646878.25000000 
0.13000    22385578.00000000 14308855.00000000 35783608.00000000 8092.05810547   800101.25000000 635270.81250000 
0.13100    22089938.00000000 14123244.00000000 35315228.00000000 7921.30859375   785630.06250000 623796.62500000 
0.13200    21799572.00000000 13941037.00000000 34855108.00000000 7752.07470703   771321.06250000 612445.75000000 
0.13300    21513886.00000000 13762009.00000000 34402668.00000000 7584.32373047   757160.06250000 601214.56250000 
0.13400    21232688.00000000 13585901.00000000 33957560.00000000 7417.99951172   743128.68750000 590094.31250000 
0.13500    20955600.00000000 13412571.00000000 33519216.00000000 7253.20068359   729234.25000000 579078.75000000 
0.13600    20682424.00000000 13241782.00000000 33087120.00000000 7089.92236328   715456.56250000 568165.81250000 
0.13700    20412984.00000000 13073381.00000000 32661226.00000000 6928.21191406   701807.62500000 557348.81250000 
0.13800    20146892.00000000 12907218.00000000 32240528.00000000 6768.02148438   688270.75000000 546626.31250000 
0.13900    19883842.00000000 12743185.00000000 31825030.00000000 6609.53955078   674848.93750000 536003.12500000 
0.14000    19623756.00000000 12581068.00000000 31414410.00000000 6452.70703125   661543.18750000 525460.81250000 
0.14100    19366652.00000000 12420815.00000000 31008180.00000000 6297.65234375   648344.62500000 515011.06250000 
0.14200    19111828.00000000 12262153.00000000 30606270.00000000 6144.37500000   635252.25000000 504651.18750000 
0.14300    18859902.00000000 12105211.00000000 30208300.00000000 5993.02050781   622275.18750000 494378.15625000 
0.14400    18609676.00000000 11949627.00000000 29813792.00000000 5843.57128906   609408.00000000 484191.78125000 
0.14500    18361878.00000000 11795511.00000000 29422820.00000000 5696.14550781   596652.12500000 474094.71875000 
0.14600    18116144.00000000 11642595.00000000 29035206.00000000 5550.82617188   584007.12500000 464084.78125000 
0.14700    17872162.00000000 11490923.00000000 28650466.00000000 5407.72900391   571484.31250000 454166.90625000 
0.14800    17629944.00000000 11340323.00000000 28268434.00000000 5266.76318359   559070.25000000 444342.50000000 
0.14900    17389572.00000000 11190850.00000000 27889192.00000000 5128.08056641   546778.81250000 434608.40625000 
0.15000    17150816.00000000 11042375.00000000 27512562.00000000 4991.78076172   534606.56250000 424967.21875000 
0.15100    16913386.00000000 10894772.00000000 27138270.00000000 4857.87255859   522560.43750000 415427.75000000 
0.15200    16677597.00000000 10748184.00000000 26766524.00000000 4726.53076172   510649.62500000 405990.12500000 
0.15300    16443308.00000000 10602409.00000000 26396830.00000000 4597.68603516   498866.21875000 396654.34375000 
0.15400    16210270.00000000 10457518.00000000 26029252.00000000 4471.41503906   487214.56250000 387420.34375000 
0.15500    15978888.00000000 10313411.00000000 25664026.00000000 4347.83789062   475711.12500000 378299.87500000 
0.15600    15748655.00000000 10170064.00000000 25300576.00000000 4226.90185547   464346.34375000 369286.12500000 
0.15700    15519888.00000000 10027524.00000000 24939504.00000000 4108.75683594   453128.12500000 360389.53125000 
0.15800    15292277.00000000 9885708.00000000 24580286.00000000 3993.33715820   442057.96875000 351605.09375000 
0.15900    15066117.00000000 9744664.00000000 24222974.00000000 3880.74877930   431142.93750000 342942.15625000 
0.16000    14841218.00000000 9604348.00000000 23867692.00000000 3770.95263672   420384.87500000 334403.12500000 
0.16100    14617791.00000000 9464867.00000000 23514592.00000000 3664.06152344   409791.50000000 325984.50000000 
0.16200    14395718.00000000 9326030.00000000 23163348.00000000 3560.03808594   399357.90625000 317697.37500000 
0.16300    14174999.00000000 9187988.00000000 22814248.00000000 3458.86474609   389091.56250000 309537.00000000 
0.16400    13955694.00000000 9050741.00000000 22467348.00000000 3360.58544922   378999.09375000 301508.00000000 
0.16500    13737850.00000000 8914271.00000000 22122352.00000000 3265.18896484   369074.93750000 293612.40625000 
0.16600    13521444.00000000 8778602.00000000 21779856.00000000 3172.68090820   359331.21875000 285858.12500000 
0.16700    13306566.00000000 8643692.00000000 21439154.00000000 3083.01660156   349760.31250000 278237.81250000 
0.16800    13093239.00000000 8509701.00000000 21100814.00000000 2996.20312500   340369.43750000 270753.75000000 
0.16900    12881561.00000000 8376561.00000000 20765080.00000000 2912.22924805   331164.18750000 263416.93750000 
0.17000    12671413.00000000 8244266.00000000 20431728.00000000 2831.05493164   322137.09375000 256218.98437500 
