# SAXS profile: number of points = 501, q_min = 0, q_max = 0.5, delta_q = 0.001
#    q    intensity 
0.00000    162236640.00000000 101202120.00000000 256271104.00000000 104282.76562500 8226460.00000000 6497260.00000000 
0.00100    162204240.00000000 101181016.00000000 256217136.00000000 104252.78906250 8224446.50000000 6495651.50000000 
0.00200    162105728.00000000 101118576.00000000 256059104.00000000 104163.77343750 8218348.50000000 6490842.00000000 
0.00300    161938704.00000000 101014752.00000000 255794848.00000000 104014.86718750 8208149.00000000 6482874.00000000 
0.00400    161704192.00000000 100870256.00000000 255424512.00000000 103807.82031250 8193945.00000000 6471715.00000000 
0.00500    161399856.00000000 100683416.00000000 254949776.00000000 103542.28906250 8175674.00000000 6457393.00000000 
0.00600    161029536.00000000 100454568.00000000 254366800.00000000 103218.38281250 8153475.00000000 6439939.00000000 
0.00700    160592544.00000000 100186480.00000000 253686000.00000000 102836.45312500 8127326.00000000 6419399.00000000 
0.00800    160086672.00000000 99879008.00000000 252900432.00000000 102398.61718750 8097231.00000000 6395797.50000000 
0.00900    159519680.00000000 99531872.00000000 252012896.00000000 101904.66406250 8063239.50000000 6369107.00000000 
0.01000    158890832.00000000 99145432.00000000 251024704.00000000 101355.28906250 8025497.50000000 6339486.00000000 
0.01100    158200032.00000000 98720336.00000000 249939584.00000000 100751.92968750 7984011.00000000 6306875.00000000 
0.01200    157448640.00000000 98256368.00000000 248756576.00000000 100096.07031250 7938808.00000000 6271415.50000000 
0.01300    156631664.00000000 97755152.00000000 247479424.00000000 99388.52343750  7890018.00000000 6233117.00000000 
0.01400    155755568.00000000 97216408.00000000 246105280.00000000 98630.15625000  7837708.50000000 6192042.00000000 
0.01500    154821936.00000000 96641832.00000000 244641744.00000000 97823.16406250  7781942.00000000 6148271.50000000 
0.01600    153831888.00000000 96032944.00000000 243087408.00000000 96968.80468750  7722878.50000000 6101869.00000000 
0.01700    152785280.00000000 95389544.00000000 241447184.00000000 96068.02343750  7660491.00000000 6052849.00000000 
0.01800    151684336.00000000 94713240.00000000 239720160.00000000 95122.71875000  7595005.00000000 6001443.50000000 
0.01900    150531056.00000000 94003000.00000000 237910352.00000000 94134.62500000  7526415.50000000 5947557.50000000 
0.02000    149326672.00000000 93261416.00000000 236021008.00000000 93106.24218750  7454870.00000000 5891344.00000000 
0.02100    148071712.00000000 92489880.00000000 234053392.00000000 92038.28906250  7380521.50000000 5832926.00000000 
0.02200    146769632.00000000 91688568.00000000 232009424.00000000 90932.72656250  7303431.00000000 5772399.00000000 
0.02300    145422048.00000000 90858744.00000000 229895088.00000000 89792.49218750  7223724.00000000 5709768.00000000 
0.02400    144028864.00000000 90001400.00000000 227708400.00000000 88618.46093750  7141566.50000000 5645207.00000000 
0.02500    142594960.00000000 89118024.00000000 225456672.00000000 87412.84375000  7057010.50000000 5578804.50000000 
0.02600    141118976.00000000 88209512.00000000 223140336.00000000 86177.55468750  6970263.50000000 5510605.00000000 
0.02700    139605200.00000000 87276784.00000000 220765344.00000000 84915.04687500  6881417.50000000 5440761.00000000 
0.02800    138053488.00000000 86321360.00000000 218329520.00000000 83627.54687500  6790546.00000000 5369325.50000000 
0.02900    136468336.00000000 85344856.00000000 215842160.00000000 82316.09375000  6697867.50000000 5296465.50000000 
0.03000    134850496.00000000 84347648.00000000 213300336.00000000 80983.75781250  6603464.50000000 5222234.00000000 
0.03100    133202648.00000000 83331072.00000000 210713088.00000000 79632.19531250  6507443.00000000 5146796.50000000 
0.03200    131525448.00000000 82297192.00000000 208079152.00000000 78263.07812500  6410049.50000000 5070153.00000000 
0.03300    129822080.00000000 81246936.00000000 205402720.00000000 76879.78125000  6311282.50000000 4992512.00000000 
0.03400    128094680.00000000 80181136.00000000 202689344.00000000 75483.40625000  6211373.00000000 4913924.00000000 
0.03500    126343768.00000000 79101688.00000000 199939360.00000000 74075.68750000  6110424.50000000 4834520.50000000 
0.03600    124573576.00000000 78009112.00000000 197158384.00000000 72660.11718750  6008571.00000000 4754365.50000000 
0.03700    122785608.00000000 76905592.00000000 194348528.00000000 71237.52343750  5905952.50000000 4673646.50000000 
0.03800    120980888.00000000 75791488.00000000 191511152.00000000 69809.61718750  5802669.00000000 4592389.00000000 
0.03900    119163000.00000000 74668960.00000000 188654928.00000000 68379.44531250  5698886.50000000 4510679.00000000 
0.04000    117332760.00000000 73538904.00000000 185777984.00000000 66948.14062500  5594720.00000000 4428674.00000000 
0.04100    115492368.00000000 72402232.00000000 182885136.00000000 65517.69531250  5490290.50000000 4346493.00000000 
0.04200    113644600.00000000 71260256.00000000 179979776.00000000 64089.95703125  5385736.50000000 4264184.00000000 
0.04300    111790600.00000000 70113880.00000000 177063888.00000000 62666.76171875  5281171.00000000 4181790.75000000 
0.04400    109932856.00000000 68964752.00000000 174142240.00000000 61249.69140625  5176700.50000000 4099513.75000000 
0.04500    108073096.00000000 67814464.00000000 171216624.00000000 59840.82031250  5072437.50000000 4017405.00000000 
0.04600    106213392.00000000 66663868.00000000 168291136.00000000 58440.83984375  4968518.50000000 3935528.00000000 
0.04700    104355176.00000000 65514104.00000000 165366432.00000000 57052.48046875  4865057.50000000 3853987.00000000 
0.04800    102500456.00000000 64365664.00000000 162448144.00000000 55676.35546875  4762133.00000000 3772868.75000000 
0.04900    100651328.00000000 63220556.00000000 159537040.00000000 54313.98828125  4659866.00000000 3692277.25000000 
0.05000    98808440.00000000 62079460.00000000 156637760.00000000 52967.21484375  4558357.00000000 3612234.75000000 
0.05100    96975536.00000000 60943128.00000000 153750896.00000000 51636.11328125  4457701.50000000 3532853.75000000 
0.05200    95152120.00000000 59812924.00000000 150878016.00000000 50323.34375000  4357953.50000000 3454206.75000000 
0.05300    93340408.00000000 58689472.00000000 148024976.00000000 49028.94140625  4259282.50000000 3376358.00000000 
0.05400    91542120.00000000 57574168.00000000 145193552.00000000 47754.55859375  4161670.00000000 3299357.75000000 
0.05500    89758992.00000000 56467672.00000000 142383072.00000000 46500.98828125  4065249.75000000 3223279.00000000 
0.05600    87991464.00000000 55370424.00000000 139597648.00000000 45268.52734375  3970105.25000000 3148188.00000000 
0.05700    86241416.00000000 54283884.00000000 136839600.00000000 44059.02343750  3876283.50000000 3074125.25000000 
0.05800    84509800.00000000 53208268.00000000 134110704.00000000 42872.73828125  3783833.50000000 3001139.00000000 
0.05900    82798568.00000000 52144988.00000000 131412328.00000000 41709.92968750  3692836.50000000 2929273.75000000 
0.06000    81107872.00000000 51094124.00000000 128746776.00000000 40571.48828125  3603361.25000000 2858588.50000000 
0.06100    79439248.00000000 50056408.00000000 126115696.00000000 39458.29296875  3515447.50000000 2789144.50000000 
0.06200    77794168.00000000 49033184.00000000 123519928.00000000 38370.51171875  3429136.50000000 2720920.00000000 
0.06300    76172472.00000000 48023952.00000000 120961584.00000000 37308.51953125  3344451.25000000 2653995.00000000 
0.06400    74575912.00000000 47030108.00000000 118442088.00000000 36272.13281250  3261439.75000000 2588377.50000000 
0.06500    73005752.00000000 46051664.00000000 115962856.00000000 35262.26953125  3180168.00000000 2524104.00000000 
0.06600    71460840.00000000 45089640.00000000 113524456.00000000 34278.77734375  3100627.25000000 2461199.75000000 
0.06700    69943736.00000000 44144140.00000000 111128272.00000000 33322.08984375  3022828.75000000 2399676.25000000 
0.06800    68453552.00000000 43214996.00000000 108775240.00000000 32391.53710938  2946846.50000000 2339547.00000000 
0.06900    66992372.00000000 42303440.00000000 106466808.00000000 31487.69140625  2872660.50000000 2280838.50000000 
0.07000    65559544.00000000 41409188.00000000 104202448.00000000 30610.14257812  2800266.00000000 2223549.75000000 
0.07100    64155144.00000000 40532720.00000000 101983656.00000000 29758.67187500  2729712.75000000 2167640.25000000 
0.07200    62780432.00000000 39674164.00000000 99810824.00000000 28933.72460938  2660955.00000000 2113220.75000000 
0.07300    61435632.00000000 38833636.00000000 97684592.00000000 28134.31054688  2594015.25000000 2060213.87500000 
0.07400    60120480.00000000 38011680.00000000 95605072.00000000 27360.60937500  2528905.50000000 2008619.62500000 
0.07500    58835848.00000000 37208236.00000000 93573200.00000000 26612.00585938  2465586.50000000 1958457.87500000 
0.07600    57580556.00000000 36423168.00000000 91586760.00000000 25888.25976562  2404083.00000000 1909700.75000000 
0.07700    56355352.00000000 35656760.00000000 89649064.00000000 25188.99414062  2344346.50000000 1862354.00000000 
0.07800    55160900.00000000 34908700.00000000 87758960.00000000 24513.55664062  2286388.00000000 1816390.25000000 
0.07900    53996396.00000000 34179432.00000000 85915320.00000000 23861.58593750  2230162.00000000 1771783.25000000 
0.08000    52861828.00000000 33468930.00000000 84119136.00000000 23232.37695312  2175640.75000000 1728567.50000000 
0.08100    51756776.00000000 32776532.00000000 82369616.00000000 22625.61328125  2122838.75000000 1686660.62500000 
0.08200    50681600.00000000 32102264.00000000 80666616.00000000 22040.88281250  2071698.75000000 1646086.12500000 
0.08300    49635836.00000000 31446448.00000000 79009712.00000000 21477.02148438  2022194.75000000 1606783.62500000 
0.08400    48618956.00000000 30808480.00000000 77398664.00000000 20934.02539062  1974293.75000000 1568756.37500000 
0.08500    47630700.00000000 30188318.00000000 75832400.00000000 20410.93945312  1927955.87500000 1531974.50000000 
0.08600    46670564.00000000 29585758.00000000 74311280.00000000 19907.09765625  1883160.25000000 1496403.87500000 
0.08700    45738760.00000000 29000474.00000000 72834440.00000000 19421.89257812  1839864.62500000 1462008.62500000 
0.08800    44833948.00000000 28432304.00000000 71400000.00000000 18954.68554688  1798006.62500000 1428769.25000000 
0.08900    43956692.00000000 27880832.00000000 70008872.00000000 18504.54296875  1757572.62500000 1396660.37500000 
0.09000    43105292.00000000 27345904.00000000 68658960.00000000 18071.40039062  1718533.62500000 1365630.12500000 
0.09100    42279932.00000000 26827016.00000000 67350792.00000000 17653.99414062  1680804.00000000 1335661.87500000 
0.09200    41480064.00000000 26324140.00000000 66081896.00000000 17251.85351562  1644377.37500000 1306697.50000000 
0.09300    40704980.00000000 25836682.00000000 64851720.00000000 16864.49804688  1609184.00000000 1278738.12500000 
0.09400    39954180.00000000 25364120.00000000 63660852.00000000 16491.07031250  1575211.12500000 1251733.12500000 
0.09500    39226220.00000000 24906558.00000000 62506696.00000000 16130.95605469  1542385.25000000 1225640.25000000 
0.09600    38521776.00000000 24463292.00000000 61388720.00000000 15783.46875000  1510669.50000000 1200434.50000000 
0.09700    37839244.00000000 24033934.00000000 60306040.00000000 15447.92480469  1480025.62500000 1176076.00000000 
0.09800    37178324.00000000 23618258.00000000 59257424.00000000 15123.87402344  1450401.50000000 1152541.62500000 
0.09900    36538316.00000000 23215522.00000000 58242156.00000000 14810.54296875  1421768.50000000 1129770.50000000 
0.10000    35918384.00000000 22825592.00000000 57258288.00000000 14507.54589844  1394068.62500000 1107757.00000000 
0.10100    35318096.00000000 22447800.00000000 56306500.00000000 14214.07421875  1367261.87500000 1086447.75000000 
0.10200    34736564.00000000 22082028.00000000 55383752.00000000 13929.58496094  1341308.62500000 1065812.75000000 
0.10300    34173296.00000000 21727684.00000000 54489768.00000000 13653.71289062  1316145.37500000 1045825.56250000 
0.10400    33627364.00000000 21384314.00000000 53623832.00000000 13385.77343750  1291762.12500000 1026459.00000000 
0.10500    33098238.00000000 21051634.00000000 52784668.00000000 13125.40136719  1268099.37500000 1007660.25000000 
0.10600    32584762.00000000 20729010.00000000 51970824.00000000 12872.00000000  1245124.75000000 989410.00000000 
0.10700    32087194.00000000 20416016.00000000 51181372.00000000 12625.16503906  1222791.62500000 971682.06250000 
0.10800    31604124.00000000 20112500.00000000 50415468.00000000 12384.33789062  1201088.87500000 954433.56250000 
0.10900    31134980.00000000 19817902.00000000 49671560.00000000 12149.29980469  1179941.87500000 937647.18750000 
0.11000    30679052.00000000 19531526.00000000 48949480.00000000 11919.57324219  1159340.37500000 921295.06250000 
0.11100    30235818.00000000 19253680.00000000 48247252.00000000 11694.78710938  1139242.25000000 905346.00000000 
0.11200    29804824.00000000 18983256.00000000 47564096.00000000 11474.47167969  1119616.25000000 889771.93750000 
0.11300    29385082.00000000 18720182.00000000 46899516.00000000 11258.57910156  1100434.12500000 874550.06250000 
0.11400    28976216.00000000 18464006.00000000 46252288.00000000 11046.58886719  1081659.37500000 859659.81250000 
0.11500    28577564.00000000 18214312.00000000 45621472.00000000 10838.17480469  1063264.75000000 845083.25000000 
0.11600    28188754.00000000 17970892.00000000 45005716.00000000 10633.22070312  1045228.75000000 830783.68750000 
0.11700    27808840.00000000 17733256.00000000 44404980.00000000 10431.44140625  1027527.18750000 816751.37500000 
0.11800    27437432.00000000 17501052.00000000 43817460.00000000 10232.52246094  1010122.56250000 802966.81250000 
0.11900    27074050.00000000 17274028.00000000 43242988.00000000 10036.48828125  993010.93750000 789401.56250000 
0.12000    26718144.00000000 17051760.00000000 42680400.00000000 9842.82617188   976145.18750000 776047.31250000 
0.12100    26369370.00000000 16834048.00000000 42128920.00000000 9651.71875000   959534.93750000 762893.18750000 
0.12200    26026996.00000000 16620568.00000000 41588296.00000000 9462.81738281   943143.25000000 749909.31250000 
0.12300    25690840.00000000 16410974.00000000 41057688.00000000 9276.04687500   926956.93750000 737098.18750000 
0.12400    25360090.00000000 16205128.00000000 40535748.00000000 9091.21777344   910960.50000000 724434.50000000 
0.12500    25034954.00000000 16002537.00000000 40022072.00000000 8908.37988281   895139.87500000 711906.06250000 
0.12600    24714530.00000000 15803133.00000000 39516840.00000000 8727.39746094   879489.25000000 699520.50000000 
0.12700    24398590.00000000 15606621.00000000 39018500.00000000 8548.10546875   863984.12500000 687252.93750000 
0.12800    24086842.00000000 15412822.00000000 38526928.00000000 8370.62890625   848618.87500000 675094.68750000 
0.12900    23778946.00000000 15221506.00000000 38041236.00000000 8194.78320312   833390.81250000 663038.62500000 
0.13000    23474612.00000000 15032418.00000000 37561560.00000000 8020.61181641   818275.62500000 651085.68750000 
0.13100    23173484.00000000 14845508.00000000 37086704.00000000 7848.08593750   803284.12500000 639217.75000000 
0.13200    22875278.00000000 14660313.00000000 36617144.00000000 7677.16406250   788400.81250000 627435.68750000 
0.13300    22580112.00000000 14477019.00000000 36151368.00000000 7507.91064453   773622.93750000 615737.68750000 
0.13400    22287150.00000000 14295251.00000000 35689896.00000000 7340.36474609   758947.18750000 604124.87500000 
0.13500    21996584.00000000 14114990.00000000 35232000.00000000 7174.37890625   744371.37500000 592582.06250000 
0.13600    21708148.00000000 13936055.00000000 34777736.00000000 7010.13574219   729893.93750000 581120.12500000 
0.13700    21421616.00000000 13758317.00000000 34326332.00000000 6847.61425781   715508.06250000 569730.12500000 
0.13800    21137052.00000000 13581705.00000000 33877872.00000000 6686.89794922   701216.93750000 558406.62500000 
0.13900    20854112.00000000 13406119.00000000 33432226.00000000 6527.92626953   687024.62500000 547162.06250000 
0.14000    20572836.00000000 13231510.00000000 32988648.00000000 6370.91406250   672925.93750000 535994.75000000 
0.14100    20293016.00000000 13057689.00000000 32547474.00000000 6215.74365234   658922.18750000 524893.43750000 
0.14200    20014436.00000000 12884791.00000000 32108582.00000000 6062.49267578   645025.93750000 513874.56250000 
0.14300    19737228.00000000 12712619.00000000 31671510.00000000 5911.34326172   631227.06250000 502930.90625000 
0.14400    19461298.00000000 12541024.00000000 31236282.00000000 5762.18896484   617533.18750000 492069.31250000 
0.14500    19186628.00000000 12370261.00000000 30803070.00000000 5615.18994141   603949.18750000 481290.37500000 
0.14600    18913116.00000000 12200165.00000000 30371628.00000000 5470.40332031   590480.43750000 470599.84375000 
0.14700    18640816.00000000 12030661.00000000 29941828.00000000 5327.83984375   577124.93750000 459998.50000000 
0.14800    18369474.00000000 11861755.00000000 29513678.00000000 5187.57421875   563896.25000000 449489.03125000 
0.14900    18099530.00000000 11693534.00000000 29087352.00000000 5049.62548828   550790.87500000 439074.06250000 
0.15000    17830788.00000000 11525948.00000000 28662658.00000000 4914.09423828   537815.06250000 428760.53125000 
0.15100    17563084.00000000 11358871.00000000 28239730.00000000 4781.01757812   524977.87500000 418552.71875000 
0.15200    17296704.00000000 11192595.00000000 27818826.00000000 4650.48779297   512279.65625000 408454.84375000 
0.15300    17031702.00000000 11026912.00000000 27399498.00000000 4522.44482422   499731.50000000 398465.56250000 
0.15400    16767821.00000000 10861913.00000000 26982268.00000000 4396.99804688   487330.25000000 388593.34375000 
0.15500    16505589.00000000 10697673.00000000 26567044.00000000 4274.21972656   475088.46875000 378843.15625000 
0.15600    16244549.00000000 10534075.00000000 26153644.00000000 4154.08105469   463003.71875000 369215.31250000 
0.15700    15985142.00000000 10371368.00000000 25742842.00000000 4036.66699219   451091.12500000 359716.12500000 
0.15800    15727227.00000000 10209473.00000000 25333922.00000000 3921.97192383   439344.12500000 350350.81250000 
0.15900    15470998.00000000 10048431.00000000 24927674.00000000 3810.02294922   427775.96875000 341116.62500000 
0.16000    15216357.00000000 9888380.00000000 24523688.00000000 3700.84277344   416384.87500000 332026.03125000 
0.16100    14963680.00000000 9729215.00000000 24122530.00000000 3594.47265625   405181.62500000 323079.50000000 
0.16200    14712786.00000000 9571068.00000000 23724144.00000000 3490.93188477   394166.62500000 314278.68750000 
0.16300    14463794.00000000 9413996.00000000 23328584.00000000 3390.17626953   383340.46875000 305626.62500000 
0.16400    14216932.00000000 9257993.00000000 22935970.00000000 3292.27563477   372714.90625000 297125.62500000 
0.16500    13972092.00000000 9103204.00000000 22546562.00000000 3197.16845703   362286.09375000 288782.00000000 
0.16600    13729477.00000000 8949663.00000000 22160504.00000000 3104.85961914   352057.00000000 280593.50000000 
0.16700    13489244.00000000 8797310.00000000 21777776.00000000 3015.39160156   342032.50000000 272562.18750000 
0.16800    13251118.00000000 8646253.00000000 21398392.00000000 2928.71337891   332213.46875000 264693.43750000 
0.16900    13015660.00000000 8496679.00000000 21022784.00000000 2844.83032227   322607.84375000 256994.34375000 
0.17000    12782677.00000000 8348418.00000000 20651014.00000000 2763.67968750   313212.78125000 249454.04687500 
