# SAXS profile: number of points = 501, q_min = 0, q_max = 0.5, delta_q = 0.001
#    q    intensity 
0.00000    162232112.00000000 101201640.00000000 256271504.00000000 116437.57812500 8692681.00000000 6865460.00000000 
0.00100    162197696.00000000 101177368.00000000 256211136.00000000 116399.67187500 8690189.00000000 6863505.50000000 
0.00200    162088128.00000000 101106960.00000000 256031152.00000000 116288.28906250 8682832.00000000 6857705.00000000 
0.00300    161900048.00000000 100989312.00000000 255730944.00000000 116101.51562500 8670607.00000000 6848044.50000000 
0.00400    161631712.00000000 100824888.00000000 255310016.00000000 115840.65625000 8653430.00000000 6834577.00000000 
0.00500    161286384.00000000 100612584.00000000 254769600.00000000 115506.19531250 8631384.00000000 6817268.00000000 
0.00600    160867056.00000000 100352936.00000000 254110832.00000000 115100.01562500 8604602.00000000 6796211.00000000 
0.00700    160368512.00000000 100049880.00000000 253338208.00000000 114621.25000000 8573059.00000000 6771370.00000000 
0.00800    159797408.00000000 99701144.00000000 252448464.00000000 114072.16406250 8536846.00000000 6742931.50000000 
0.00900    159158512.00000000 99309248.00000000 251444000.00000000 113453.75781250 8496007.00000000 6710805.00000000 
0.01000    158448224.00000000 98871336.00000000 250327552.00000000 112766.83593750 8450653.00000000 6675151.50000000 
0.01100    157670464.00000000 98389640.00000000 249101136.00000000 112013.80468750 8400887.00000000 6635987.50000000 
0.01200    156818576.00000000 97865688.00000000 247765216.00000000 111195.87500000 8346755.00000000 6593442.00000000 
0.01300    155897200.00000000 97299408.00000000 246325168.00000000 110314.46093750 8288390.50000000 6547546.50000000 
0.01400    154914080.00000000 96693512.00000000 244779760.00000000 109372.06250000 8225945.50000000 6498393.50000000 
0.01500    153865328.00000000 96047872.00000000 243133136.00000000 108370.10937500 8159505.00000000 6446182.50000000 
0.01600    152753024.00000000 95363720.00000000 241387696.00000000 107311.93750000 8089186.50000000 6390864.00000000 
0.01700    151581376.00000000 94641744.00000000 239548320.00000000 106198.57812500 8015180.50000000 6332652.00000000 
0.01800    150350336.00000000 93882976.00000000 237616176.00000000 105033.03125000 7937575.50000000 6271599.50000000 
0.01900    149062240.00000000 93089680.00000000 235593088.00000000 103817.43750000 7856538.50000000 6207855.50000000 
0.02000    147720544.00000000 92262520.00000000 233487952.00000000 102554.42187500 7772190.50000000 6141491.50000000 
0.02100    146325232.00000000 91402816.00000000 231295824.00000000 101247.40625000 7684753.00000000 6072666.50000000 
0.02200    144879952.00000000 90512256.00000000 229025264.00000000 99897.30468750  7594324.00000000 6001572.50000000 
0.02300    143386912.00000000 89590648.00000000 226679488.00000000 98508.53906250  7501110.50000000 5928201.00000000 
0.02400    141847664.00000000 88641968.00000000 224262192.00000000 97082.63281250  7405284.50000000 5852783.50000000 
0.02500    140265440.00000000 87665440.00000000 221777232.00000000 95623.01562500  7306949.50000000 5775435.50000000 
0.02600    138641392.00000000 86663648.00000000 219225648.00000000 94131.77343750  7206374.00000000 5696264.50000000 
0.02700    136979888.00000000 85637624.00000000 216617200.00000000 92613.07031250  7103715.00000000 5615459.00000000 
0.02800    135282704.00000000 84590168.00000000 213947664.00000000 91069.57031250  6999119.50000000 5533087.00000000 
0.02900    133552048.00000000 83520848.00000000 211227600.00000000 89502.90625000  6892729.00000000 5449368.00000000 
0.03000    131790880.00000000 82432744.00000000 208458464.00000000 87916.02343750  6784761.50000000 5364334.00000000 
0.03100    130000936.00000000 81326104.00000000 205642832.00000000 86313.17187500  6675402.50000000 5278206.00000000 
0.03200    128184784.00000000 80203816.00000000 202788320.00000000 84696.57031250  6564824.00000000 5191165.00000000 
0.03300    126346720.00000000 79067952.00000000 199896704.00000000 83068.14062500  6453225.00000000 5103264.00000000 
0.03400    124486816.00000000 77917784.00000000 196973120.00000000 81431.64062500  6340716.50000000 5014692.50000000 
0.03500    122609272.00000000 76756824.00000000 194019120.00000000 79788.82812500  6227553.00000000 4925525.50000000 
0.03600    120715776.00000000 75585040.00000000 191039680.00000000 78143.65625000  6113786.00000000 4835924.00000000 
0.03700    118809776.00000000 74404680.00000000 188040016.00000000 76497.05468750  5999661.00000000 4745983.50000000 
0.03800    116893384.00000000 73217136.00000000 185022480.00000000 74852.50000000  5885309.00000000 4655874.50000000 
0.03900    114967320.00000000 72023696.00000000 181991440.00000000 73211.53125000  5770895.50000000 4565721.50000000 
0.04000    113036680.00000000 70827552.00000000 178951968.00000000 71577.85937500  5656612.00000000 4475619.00000000 
0.04100    111101872.00000000 69628032.00000000 175903680.00000000 69952.79687500  5542521.00000000 4385723.50000000 
0.04200    109166168.00000000 68427296.00000000 172854704.00000000 68338.15625000  5428828.00000000 4296090.50000000 
0.04300    107230664.00000000 67226328.00000000 169805760.00000000 66736.71093750  5315714.50000000 4206880.00000000 
0.04400    105298432.00000000 66026808.00000000 166760528.00000000 65150.16406250  5203227.00000000 4118158.25000000 
0.04500    103371944.00000000 64830656.00000000 163724032.00000000 63580.07421875  5091548.00000000 4030059.50000000 
0.04600    101452344.00000000 63638084.00000000 160697696.00000000 62028.51562500  4980707.50000000 3942656.75000000 
0.04700    99541080.00000000 62450872.00000000 157685520.00000000 60497.32031250  4870980.50000000 3856052.00000000 
0.04800    97641784.00000000 61270064.00000000 154690256.00000000 58987.03125000  4762336.50000000 3770348.50000000 
0.04900    95755024.00000000 60096676.00000000 151714016.00000000 57500.36718750  4654915.50000000 3685584.25000000 
0.05000    93882688.00000000 58932168.00000000 148760576.00000000 56037.74218750  4548820.50000000 3601855.00000000 
0.05100    92026536.00000000 57777088.00000000 145833952.00000000 54600.24218750  4444210.50000000 3519256.75000000 
0.05200    90187976.00000000 56632896.00000000 142932912.00000000 53189.63671875  4341020.00000000 3437831.75000000 
0.05300    88369184.00000000 55500152.00000000 140062784.00000000 51806.26171875  4239453.50000000 3357623.00000000 
0.05400    86571440.00000000 54379664.00000000 137223312.00000000 50451.27343750  4139550.25000000 3278721.75000000 
0.05500    84795280.00000000 53272696.00000000 134418896.00000000 49125.55859375  4041302.50000000 3201161.75000000 
0.05600    83041504.00000000 52179952.00000000 131650968.00000000 47828.80859375  3944902.25000000 3124976.75000000 
0.05700    81313672.00000000 51102288.00000000 128921256.00000000 46562.62890625  3850289.00000000 3050229.75000000 
0.05800    79611104.00000000 50040104.00000000 126230720.00000000 45327.00390625  3757535.75000000 2976958.25000000 
0.05900    77934760.00000000 48993748.00000000 123582376.00000000 44121.81250000  3666696.00000000 2905163.00000000 
0.06000    76285200.00000000 47964328.00000000 120975896.00000000 42948.10546875  3577790.50000000 2834902.75000000 
0.06100    74663968.00000000 46952192.00000000 118414656.00000000 41805.55078125  3490868.25000000 2766190.75000000 
0.06200    73072960.00000000 45957724.00000000 115898328.00000000 40693.96484375  3405910.25000000 2699007.75000000 
0.06300    71510640.00000000 44981624.00000000 113428176.00000000 39613.85937500  3322934.00000000 2633409.00000000 
0.06400    69977976.00000000 44024232.00000000 111005600.00000000 38564.56640625  3241980.50000000 2569380.00000000 
0.06500    68477088.00000000 43085408.00000000 108631288.00000000 37545.80468750  3163042.75000000 2506930.25000000 
0.06600    67006624.00000000 42165532.00000000 106305712.00000000 36557.45312500  3086097.75000000 2446064.00000000 
0.06700    65567708.00000000 41265536.00000000 104029496.00000000 35599.62109375  3011151.25000000 2386777.50000000 
0.06800    64160752.00000000 40384960.00000000 101802984.00000000 34671.29296875  2938194.50000000 2329051.50000000 
0.06900    62785080.00000000 39524224.00000000 99627400.00000000 33771.94531250  2867235.50000000 2272889.50000000 
0.07000    61441376.00000000 38683096.00000000 97501328.00000000 32901.59765625  2798239.25000000 2218262.00000000 
0.07100    60130104.00000000 37862364.00000000 95426072.00000000 32059.28125000  2731149.50000000 2165170.75000000 
0.07200    58850896.00000000 37061496.00000000 93401464.00000000 31244.22851562  2665980.50000000 2113584.25000000 
0.07300    57603136.00000000 36280396.00000000 91427656.00000000 30456.16992188  2602714.00000000 2063485.00000000 
0.07400    56387932.00000000 35519768.00000000 89503360.00000000 29694.10937500  2541287.50000000 2014841.87500000 
0.07500    55203992.00000000 34777940.00000000 87629672.00000000 28957.21875000  2481657.25000000 1967629.87500000 
0.07600    54051812.00000000 34056336.00000000 85805944.00000000 28245.10156250  2423829.00000000 1921813.75000000 
0.07700    52930440.00000000 33354430.00000000 84031104.00000000 27556.70507812  2367712.50000000 1877382.75000000 
0.07800    51839992.00000000 32671522.00000000 82305168.00000000 26891.34570312  2313286.50000000 1834285.00000000 
0.07900    50779996.00000000 32007810.00000000 80627672.00000000 26247.99218750  2260545.25000000 1792482.37500000 
0.08000    49749924.00000000 31363154.00000000 78997080.00000000 25626.08203125  2209372.25000000 1751964.25000000 
0.08100    48749548.00000000 30736910.00000000 77414192.00000000 25024.86523438  2159796.00000000 1712675.25000000 
0.08200    47778084.00000000 30129108.00000000 75877496.00000000 24443.21093750  2111713.00000000 1674601.50000000 
0.08300    46834960.00000000 29539230.00000000 74385080.00000000 23880.40234375  2065128.62500000 1637677.87500000 
0.08400    45920156.00000000 28967134.00000000 72938192.00000000 23335.85937500  2019925.12500000 1601875.25000000 
0.08500    45032652.00000000 28412208.00000000 71534632.00000000 22808.77539062  1976111.50000000 1567162.62500000 
0.08600    44172100.00000000 27874308.00000000 70173992.00000000 22297.88867188  1933630.75000000 1533504.37500000 
0.08700    43337220.00000000 27353280.00000000 68855128.00000000 21802.99414062  1892410.87500000 1500856.25000000 
0.08800    42528492.00000000 26847984.00000000 67575840.00000000 21323.03906250  1852425.37500000 1469174.12500000 
0.08900    41744136.00000000 26358682.00000000 66336956.00000000 20857.22656250  1813632.50000000 1438445.12500000 
0.09000    40984324.00000000 25884700.00000000 65136660.00000000 20405.17187500  1775952.25000000 1408599.50000000 
0.09100    40248120.00000000 25425954.00000000 63973800.00000000 19965.86718750  1739375.25000000 1379621.37500000 
0.09200    39534552.00000000 24981520.00000000 62847064.00000000 19538.90820312  1703833.87500000 1351470.62500000 
0.09300    38843240.00000000 24551292.00000000 61756580.00000000 19123.54687500  1669293.50000000 1324126.37500000 
0.09400    38173488.00000000 24134566.00000000 60699440.00000000 18719.17187500  1635710.75000000 1297529.37500000 
0.09500    37524032.00000000 23731010.00000000 59675736.00000000 18325.08203125  1603027.37500000 1271659.50000000 
0.09600    36895076.00000000 23340568.00000000 58684376.00000000 17940.91796875  1571236.50000000 1246473.12500000 
0.09700    36285356.00000000 22962182.00000000 57723480.00000000 17566.32617188  1540283.50000000 1221973.12500000 
0.09800    35694596.00000000 22595736.00000000 56792440.00000000 17200.30468750  1510113.87500000 1198088.00000000 
0.09900    35121428.00000000 22241222.00000000 55890464.00000000 16842.99804688  1480708.50000000 1174830.62500000 
0.10000    34565616.00000000 21897136.00000000 55015580.00000000 16493.58398438  1452022.75000000 1152127.25000000 
0.10100    34026352.00000000 21563824.00000000 54167580.00000000 16151.69042969  1424057.87500000 1129986.50000000 
0.10200    33503194.00000000 21240736.00000000 53344584.00000000 15817.20410156  1396721.25000000 1108355.62500000 
0.10300    32995028.00000000 20927318.00000000 52546404.00000000 15489.35742188  1370027.25000000 1087243.37500000 
0.10400    32501848.00000000 20623152.00000000 51771492.00000000 15168.31542969  1343924.37500000 1066595.00000000 
0.10500    32022560.00000000 20328210.00000000 51019484.00000000 14853.57031250  1318418.37500000 1046410.31250000 
0.10600    31556296.00000000 20041580.00000000 50287968.00000000 14544.74414062  1293429.87500000 1026656.31250000 
0.10700    31103312.00000000 19763168.00000000 49577536.00000000 14241.82812500  1268984.37500000 1007314.81250000 
0.10800    30662308.00000000 19492348.00000000 48886092.00000000 13944.41699219  1245024.50000000 988372.37500000 
0.10900    30232838.00000000 19228978.00000000 48213080.00000000 13652.37597656  1221555.75000000 969818.93750000 
0.11000    29814624.00000000 18972616.00000000 47558008.00000000 13365.61328125  1198542.25000000 951622.81250000 
0.11100    29406620.00000000 18722950.00000000 46918960.00000000 13083.86914062  1175984.00000000 933779.18750000 
0.11200    29008712.00000000 18479412.00000000 46296452.00000000 12807.12500000  1153827.87500000 916262.06250000 
0.11300    28620180.00000000 18241822.00000000 45688400.00000000 12535.08203125  1132080.12500000 899071.56250000 
0.11400    28240860.00000000 18010088.00000000 45095048.00000000 12267.88281250  1110733.75000000 882193.06250000 
0.11500    27869992.00000000 17783514.00000000 44514696.00000000 12005.25195312  1089755.75000000 865613.56250000 
0.11600    27507054.00000000 17561924.00000000 43947752.00000000 11747.22851562  1069155.00000000 849320.87500000 
0.11700    27151678.00000000 17345152.00000000 43392488.00000000 11493.56738281  1048902.62500000 833308.00000000 
0.11800    26803650.00000000 17133074.00000000 42848488.00000000 11244.31152344  1028984.37500000 817557.87500000 
0.11900    26462192.00000000 16924822.00000000 42315064.00000000 10999.44531250  1009395.62500000 802075.68750000 
0.12000    26127172.00000000 16720554.00000000 41791624.00000000 10758.83203125  990140.62500000 786842.00000000 
0.12100    25798404.00000000 16520035.00000000 41277808.00000000 10522.76367188  971199.12500000 771863.18750000 
0.12200    25474924.00000000 16322926.00000000 40772084.00000000 10290.70703125  952551.75000000 757117.00000000 
0.12300    25156866.00000000 16128941.00000000 40275256.00000000 10062.94433594  934221.93750000 742609.18750000 
0.12400    24844022.00000000 15937978.00000000 39786304.00000000 9839.33203125   916168.62500000 728329.06250000 
0.12500    24535540.00000000 15749887.00000000 39304060.00000000 9619.93457031   898402.81250000 714271.18750000 
0.12600    24231682.00000000 15564315.00000000 38828904.00000000 9404.65722656   880925.37500000 700439.06250000 
0.12700    23931904.00000000 15381164.00000000 38359972.00000000 9193.53125000   863722.62500000 686813.62500000 
0.12800    23635978.00000000 15200219.00000000 37897276.00000000 8986.47265625   846783.81250000 673399.18750000 
0.12900    23343676.00000000 15021264.00000000 37439488.00000000 8783.56347656   830117.31250000 660202.62500000 
0.13000    23054826.00000000 14844393.00000000 36987016.00000000 8584.67773438   813698.56250000 647193.75000000 
0.13100    22769046.00000000 14669243.00000000 36539296.00000000 8389.76855469   797545.93750000 634390.25000000 
0.13200    22486158.00000000 14495662.00000000 36096120.00000000 8198.92285156   781637.06250000 621790.81250000 
0.13300    22206134.00000000 14323466.00000000 35657112.00000000 8012.02197266   765989.75000000 609387.06250000 
0.13400    21928724.00000000 14153020.00000000 35221680.00000000 7828.97167969   750575.37500000 597164.18750000 
0.13500    21653694.00000000 13983536.00000000 34789956.00000000 7649.87255859   735407.37500000 585134.50000000 
0.13600    21381122.00000000 13815315.00000000 34361348.00000000 7474.56982422   720483.56250000 573288.37500000 
0.13700    21110590.00000000 13648152.00000000 33935928.00000000 7303.09130859   705787.37500000 561622.75000000 
0.13800    20841934.00000000 13482182.00000000 33513696.00000000 7135.34423828   691321.87500000 550138.75000000 
0.13900    20575322.00000000 13316976.00000000 33093460.00000000 6971.26904297   677082.43750000 538836.87500000 
0.14000    20310466.00000000 13152622.00000000 32676294.00000000 6810.84667969   663074.81250000 527709.75000000 
0.14100    20047318.00000000 12989143.00000000 32261308.00000000 6654.02001953   649287.56250000 516746.37500000 
0.14200    19785676.00000000 12826394.00000000 31848714.00000000 6500.64453125   635712.43750000 505966.62500000 
0.14300    19525708.00000000 12664229.00000000 31437958.00000000 6350.75244141   622357.87500000 495346.18750000 
0.14400    19267044.00000000 12502833.00000000 31029312.00000000 6204.26171875   609208.87500000 484890.90625000 
0.14500    19010090.00000000 12342107.00000000 30622698.00000000 6061.05126953   596272.56250000 474596.93750000 
0.14600    18754212.00000000 12181889.00000000 30217512.00000000 5921.12792969   583547.18750000 464466.96875000 
0.14700    18499682.00000000 12022327.00000000 29814538.00000000 5784.37451172   571019.06250000 454492.37500000 
0.14800    18246642.00000000 11863258.00000000 29413042.00000000 5650.74169922   558686.93750000 444674.87500000 
0.14900    17994736.00000000 11704617.00000000 29013414.00000000 5520.08251953   546555.31250000 435006.12500000 
0.15000    17743984.00000000 11546543.00000000 28615006.00000000 5392.41503906   534610.81250000 425492.53125000 
0.15100    17494450.00000000 11389028.00000000 28218718.00000000 5267.62890625   522859.68750000 416126.31250000 
0.15200    17246008.00000000 11232128.00000000 27823854.00000000 5145.62792969   511292.06250000 406905.46875000 
0.15300    16998990.00000000 11075679.00000000 27430704.00000000 5026.35742188   499913.71875000 397826.93750000 
0.15400    16753149.00000000 10919800.00000000 27039136.00000000 4909.75830078   488710.34375000 388888.46875000 
0.15500    16508630.00000000 10764375.00000000 26649196.00000000 4795.79931641   477687.84375000 380092.34375000 
0.15600    16265191.00000000 10609606.00000000 26260798.00000000 4684.31494141   466835.15625000 371431.15625000 
0.15700    16022994.00000000 10455386.00000000 25874486.00000000 4575.35058594   456164.56250000 362904.03125000 
0.15800    15782052.00000000 10301808.00000000 25489752.00000000 4468.69677734   445652.43750000 354510.40625000 
0.15900    15542515.00000000 10148882.00000000 25106904.00000000 4364.42187500   435313.00000000 346249.68750000 
0.16000    15304229.00000000 9996494.00000000 24725886.00000000 4262.43457031   425137.65625000 338112.90625000 
0.16100    15067398.00000000 9844980.00000000 24347054.00000000 4162.66162109   415125.28125000 330114.46875000 
0.16200    14831959.00000000 9694091.00000000 23970022.00000000 4065.07128906   405272.09375000 322233.87500000 
0.16300    14597981.00000000 9543934.00000000 23595446.00000000 3969.54882812   395575.00000000 314479.25000000 
0.16400    14365514.00000000 9394777.00000000 23222696.00000000 3876.13256836   386037.09375000 306846.43750000 
0.16500    14134525.00000000 9246208.00000000 22852538.00000000 3784.68920898   376653.81250000 299337.40625000 
0.16600    13905245.00000000 9098696.00000000 22484778.00000000 3695.25048828   367418.12500000 291948.50000000 
0.16700    13677559.00000000 8952014.00000000 22119306.00000000 3607.69433594   358336.62500000 284674.00000000 
0.16800    13451577.00000000 8806248.00000000 21756306.00000000 3522.00683594   349401.65625000 277519.12500000 
0.16900    13227370.00000000 8661626.00000000 21396328.00000000 3438.25170898   340619.50000000 270485.09375000 
0.17000    13005058.00000000 8517911.00000000 21038846.00000000 3356.24633789   331976.87500000 263566.12500000 
