# SAXS profile: number of points = 501, q_min = 0, q_max = 0.5, delta_q = 0.001
#    q    intensity 
0.00000    162235088.00000000 101202096.00000000 256269648.00000000 113243.87500000 8572655.00000000 6770654.50000000 
0.00100    162200096.00000000 101178440.00000000 256211728.00000000 113210.68750000 8570379.00000000 6768892.50000000 
0.00200    162090800.00000000 101109344.00000000 256036864.00000000 113111.21875000 8563602.00000000 6763552.00000000 
0.00300    161906608.00000000 100994288.00000000 255743136.00000000 112946.98437500 8552347.00000000 6754657.50000000 
0.00400    161646272.00000000 100833192.00000000 255334048.00000000 112716.66406250 8536546.00000000 6742265.00000000 
0.00500    161311616.00000000 100626440.00000000 254808272.00000000 112421.21875000 8516378.00000000 6726337.50000000 
0.00600    160901600.00000000 100373224.00000000 254164928.00000000 112061.42968750 8491718.00000000 6706925.50000000 
0.00700    160421488.00000000 100076408.00000000 253410240.00000000 111637.64843750 8462713.00000000 6684116.50000000 
0.00800    159865312.00000000 99734656.00000000 252542240.00000000 111151.11718750 8429407.00000000 6657877.50000000 
0.00900    159239904.00000000 99350048.00000000 251561632.00000000 110601.89843750 8391752.00000000 6628248.00000000 
0.01000    158547184.00000000 98922416.00000000 250471024.00000000 109992.09375000 8349936.00000000 6595313.00000000 
0.01100    157785664.00000000 98450680.00000000 249271600.00000000 109322.09375000 8303993.50000000 6559142.00000000 
0.01200    156957424.00000000 97937128.00000000 247965536.00000000 108593.69531250 8253980.00000000 6519793.50000000 
0.01300    156059168.00000000 97383000.00000000 246553984.00000000 107807.46093750 8200034.00000000 6477293.50000000 
0.01400    155095952.00000000 96787096.00000000 245041712.00000000 106965.70312500 8142175.50000000 6431735.50000000 
0.01500    154070352.00000000 96152496.00000000 243428128.00000000 106069.50781250 8080551.00000000 6383206.00000000 
0.01600    152981920.00000000 95480248.00000000 241717664.00000000 105120.61718750 8015214.50000000 6331785.50000000 
0.01700    151833280.00000000 94770192.00000000 239910320.00000000 104120.71093750 7946378.00000000 6277566.00000000 
0.01800    150624992.00000000 94023320.00000000 238011328.00000000 103072.33593750 7874024.00000000 6220622.50000000 
0.01900    149361440.00000000 93241472.00000000 236022800.00000000 101975.39843750 7798350.00000000 6161031.00000000 
0.02000    148042944.00000000 92425624.00000000 233947760.00000000 100833.06250000 7719497.00000000 6098953.00000000 
0.02100    146669392.00000000 91576240.00000000 231788272.00000000 99648.26562500  7637579.50000000 6034428.50000000 
0.02200    145245136.00000000 90696160.00000000 229548272.00000000 98421.55468750  7552692.50000000 5967554.00000000 
0.02300    143771888.00000000 89784920.00000000 227231488.00000000 97155.65625000  7464983.00000000 5898519.50000000 
0.02400    142252240.00000000 88845024.00000000 224840688.00000000 95853.26562500  7374592.50000000 5827323.00000000 
0.02500    140688160.00000000 87876552.00000000 222379552.00000000 94515.42187500  7281697.50000000 5754174.50000000 
0.02600    139081168.00000000 86882592.00000000 219850208.00000000 93145.07031250  7186452.00000000 5679136.00000000 
0.02700    137434064.00000000 85863112.00000000 217259504.00000000 91745.00000000  7088921.50000000 5602307.50000000 
0.02800    135748928.00000000 84819728.00000000 214608512.00000000 90316.71093750  6989295.00000000 5523858.00000000 
0.02900    134027824.00000000 83754880.00000000 211899456.00000000 88862.89062500  6887776.00000000 5443880.50000000 
0.03000    132273600.00000000 82669080.00000000 209140016.00000000 87385.75781250  6784515.50000000 5362505.50000000 
0.03100    130489296.00000000 81563832.00000000 206330560.00000000 85888.15625000  6679553.50000000 5279858.50000000 
0.03200    128675992.00000000 80440728.00000000 203476592.00000000 84371.49218750  6573162.00000000 5196063.00000000 
0.03300    126836648.00000000 79302088.00000000 200583712.00000000 82839.19531250  6465411.00000000 5111158.50000000 
0.03400    124974648.00000000 78148384.00000000 197651488.00000000 81291.89843750  6356551.00000000 5025353.00000000 
0.03500    123090608.00000000 76980960.00000000 194684704.00000000 79733.71093750  6246674.00000000 4938793.00000000 
0.03600    121188472.00000000 75802248.00000000 191690720.00000000 78166.82031250  6135899.00000000 4851499.50000000 
0.03700    119269352.00000000 74613336.00000000 188668128.00000000 76592.24218750  6024451.00000000 4763698.50000000 
0.03800    117336528.00000000 73415856.00000000 185625776.00000000 75012.98437500  5912440.00000000 4675414.00000000 
0.03900    115392728.00000000 72210656.00000000 182564592.00000000 73431.14062500  5800069.50000000 4586840.00000000 
0.04000    113438824.00000000 70999888.00000000 179487808.00000000 71849.25781250  5687316.50000000 4498014.00000000 
0.04100    111477752.00000000 69784056.00000000 176399680.00000000 70269.00000000  5574508.50000000 4409087.50000000 
0.04200    109514216.00000000 68565440.00000000 173305616.00000000 68691.78906250  5461749.50000000 4320185.50000000 
0.04300    107546536.00000000 67344400.00000000 170205456.00000000 67120.77343750  5349097.50000000 4231357.50000000 
0.04400    105578760.00000000 66123664.00000000 167106448.00000000 65557.25781250  5236717.50000000 4142780.00000000 
0.04500    103613472.00000000 64903940.00000000 164009328.00000000 64002.75390625  5124812.50000000 4054528.50000000 
0.04600    101652080.00000000 63686284.00000000 160918224.00000000 62459.95703125  5013390.50000000 3966698.75000000 
0.04700    99696600.00000000 62472896.00000000 157838112.00000000 60929.98046875  4902671.50000000 3879381.75000000 
0.04800    97750048.00000000 61263728.00000000 154770160.00000000 59414.84765625  4792700.50000000 3792658.00000000 
0.04900    95813752.00000000 60061328.00000000 151717152.00000000 57915.41796875  4683650.00000000 3706635.00000000 
0.05000    93889072.00000000 58865524.00000000 148684672.00000000 56434.16796875  4575565.50000000 3621391.25000000 
0.05100    91978288.00000000 57678488.00000000 145669888.00000000 54972.29687500  4468596.00000000 3537031.75000000 
0.05200    90083568.00000000 56500584.00000000 142682528.00000000 53530.09765625  4362833.50000000 3453588.00000000 
0.05300    88205224.00000000 55333556.00000000 139720960.00000000 52110.31640625  4258340.50000000 3371176.75000000 
0.05400    86345608.00000000 54177896.00000000 136788800.00000000 50713.19921875  4155261.75000000 3289854.25000000 
0.05500    84507040.00000000 53034476.00000000 133891312.00000000 49339.81640625  4053646.00000000 3209671.75000000 
0.05600    82690664.00000000 51904684.00000000 131025920.00000000 47991.49609375  3953576.50000000 3130694.00000000 
0.05700    80897168.00000000 50788996.00000000 128195776.00000000 46668.91406250  3855104.75000000 3052989.00000000 
0.05800    79127888.00000000 49688192.00000000 125405496.00000000 45373.08593750  3758332.25000000 2976596.25000000 
0.05900    77384968.00000000 48603252.00000000 122654424.00000000 44104.32421875  3663271.75000000 2901575.50000000 
0.06000    75668440.00000000 47535164.00000000 119946952.00000000 42863.96484375  3570034.75000000 2827960.75000000 
0.06100    73980648.00000000 46484072.00000000 117282752.00000000 41651.69140625  3478607.25000000 2755803.75000000 
0.06200    72320776.00000000 45451120.00000000 114663352.00000000 40468.87500000  3389108.50000000 2685118.75000000 
0.06300    70691672.00000000 44436468.00000000 112092008.00000000 39315.33593750  3301516.25000000 2615970.25000000 
0.06400    69092240.00000000 43440504.00000000 109568240.00000000 38191.28515625  3215877.50000000 2548348.00000000 
0.06500    67525632.00000000 42463880.00000000 107094096.00000000 37097.26171875  3132245.25000000 2482289.50000000 
0.06600    65990592.00000000 41507484.00000000 104670104.00000000 36033.78125000  3050611.50000000 2417817.25000000 
0.06700    64488288.00000000 40570840.00000000 102297976.00000000 34999.98046875  2971027.50000000 2354937.50000000 
0.06800    63018788.00000000 39654704.00000000 99977448.00000000 33996.48437500  2893474.25000000 2293678.75000000 
0.06900    61583116.00000000 38759720.00000000 97709824.00000000 33023.28906250  2817973.25000000 2234043.50000000 
0.07000    60181712.00000000 37885492.00000000 95496128.00000000 32079.85156250  2744551.00000000 2176021.75000000 
0.07100    58813856.00000000 37032656.00000000 93336456.00000000 31166.08789062  2673165.75000000 2119599.00000000 
0.07200    57480744.00000000 36200916.00000000 91229760.00000000 30282.10351562  2603822.75000000 2064794.37500000 
0.07300    56182292.00000000 35390484.00000000 89178208.00000000 29427.05078125  2536533.50000000 2011609.75000000 
0.07400    54918028.00000000 34601688.00000000 87181408.00000000 28600.88476562  2471265.75000000 1960020.12500000 
0.07500    53688516.00000000 33834124.00000000 85238344.00000000 27803.40039062  2408011.00000000 1910009.62500000 
0.07600    52493204.00000000 33088458.00000000 83350256.00000000 27033.56445312  2346745.25000000 1861557.87500000 
0.07700    51332924.00000000 32363850.00000000 81516600.00000000 26290.91015625  2287430.25000000 1814665.62500000 
0.07800    50206248.00000000 31660600.00000000 79735696.00000000 25575.25585938  2230062.75000000 1769292.50000000 
0.07900    49113580.00000000 30978314.00000000 78008864.00000000 24885.81835938  2174594.50000000 1725415.87500000 
0.08000    48054488.00000000 30317102.00000000 76335128.00000000 24221.91210938  2120971.25000000 1683019.50000000 
0.08100    47028764.00000000 29676572.00000000 74713312.00000000 23582.88671875  2069224.75000000 1642075.87500000 
0.08200    46035736.00000000 29056358.00000000 73143792.00000000 22968.11523438  2019230.00000000 1602525.75000000 
0.08300    45074868.00000000 28456448.00000000 71625072.00000000 22376.65429688  1971007.62500000 1564372.25000000 
0.08400    44145812.00000000 27876336.00000000 70156920.00000000 21808.02929688  1924480.62500000 1527550.37500000 
0.08500    43248072.00000000 27315714.00000000 68737840.00000000 21261.34765625  1879642.37500000 1492061.87500000 
0.08600    42380828.00000000 26774180.00000000 67367144.00000000 20735.88671875  1836397.87500000 1457829.00000000 
0.08700    41543692.00000000 26251618.00000000 66044336.00000000 20230.83203125  1794710.62500000 1424837.37500000 
0.08800    40735872.00000000 25747292.00000000 64767992.00000000 19745.36718750  1754547.37500000 1393051.12500000 
0.08900    39956496.00000000 25260916.00000000 63536640.00000000 19278.81445312  1715847.87500000 1362412.50000000 
0.09000    39205012.00000000 24791964.00000000 62349460.00000000 18830.04687500  1678569.00000000 1332895.12500000 
0.09100    38480868.00000000 24340172.00000000 61204936.00000000 18398.60742188  1642638.12500000 1304446.62500000 
0.09200    37783216.00000000 23904914.00000000 60102232.00000000 17983.58789062  1608033.00000000 1277034.87500000 
0.09300    37110720.00000000 23485820.00000000 59040468.00000000 17584.11718750  1574678.87500000 1250624.75000000 
0.09400    36463160.00000000 23082110.00000000 58017552.00000000 17199.60937500  1542516.25000000 1225148.87500000 
0.09500    35839540.00000000 22693524.00000000 57033112.00000000 16828.95703125  1511508.50000000 1200581.87500000 
0.09600    35238964.00000000 22319484.00000000 56085252.00000000 16471.72851562  1481589.62500000 1176884.62500000 
0.09700    34660924.00000000 21959554.00000000 55172632.00000000 16127.03808594  1452725.37500000 1154021.25000000 
0.09800    34103936.00000000 21613350.00000000 54294668.00000000 15794.29785156  1424851.37500000 1131933.87500000 
0.09900    33568016.00000000 21279848.00000000 53448352.00000000 15472.61621094  1397917.75000000 1110604.00000000 
0.10000    33051468.00000000 20958780.00000000 52633852.00000000 15161.34570312  1371874.37500000 1089968.12500000 
0.10100    32553812.00000000 20649822.00000000 51849180.00000000 14859.99023438  1346678.75000000 1069992.75000000 
0.10200    32074426.00000000 20352070.00000000 51093504.00000000 14567.66113281  1322276.37500000 1050659.50000000 
0.10300    31611698.00000000 20065306.00000000 50365076.00000000 14283.81250000  1298609.37500000 1031911.37500000 
0.10400    31166090.00000000 19788800.00000000 49662364.00000000 14008.08593750  1275654.12500000 1013717.12500000 
0.10500    30735522.00000000 19522394.00000000 48984828.00000000 13739.73925781  1253353.75000000 996052.06250000 
0.10600    30319686.00000000 19264910.00000000 48330452.00000000 13478.16796875  1231670.75000000 978864.25000000 
0.10700    29917950.00000000 19016508.00000000 47698264.00000000 13222.94628906  1210565.50000000 962131.00000000 
0.10800    29528962.00000000 18776356.00000000 47086844.00000000 12973.65527344  1189988.00000000 945824.31250000 
0.10900    29152846.00000000 18543978.00000000 46494916.00000000 12729.66015625  1169914.62500000 929910.87500000 
0.11000    28788138.00000000 18319244.00000000 45922296.00000000 12490.70410156  1150291.00000000 914357.68750000 
0.11100    28434256.00000000 18101128.00000000 45366496.00000000 12256.45117188  1131099.37500000 899145.62500000 
0.11200    28090584.00000000 17889708.00000000 44826932.00000000 12026.34765625  1112294.75000000 884239.87500000 
0.11300    27756392.00000000 17684142.00000000 44302620.00000000 11800.14453125  1093856.62500000 869620.81250000 
0.11400    27431222.00000000 17484276.00000000 43792380.00000000 11577.57519531  1075753.75000000 855270.75000000 
0.11500    27113970.00000000 17289492.00000000 43295056.00000000 11358.29980469  1057950.50000000 841160.87500000 
0.11600    26804424.00000000 17099532.00000000 42810092.00000000 11142.06054688  1040432.31250000 827272.43750000 
0.11700    26501984.00000000 16913998.00000000 42336088.00000000 10928.68457031  1023180.87500000 813583.62500000 
0.11800    26205644.00000000 16732576.00000000 41872032.00000000 10717.85546875  1006148.56250000 800085.93750000 
0.11900    25915460.00000000 16554780.00000000 41417296.00000000 10509.44238281  989337.56250000 786748.93750000 
0.12000    25630136.00000000 16380272.00000000 40971256.00000000 10303.30859375  972716.18750000 773577.00000000 
0.12100    25350258.00000000 16209037.00000000 40532540.00000000 10099.35156250  956287.56250000 760543.81250000 
0.12200    25074412.00000000 16040374.00000000 40101208.00000000 9897.45898438   940014.62500000 747634.12500000 
0.12300    24802612.00000000 15874280.00000000 39675900.00000000 9697.33300781   923892.06250000 734849.68750000 
0.12400    24534426.00000000 15710241.00000000 39255864.00000000 9499.26171875   907917.62500000 722173.43750000 
0.12500    24269146.00000000 15548222.00000000 38841528.00000000 9302.85253906   892060.75000000 709593.75000000 
0.12600    24006752.00000000 15387985.00000000 38430724.00000000 9108.28417969   876335.18750000 697117.56250000 
0.12700    23746756.00000000 15229105.00000000 38024184.00000000 8915.38867188   860724.56250000 684727.00000000 
0.12800    23489088.00000000 15071565.00000000 37620856.00000000 8724.26367188   845215.43750000 672416.31250000 
0.12900    23233072.00000000 14914955.00000000 37220340.00000000 8534.86621094   829803.37500000 660192.56250000 
0.13000    22978762.00000000 14759437.00000000 36822100.00000000 8347.23339844   814498.62500000 648034.50000000 
0.13100    22725490.00000000 14604502.00000000 36426040.00000000 8161.31787109   799285.37500000 635959.31250000 
0.13200    22473566.00000000 14450326.00000000 36031328.00000000 7977.21923828   784172.68750000 623957.06250000 
0.13300    22222566.00000000 14296491.00000000 35638144.00000000 7795.04589844   769146.00000000 612021.18750000 
0.13400    21972376.00000000 14143136.00000000 35246000.00000000 7614.74853516   754216.00000000 600162.93750000 
0.13500    21722584.00000000 13989867.00000000 34854820.00000000 7436.42626953   739392.12500000 588381.37500000 
0.13600    21473410.00000000 13836873.00000000 34463704.00000000 7260.08740234   724655.87500000 576675.93750000 
0.13700    21224624.00000000 13683871.00000000 34073568.00000000 7085.88134766   710020.75000000 565046.93750000 
0.13800    20976036.00000000 13530926.00000000 33682848.00000000 6913.81738281   695494.25000000 553500.06250000 
0.13900    20727678.00000000 13377930.00000000 33293204.00000000 6744.03808594   681072.37500000 542032.18750000 
0.14000    20479342.00000000 13224912.00000000 32903014.00000000 6576.57373047   666764.43750000 530652.06250000 
0.14100    20231234.00000000 13071659.00000000 32512722.00000000 6411.51953125   652574.81250000 519370.56250000 
0.14200    19983070.00000000 12918342.00000000 32122510.00000000 6248.91455078   638508.00000000 508177.84375000 
0.14300    19734952.00000000 12764855.00000000 31732282.00000000 6088.84228516   624562.50000000 497086.75000000 
0.14400    19486972.00000000 12611101.00000000 31341478.00000000 5931.35937500   610757.56250000 486097.40625000 
0.14500    19239014.00000000 12457261.00000000 30950718.00000000 5776.61718750   597090.93750000 475221.37500000 
0.14600    18991270.00000000 12303250.00000000 30559960.00000000 5624.59619141   583573.50000000 464455.31250000 
0.14700    18743502.00000000 12149149.00000000 30168922.00000000 5475.36523438   570203.25000000 453809.75000000 
0.14800    18495948.00000000 11994907.00000000 29778000.00000000 5329.05029297   556984.31250000 443284.31250000 
0.14900    18248378.00000000 11840583.00000000 29387086.00000000 5185.59277344   543931.68750000 432886.78125000 
0.15000    18001382.00000000 11686224.00000000 28996286.00000000 5045.13476562   531049.31250000 422625.56250000 
0.15100    17754446.00000000 11531770.00000000 28605810.00000000 4907.67822266   518342.53125000 412495.68750000 
0.15200    17508178.00000000 11377429.00000000 28215682.00000000 4773.29345703   505812.90625000 402510.31250000 
0.15300    17262394.00000000 11223185.00000000 27826190.00000000 4641.95214844   493469.96875000 392672.18750000 
0.15400    17016970.00000000 11069087.00000000 27437190.00000000 4513.71142578   481314.87500000 382977.93750000 
0.15500    16772413.00000000 10915110.00000000 27049078.00000000 4388.61572266   469355.09375000 373439.68750000 
0.15600    16528491.00000000 10761425.00000000 26661722.00000000 4266.64404297   457597.43750000 364057.28125000 
0.15700    16285474.00000000 10608041.00000000 26275576.00000000 4147.85302734   446038.84375000 354836.25000000 
0.15800    16043315.00000000 10454980.00000000 25890586.00000000 4032.12866211   434685.62500000 345775.96875000 
0.15900    15802325.00000000 10302570.00000000 25507042.00000000 3919.60253906   423547.00000000 336884.37500000 
0.16000    15562321.00000000 10150358.00000000 25124950.00000000 3810.17358398   412619.90625000 328157.84375000 
0.16100    15323688.00000000 9999022.00000000 24744652.00000000 3703.85644531   401909.12500000 319606.43750000 
0.16200    15086293.00000000 9848123.00000000 24366134.00000000 3600.63671875   391412.81250000 311221.78125000 
0.16300    14850360.00000000 9697943.00000000 23989742.00000000 3500.45776367   381138.75000000 303013.78125000 
0.16400    14615874.00000000 9548537.00000000 23615496.00000000 3403.33203125   371083.40625000 294980.34375000 
0.16500    14383128.00000000 9399934.00000000 23243456.00000000 3309.19921875   361249.96875000 287120.09375000 
0.16600    14152029.00000000 9252256.00000000 22873864.00000000 3218.00048828   351641.34375000 279436.75000000 
0.16700    13922806.00000000 9105485.00000000 22506994.00000000 3129.68286133   342249.50000000 271930.34375000 
0.16800    13695235.00000000 8959656.00000000 22142890.00000000 3044.22265625   333082.09375000 264593.87500000 
0.16900    13469843.00000000 8815019.00000000 21781776.00000000 2961.57324219   324135.96875000 257442.71875000 
0.17000    13246447.00000000 8671543.00000000 21423556.00000000 2881.66333008   315408.18750000 250461.17187500 
