# SAXS profile: number of points = 501, q_min = 0, q_max = 0.5, delta_q = 0.001
#    q    intensity 
0.00000    162231552.00000000 101202120.00000000 256270064.00000000 119149.60937500 8793364.00000000 6944954.00000000 
0.00100    162191840.00000000 101174328.00000000 256201056.00000000 119107.24218750 8790628.00000000 6942830.00000000 
0.00200    162066832.00000000 101092472.00000000 255995664.00000000 118984.49218750 8782422.00000000 6936400.00000000 
0.00300    161854880.00000000 100958424.00000000 255653792.00000000 118779.55468750 8768816.00000000 6925601.50000000 
0.00400    161546224.00000000 100769104.00000000 255172208.00000000 118492.17187500 8749833.00000000 6910714.00000000 
0.00500    161148352.00000000 100525368.00000000 254551584.00000000 118125.48437500 8725376.00000000 6891457.00000000 
0.00600    160670592.00000000 100229680.00000000 253801632.00000000 117677.85937500 8695722.00000000 6868108.50000000 
0.00700    160099504.00000000 99882712.00000000 252917312.00000000 117152.29687500 8660892.00000000 6840655.50000000 
0.00800    159451952.00000000 99485064.00000000 251901024.00000000 116549.00781250 8620735.00000000 6809117.00000000 
0.00900    158726448.00000000 99036864.00000000 250754768.00000000 115869.57031250 8575544.00000000 6773601.00000000 
0.01000    157919872.00000000 98536408.00000000 249484496.00000000 115117.07812500 8525445.00000000 6734142.50000000 
0.01100    157031072.00000000 97986104.00000000 248085296.00000000 114292.37500000 8470515.00000000 6690883.50000000 
0.01200    156061200.00000000 97388512.00000000 246567088.00000000 113396.05468750 8410794.00000000 6643934.50000000 
0.01300    155018960.00000000 96745232.00000000 244927616.00000000 112432.60937500 8346533.00000000 6593323.00000000 
0.01400    153905168.00000000 96056824.00000000 243175472.00000000 111403.30468750 8277760.00000000 6539265.50000000 
0.01500    152716784.00000000 95324184.00000000 241310208.00000000 110311.24218750 8204727.00000000 6481769.50000000 
0.01600    151461808.00000000 94547024.00000000 239334432.00000000 109158.34375000 8127621.50000000 6421038.00000000 
0.01700    150139232.00000000 93730152.00000000 237254640.00000000 107946.74218750 8046477.50000000 6357210.50000000 
0.01800    148753728.00000000 92873320.00000000 235076480.00000000 106680.89062500 7961563.50000000 6290292.00000000 
0.01900    147304224.00000000 91978752.00000000 232798592.00000000 105362.76562500 7873031.00000000 6220623.50000000 
0.02000    145795648.00000000 91046920.00000000 230428160.00000000 103996.39843750 7781049.00000000 6148187.50000000 
0.02100    144233648.00000000 90080376.00000000 227968000.00000000 102582.77343750 7685814.50000000 6073174.50000000 
0.02200    142616608.00000000 89080528.00000000 225426944.00000000 101126.80468750 7587559.00000000 5995850.00000000 
0.02300    140951376.00000000 88049496.00000000 222805104.00000000 99630.41406250  7486456.50000000 5916219.00000000 
0.02400    139238400.00000000 86988648.00000000 220108880.00000000 98098.68750000  7382743.50000000 5834469.50000000 
0.02500    137478560.00000000 85900224.00000000 217342688.00000000 96533.89062500  7276499.00000000 5750856.50000000 
0.02600    135679344.00000000 84786616.00000000 214510736.00000000 94938.32812500  7168115.00000000 5665500.50000000 
0.02700    133842896.00000000 83649336.00000000 211620976.00000000 93317.06250000  7057664.50000000 5578461.50000000 
0.02800    131971952.00000000 82489224.00000000 208673728.00000000 91671.66406250  6945436.00000000 5490001.50000000 
0.02900    130067712.00000000 81308816.00000000 205677104.00000000 90006.47656250  6831599.50000000 5400338.00000000 
0.03000    128136504.00000000 80112072.00000000 202634240.00000000 88324.67968750  6716332.00000000 5309471.50000000 
0.03100    126178664.00000000 78898240.00000000 199551648.00000000 86629.82812500  6599884.50000000 5217717.00000000 
0.03200    124198696.00000000 77670704.00000000 196432816.00000000 84923.29687500  6482432.00000000 5125091.00000000 
0.03300    122200888.00000000 76431888.00000000 193284640.00000000 83210.73437500  6364255.00000000 5031931.00000000 
0.03400    120184648.00000000 75180728.00000000 190108192.00000000 81493.27343750  6245397.00000000 4938231.00000000 
0.03500    118157656.00000000 73921624.00000000 186913376.00000000 79774.23437500  6126160.00000000 4844226.50000000 
0.03600    116119560.00000000 72655440.00000000 183701632.00000000 78055.64062500  6006695.00000000 4749989.50000000 
0.03700    114073392.00000000 71385168.00000000 180476528.00000000 76341.34375000  5887151.00000000 4655706.00000000 
0.03800    112025040.00000000 70110256.00000000 177244032.00000000 74635.03906250  5767807.00000000 4561540.00000000 
0.03900    109973904.00000000 68836176.00000000 174010384.00000000 72936.64843750  5648737.50000000 4467635.00000000 
0.04000    107923688.00000000 67560848.00000000 170777632.00000000 71249.46875000  5530165.50000000 4374041.00000000 
0.04100    105878632.00000000 66288040.00000000 167549968.00000000 69576.60156250  5412205.50000000 4280927.00000000 
0.04200    103839448.00000000 65019096.00000000 164333808.00000000 67920.32812500  5295028.00000000 4188483.75000000 
0.04300    101810016.00000000 63755268.00000000 161129200.00000000 66281.29687500  5178822.00000000 4096717.25000000 
0.04400    99791232.00000000 62498136.00000000 157942080.00000000 64662.26171875  5063601.00000000 4005753.75000000 
0.04500    97786128.00000000 61249020.00000000 154777200.00000000 63064.85937500  4949624.00000000 3915762.25000000 
0.04600    95797136.00000000 60009544.00000000 151637808.00000000 61491.19921875  4836894.50000000 3826785.50000000 
0.04700    93826392.00000000 58780572.00000000 148525552.00000000 59942.16796875  4725596.00000000 3738891.75000000 
0.04800    91874800.00000000 57564092.00000000 145443696.00000000 58419.47656250  4615914.00000000 3652206.75000000 
0.04900    89946168.00000000 56360944.00000000 142398016.00000000 56924.07812500  4507772.00000000 3566791.00000000 
0.05000    88040520.00000000 55171548.00000000 139386704.00000000 55457.06250000  4401369.50000000 3482730.25000000 
0.05100    86160672.00000000 53997964.00000000 136416560.00000000 54019.32812500  4296749.50000000 3400061.00000000 
0.05200    84307600.00000000 52841388.00000000 133488504.00000000 52611.96484375  4194045.75000000 3318849.75000000 
0.05300    82482480.00000000 51701940.00000000 130604584.00000000 51235.64062500  4093168.00000000 3239182.00000000 
0.05400    80687216.00000000 50580516.00000000 127767048.00000000 49891.22265625  3994349.75000000 3161068.25000000 
0.05500    78923928.00000000 49478108.00000000 124977808.00000000 48578.46093750  3897528.50000000 3084521.00000000 
0.05600    77191736.00000000 48395700.00000000 122238480.00000000 47297.71875000  3802816.00000000 3009632.00000000 
0.05700    75492280.00000000 47333272.00000000 119552056.00000000 46049.61718750  3710164.00000000 2936402.25000000 
0.05800    73827072.00000000 46291964.00000000 116917728.00000000 44834.53906250  3619710.00000000 2864850.50000000 
0.05900    72195360.00000000 45271952.00000000 114338192.00000000 43651.58203125  3531354.50000000 2794969.00000000 
0.06000    70599552.00000000 44274056.00000000 111814624.00000000 42501.64453125  3445160.75000000 2726826.50000000 
0.06100    69039984.00000000 43298052.00000000 109346128.00000000 41384.17187500  3361163.50000000 2660368.75000000 
0.06200    67516344.00000000 42344824.00000000 106936800.00000000 40298.43750000  3279347.00000000 2595647.00000000 
0.06300    66029412.00000000 41414496.00000000 104584208.00000000 39244.64062500  3199682.50000000 2532640.75000000 
0.06400    64578980.00000000 40507020.00000000 102289496.00000000 38221.76953125  3122166.75000000 2471304.00000000 
0.06500    63166180.00000000 39622652.00000000 100053496.00000000 37230.20312500  3046800.25000000 2411677.50000000 
0.06600    61789368.00000000 38761736.00000000 97876960.00000000 36268.60937500  2973549.75000000 2353741.75000000 
0.06700    60450596.00000000 37923856.00000000 95758416.00000000 35336.92187500  2902418.50000000 2297454.50000000 
0.06800    59148116.00000000 37109404.00000000 93698440.00000000 34434.35156250  2833332.75000000 2242788.75000000 
0.06900    57882912.00000000 36318072.00000000 91697888.00000000 33559.93750000  2766261.50000000 2189760.75000000 
0.07000    56653856.00000000 35549900.00000000 89753752.00000000 32713.22656250  2701216.25000000 2138290.00000000 
0.07100    55461156.00000000 34804304.00000000 87867528.00000000 31893.16601562  2638098.00000000 2088362.75000000 
0.07200    54304460.00000000 34081356.00000000 86038720.00000000 31099.62500000  2576920.75000000 2039953.50000000 
0.07300    53183132.00000000 33381226.00000000 84266216.00000000 30331.04101562  2517591.00000000 1993039.62500000 
0.07400    52096700.00000000 32702750.00000000 82548720.00000000 29586.69531250  2460106.50000000 1947563.87500000 
0.07500    51044492.00000000 32046216.00000000 80887256.00000000 28866.10351562  2404373.00000000 1903486.62500000 
0.07600    50026304.00000000 31410906.00000000 79277400.00000000 28168.23632812  2350363.00000000 1860777.62500000 
0.07700    49040732.00000000 30796686.00000000 77721768.00000000 27492.36328125  2298037.50000000 1819407.62500000 
0.07800    48087768.00000000 30203078.00000000 76216752.00000000 26837.39453125  2247333.50000000 1779323.25000000 
0.07900    47166492.00000000 29629630.00000000 74762656.00000000 26202.62500000  2198194.25000000 1740477.12500000 
0.08000    46276008.00000000 29075672.00000000 73358992.00000000 25587.21093750  2150557.75000000 1702828.87500000 
0.08100    45415856.00000000 28540950.00000000 72002000.00000000 24990.54101562  2104394.00000000 1666338.87500000 
0.08200    44584760.00000000 28025020.00000000 70692224.00000000 24411.46289062  2059655.87500000 1630977.50000000 
0.08300    43782244.00000000 27527074.00000000 69427672.00000000 23849.54687500  2016251.37500000 1596682.25000000 
0.08400    43007256.00000000 27046978.00000000 68207424.00000000 23304.00000000  1974117.12500000 1563426.00000000 
0.08500    42259336.00000000 26583978.00000000 67030768.00000000 22773.99023438  1933284.50000000 1531173.50000000 
0.08600    41537060.00000000 26137518.00000000 65894264.00000000 22258.94921875  1893620.12500000 1499861.87500000 
0.08700    40839840.00000000 25707164.00000000 64798524.00000000 21757.96289062  1855125.87500000 1469466.50000000 
0.08800    40166820.00000000 25291688.00000000 63740976.00000000 21270.65625000  1817726.62500000 1439974.50000000 
0.08900    39517120.00000000 24891648.00000000 62721016.00000000 20796.13085938  1781389.12500000 1411283.87500000 
0.09000    38889792.00000000 24505778.00000000 61737008.00000000 20334.18750000  1746049.00000000 1383417.37500000 
0.09100    38283552.00000000 24133584.00000000 60786256.00000000 19883.96289062  1711686.00000000 1356303.00000000 
0.09200    37697872.00000000 23774542.00000000 59868716.00000000 19445.31640625  1678233.12500000 1329933.87500000 
0.09300    37132212.00000000 23428106.00000000 58983036.00000000 19017.30078125  1645679.12500000 1304272.75000000 
0.09400    36585248.00000000 23093730.00000000 58127656.00000000 18599.75000000  1613949.62500000 1279261.50000000 
0.09500    36056492.00000000 22770836.00000000 57300740.00000000 18191.88867188  1583030.12500000 1254887.37500000 
0.09600    35544548.00000000 22458782.00000000 56500932.00000000 17793.95898438  1552873.75000000 1231133.25000000 
0.09700    35049176.00000000 22157096.00000000 55727512.00000000 17404.96484375  1523458.62500000 1207956.75000000 
0.09800    34568988.00000000 21865734.00000000 54978616.00000000 17025.12695312  1494738.00000000 1185332.25000000 
0.09900    34103588.00000000 21583366.00000000 54253488.00000000 16653.57226562  1466682.75000000 1163229.00000000 
0.10000    33652464.00000000 21309822.00000000 53550812.00000000 16290.20507812  1439272.25000000 1141635.75000000 
0.10100    33214204.00000000 21044834.00000000 52868972.00000000 15934.85546875  1412465.87500000 1120523.75000000 
0.10200    32788884.00000000 20787736.00000000 52206844.00000000 15587.20019531  1386243.12500000 1099883.25000000 
0.10300    32374908.00000000 20537898.00000000 51563168.00000000 15246.99121094  1360590.00000000 1079667.62500000 
0.10400    31972104.00000000 20295016.00000000 50937096.00000000 14914.00292969  1335459.87500000 1059866.12500000 
0.10500    31579932.00000000 20058790.00000000 50328344.00000000 14588.22265625  1310855.12500000 1040487.87500000 
0.10600    31197256.00000000 19828774.00000000 49734512.00000000 14269.27343750  1286730.12500000 1021485.43750000 
0.10700    30824056.00000000 19604156.00000000 49154576.00000000 13956.92968750  1263079.75000000 1002857.62500000 
0.10800    30459208.00000000 19385078.00000000 48588844.00000000 13651.36914062  1239883.12500000 984590.56250000 
0.10900    30102370.00000000 19170926.00000000 48035172.00000000 13352.22949219  1217124.62500000 966658.31250000 
0.11000    29752734.00000000 18961302.00000000 47493884.00000000 13059.19238281  1194786.37500000 949050.81250000 
0.11100    29410500.00000000 18755678.00000000 46962624.00000000 12772.43847656  1172855.00000000 931774.43750000 
0.11200    29074478.00000000 18554174.00000000 46441824.00000000 12491.83789062  1151321.12500000 914793.68750000 
0.11300    28744340.00000000 18356282.00000000 45929556.00000000 12217.02246094  1130168.12500000 898110.25000000 
0.11400    28419820.00000000 18161546.00000000 45426928.00000000 11948.08007812  1109373.25000000 881710.50000000 
0.11500    28100570.00000000 17969660.00000000 44931540.00000000 11684.97949219  1088937.12500000 865588.50000000 
0.11600    27785546.00000000 17780648.00000000 44442884.00000000 11427.43652344  1068851.25000000 849738.62500000 
0.11700    27475208.00000000 17593890.00000000 43961120.00000000 11175.48730469  1049098.62500000 834139.06250000 
0.11800    27168686.00000000 17409486.00000000 43485088.00000000 10928.98046875  1029664.37500000 818794.00000000 
0.11900    26865634.00000000 17226944.00000000 43013948.00000000 10687.81933594  1010551.37500000 803690.12500000 
0.12000    26565974.00000000 17046114.00000000 42547996.00000000 10451.86816406  991740.75000000 788822.87500000 
0.12100    26269104.00000000 16866880.00000000 42086420.00000000 10221.19335938  973238.37500000 774198.06250000 
0.12200    25975134.00000000 16689087.00000000 41629032.00000000 9995.53906250   955015.37500000 759791.56250000 
0.12300    25683462.00000000 16512379.00000000 41174904.00000000 9774.91406250   937083.25000000 745605.56250000 
0.12400    25393872.00000000 16336836.00000000 40723288.00000000 9559.16113281   919435.62500000 731632.12500000 
0.12500    25106426.00000000 16161989.00000000 40274792.00000000 9348.17773438   902050.50000000 717859.50000000 
0.12600    24820710.00000000 15988053.00000000 39828348.00000000 9141.95214844   884932.31250000 704306.31250000 
0.12700    24536524.00000000 15814598.00000000 39384400.00000000 8940.18554688   868079.87500000 690939.81250000 
0.12800    24253738.00000000 15641716.00000000 38942028.00000000 8743.04296875   851471.62500000 677777.37500000 
0.12900    23972192.00000000 15469305.00000000 38501116.00000000 8550.31542969   835112.50000000 664802.37500000 
0.13000    23691788.00000000 15297226.00000000 38061560.00000000 8361.73046875   818995.37500000 652010.56250000 
0.13100    23412432.00000000 15125366.00000000 37623076.00000000 8177.42236328   803113.87500000 639403.43750000 
0.13200    23133834.00000000 14953656.00000000 37185528.00000000 7997.16406250   787468.12500000 626974.62500000 
0.13300    22856238.00000000 14782251.00000000 36749048.00000000 7820.92919922   772056.43750000 614721.25000000 
0.13400    22579082.00000000 14610816.00000000 36312840.00000000 7648.48535156   756857.93750000 602641.43750000 
0.13500    22302744.00000000 14439321.00000000 35877264.00000000 7479.92578125   741882.37500000 590730.31250000 
0.13600    22027046.00000000 14268004.00000000 35442444.00000000 7314.88037109   727117.18750000 578973.75000000 
0.13700    21751956.00000000 14096602.00000000 35008176.00000000 7153.47119141   712561.81250000 567395.12500000 
0.13800    21477176.00000000 13925170.00000000 34573856.00000000 6995.54687500   698213.00000000 555967.68750000 
0.13900    21202918.00000000 13753804.00000000 34140520.00000000 6840.94580078   684065.56250000 544696.06250000 
0.14000    20929330.00000000 13582454.00000000 33707396.00000000 6689.63574219   670117.93750000 533583.87500000 
0.14100    20656250.00000000 13410952.00000000 33274320.00000000 6541.53466797   656370.18750000 522620.03125000 
0.14200    20383594.00000000 13239527.00000000 32841736.00000000 6396.48144531   642812.75000000 511807.46875000 
0.14300    20111376.00000000 13068264.00000000 32409916.00000000 6254.43017578   629436.68750000 501134.62500000 
0.14400    19840036.00000000 12896727.00000000 31978452.00000000 6115.26318359   616251.62500000 490614.93750000 
0.14500    19568922.00000000 12725485.00000000 31547580.00000000 5978.92773438   603249.81250000 480237.40625000 
0.14600    19298596.00000000 12554394.00000000 31117408.00000000 5845.38476562   590439.06250000 469996.81250000 
0.14700    19029104.00000000 12383330.00000000 30688062.00000000 5714.45703125   577801.56250000 459904.37500000 
0.14800    18760224.00000000 12212611.00000000 30259454.00000000 5586.19921875   565329.62500000 449943.28125000 
0.14900    18492058.00000000 12041977.00000000 29831706.00000000 5460.40429688   553043.18750000 440120.15625000 
0.15000    18225004.00000000 11871923.00000000 29405368.00000000 5337.16259766   540923.62500000 430431.56250000 
0.15100    17958684.00000000 11702036.00000000 28980176.00000000 5216.34277344   528978.93750000 420882.59375000 
0.15200    17693628.00000000 11532644.00000000 28556320.00000000 5097.85937500   517206.06250000 411465.18750000 
0.15300    17429456.00000000 11363719.00000000 28133834.00000000 4981.69775391   505604.78125000 402180.93750000 
0.15400    17166550.00000000 11195321.00000000 27712958.00000000 4867.77539062   494168.18750000 393028.43750000 
0.15500    16905056.00000000 11027600.00000000 27294030.00000000 4756.14990234   482894.62500000 384009.84375000 
0.15600    16644687.00000000 10860579.00000000 26876948.00000000 4646.60839844   471789.90625000 375121.25000000 
0.15700    16385858.00000000 10694138.00000000 26462108.00000000 4539.31640625   460854.28125000 366363.62500000 
0.15800    16128422.00000000 10528535.00000000 26049276.00000000 4434.02783203   450076.40625000 357734.25000000 
0.15900    15872882.00000000 10363872.00000000 25638898.00000000 4330.87939453   439466.40625000 349235.75000000 
0.16000    15618652.00000000 10200196.00000000 25230986.00000000 4229.78027344   429016.15625000 340867.65625000 
0.16100    15366573.00000000 10037615.00000000 24826182.00000000 4130.70654297   418738.06250000 332632.43750000 
0.16200    15116304.00000000 9875896.00000000 24423990.00000000 4033.67309570   408618.21875000 324527.12500000 
0.16300    14867937.00000000 9715467.00000000 24024716.00000000 3938.55517578   398660.71875000 316550.71875000 
0.16400    14621736.00000000 9556130.00000000 23628744.00000000 3845.44482422   388869.68750000 308703.40625000 
0.16500    14377546.00000000 9398163.00000000 23235988.00000000 3754.26904297   379238.28125000 300989.28125000 
0.16600    14135667.00000000 9241491.00000000 22846740.00000000 3665.02783203   369774.00000000 293403.15625000 
0.16700    13896019.00000000 9086252.00000000 22460930.00000000 3577.69580078   360468.31250000 285949.31250000 
0.16800    13658787.00000000 8932373.00000000 22079022.00000000 3492.20019531   351325.59375000 278620.78125000 
0.16900    13424078.00000000 8780079.00000000 21700874.00000000 3408.66259766   342348.06250000 271426.18750000 
0.17000    13191841.00000000 8629252.00000000 21326684.00000000 3326.97290039   333532.46875000 264362.56250000 
