# SAXS profile: number of points = 501, q_min = 0, q_max = 0.5, delta_q = 0.001
#    q    intensity 
0.00000    162232352.00000000 101202024.00000000 256270640.00000000 101397.60937500 8111883.00000000 6406716.50000000 
0.00100    162201200.00000000 101180456.00000000 256217312.00000000 101367.85937500 8109824.00000000 6405138.50000000 
0.00200    162103728.00000000 101117208.00000000 256057280.00000000 101280.75000000 8103742.50000000 6400333.00000000 
0.00300    161936864.00000000 101011480.00000000 255788624.00000000 101135.59375000 8093536.00000000 6392334.00000000 
0.00400    161696208.00000000 100865040.00000000 255412080.00000000 100933.71093750 8079283.00000000 6381133.50000000 
0.00500    161386624.00000000 100675408.00000000 254929712.00000000 100673.30468750 8061061.00000000 6366801.00000000 
0.00600    161010624.00000000 100443816.00000000 254340128.00000000 100357.37500000 8038809.50000000 6349321.50000000 
0.00700    160568128.00000000 100172336.00000000 253649632.00000000 99984.91406250  8012605.00000000 6328728.50000000 
0.00800    160054480.00000000 99860512.00000000 252852640.00000000 99557.25781250  7982549.50000000 6305101.50000000 
0.00900    159482864.00000000 99508528.00000000 251953760.00000000 99076.22656250  7948657.00000000 6278463.00000000 
0.01000    158846976.00000000 99117680.00000000 250954912.00000000 98540.90625000  7910970.00000000 6248809.00000000 
0.01100    158148704.00000000 98686224.00000000 249855536.00000000 97954.60937500  7869559.00000000 6216272.50000000 
0.01200    157386048.00000000 98217192.00000000 248657312.00000000 97315.91406250  7824454.50000000 6180902.50000000 
0.01300    156560336.00000000 97709472.00000000 247365968.00000000 96627.92968750  7775924.00000000 6142711.00000000 
0.01400    155676432.00000000 97165648.00000000 245980480.00000000 95892.18750000  7723890.50000000 6101791.00000000 
0.01500    154735696.00000000 96586656.00000000 244502144.00000000 95109.47656250  7668490.50000000 6058243.00000000 
0.01600    153738480.00000000 95972384.00000000 242936000.00000000 94281.35156250  7609787.50000000 6012080.50000000 
0.01700    152682656.00000000 95323912.00000000 241282592.00000000 93409.96875000  7547979.50000000 5963502.00000000 
0.01800    151575856.00000000 94640912.00000000 239545536.00000000 92496.31250000  7483076.50000000 5912470.00000000 
0.01900    150415440.00000000 93927864.00000000 237722768.00000000 91543.10937500  7415276.00000000 5859123.00000000 
0.02000    149206016.00000000 93182696.00000000 235824576.00000000 90551.52343750  7344619.50000000 5803568.00000000 
0.02100    147947584.00000000 92407712.00000000 233850912.00000000 89522.96875000  7271243.00000000 5745891.00000000 
0.02200    146642816.00000000 91603344.00000000 231800480.00000000 88459.97656250  7195339.50000000 5686180.00000000 
0.02300    145293184.00000000 90772120.00000000 229682416.00000000 87365.60156250  7116958.50000000 5624499.50000000 
0.02400    143901616.00000000 89914440.00000000 227494720.00000000 86239.72656250  7036299.00000000 5561082.00000000 
0.02500    142468848.00000000 89029944.00000000 225245504.00000000 85086.22656250  6953450.50000000 5495873.50000000 
0.02600    140997728.00000000 88121816.00000000 222933952.00000000 83906.61718750  6868567.50000000 5429063.50000000 
0.02700    139488896.00000000 87191256.00000000 220564288.00000000 82702.70312500  6781762.50000000 5360797.50000000 
0.02800    137946576.00000000 86239368.00000000 218140960.00000000 81476.14843750  6693154.00000000 5291069.50000000 
0.02900    136370832.00000000 85267336.00000000 215666224.00000000 80230.19531250  6602993.00000000 5220056.50000000 
0.03000    134768224.00000000 84276080.00000000 213142704.00000000 78966.77343750  6511300.50000000 5147884.50000000 
0.03100    133133680.00000000 83267000.00000000 210577216.00000000 77686.53125000  6418195.00000000 5074608.00000000 
0.03200    131474768.00000000 82241512.00000000 207968304.00000000 76392.90625000  6323916.50000000 5000368.00000000 
0.03300    129792672.00000000 81201512.00000000 205320512.00000000 75088.51562500  6228583.00000000 4925294.50000000 
0.03400    128088040.00000000 80148288.00000000 202641408.00000000 73773.85937500  6132275.50000000 4849456.50000000 
0.03500    126364664.00000000 79082568.00000000 199931616.00000000 72451.26562500  6035159.50000000 4773023.00000000 
0.03600    124623704.00000000 78005672.00000000 197191392.00000000 71123.50000000  5937438.00000000 4696029.50000000 
0.03700    122867592.00000000 76919040.00000000 194428016.00000000 69792.60156250  5839161.50000000 4618552.50000000 
0.03800    121098720.00000000 75823192.00000000 191643936.00000000 68459.00781250  5740440.00000000 4540771.50000000 
0.03900    119318400.00000000 74720512.00000000 188840832.00000000 67126.03906250  5641436.00000000 4462778.50000000 
0.04000    117529280.00000000 73611608.00000000 186023456.00000000 65794.78906250  5542280.00000000 4384604.50000000 
0.04100    115732960.00000000 72498024.00000000 183197152.00000000 64466.56640625  5443086.00000000 4306393.00000000 
0.04200    113931976.00000000 71381088.00000000 180358816.00000000 63143.53515625  5343949.00000000 4228255.00000000 
0.04300    112127752.00000000 70262032.00000000 177517264.00000000 61827.53906250  5245032.00000000 4150234.25000000 
0.04400    110322656.00000000 69141264.00000000 174673168.00000000 60519.28125000  5146395.00000000 4072449.75000000 
0.04500    108517648.00000000 68021400.00000000 171828816.00000000 59220.81250000  5048158.50000000 3994985.25000000 
0.04600    106715832.00000000 66901036.00000000 168986304.00000000 57933.62890625  4950444.50000000 3917893.25000000 
0.04700    104916992.00000000 65783584.00000000 166151056.00000000 56658.52734375  4853339.00000000 3841278.00000000 
0.04800    103124712.00000000 64669308.00000000 163324672.00000000 55397.10156250  4756941.50000000 3765185.75000000 
0.04900    101340408.00000000 63558692.00000000 160509600.00000000 54150.47656250  4661265.50000000 3689716.25000000 
0.05000    99563304.00000000 62454372.00000000 157706640.00000000 52919.21484375  4566529.50000000 3614907.75000000 
0.05100    97797664.00000000 61354844.00000000 154922032.00000000 51704.81640625  4472716.50000000 3540840.75000000 
0.05200    96043728.00000000 60262888.00000000 152152288.00000000 50508.13281250  4379908.50000000 3467550.75000000 
0.05300    94302920.00000000 59178568.00000000 149405200.00000000 49329.67968750  4288214.50000000 3395116.75000000 
0.05400    92576064.00000000 58102640.00000000 146679088.00000000 48170.41406250  4197646.00000000 3323587.50000000 
0.05500    90865096.00000000 57035820.00000000 143978640.00000000 47031.04296875  4108287.75000000 3253000.75000000 
0.05600    89171256.00000000 55979768.00000000 141302624.00000000 45911.88671875  4020193.75000000 3183400.25000000 
0.05700    87495232.00000000 54934024.00000000 138654512.00000000 44813.75781250  3933403.75000000 3114821.25000000 
0.05800    85838336.00000000 53899776.00000000 136035872.00000000 43737.11718750  3847986.25000000 3047303.25000000 
0.05900    84200776.00000000 52877280.00000000 133448752.00000000 42681.94921875  3763935.00000000 2980868.75000000 
0.06000    82584016.00000000 51867928.00000000 130893608.00000000 41648.91406250  3681330.50000000 2915563.75000000 
0.06100    80988776.00000000 50871056.00000000 128371632.00000000 40637.73046875  3600172.75000000 2851401.00000000 
0.06200    79415840.00000000 49888096.00000000 125884480.00000000 39649.35937500  3520517.75000000 2788422.75000000 
0.06300    77865496.00000000 48918924.00000000 123433472.00000000 38682.76953125  3442346.50000000 2726586.25000000 
0.06400    76339616.00000000 47964216.00000000 121018784.00000000 37739.39453125  3365717.00000000 2665966.25000000 
0.06500    74836272.00000000 47024360.00000000 118641720.00000000 36817.62500000  3290593.25000000 2606541.75000000 
0.06600    73358472.00000000 46099352.00000000 116303416.00000000 35918.48046875  3216995.50000000 2548321.75000000 
0.06700    71904920.00000000 45190116.00000000 114004120.00000000 35041.23046875  3144995.75000000 2491329.50000000 
0.06800    70477400.00000000 44295936.00000000 111744416.00000000 34186.41406250  3074506.25000000 2435527.75000000 
0.06900    69075320.00000000 43417796.00000000 109524304.00000000 33353.00000000  3005564.00000000 2380967.75000000 
0.07000    67698616.00000000 42555208.00000000 107345416.00000000 32541.07812500  2938147.50000000 2327614.50000000 
0.07100    66347780.00000000 41708944.00000000 105207464.00000000 31750.31250000  2872273.75000000 2275465.25000000 
0.07200    65023088.00000000 40878976.00000000 103109960.00000000 30980.34179688  2807894.00000000 2224512.00000000 
0.07300    63724700.00000000 40065324.00000000 101054352.00000000 30230.56640625  2745047.50000000 2174741.00000000 
0.07400    62452328.00000000 39268012.00000000 99040264.00000000 29501.13085938  2683669.00000000 2126162.00000000 
0.07500    61206088.00000000 38487112.00000000 97067368.00000000 28790.89648438  2623763.50000000 2078715.25000000 
0.07600    59985940.00000000 37721992.00000000 95135064.00000000 28099.97656250  2565280.00000000 2032435.50000000 
0.07700    58791888.00000000 36973812.00000000 93243584.00000000 27427.44726562  2508243.50000000 1987268.25000000 
0.07800    57623448.00000000 36241284.00000000 91393560.00000000 26773.09765625  2452567.00000000 1943184.87500000 
0.07900    56480476.00000000 35524776.00000000 89583704.00000000 26136.32617188  2398281.00000000 1900195.00000000 
0.08000    55362780.00000000 34824080.00000000 87814128.00000000 25516.54882812  2345333.25000000 1858272.00000000 
0.08100    54270520.00000000 34139552.00000000 86084560.00000000 24913.44921875  2293719.75000000 1817389.50000000 
0.08200    53203144.00000000 33471134.00000000 84394816.00000000 24326.29101562  2243344.25000000 1777504.00000000 
0.08300    52160044.00000000 32817598.00000000 82743144.00000000 23754.71875000  2194219.75000000 1738608.62500000 
0.08400    51141200.00000000 32179480.00000000 81130352.00000000 23197.97460938  2146346.75000000 1700689.25000000 
0.08500    50145752.00000000 31556324.00000000 79555104.00000000 22655.63085938  2099610.00000000 1663713.50000000 
0.08600    49174052.00000000 30947732.00000000 78016776.00000000 22127.25976562  2054037.37500000 1627639.75000000 
0.08700    48225152.00000000 30354032.00000000 76515824.00000000 21612.28515625  2009604.87500000 1592456.12500000 
0.08800    47299016.00000000 29774722.00000000 75050592.00000000 21110.19726562  1966236.37500000 1558135.87500000 
0.08900    46394804.00000000 29209230.00000000 73620232.00000000 20620.52929688  1923920.12500000 1524656.50000000 
0.09000    45512332.00000000 28657752.00000000 72224872.00000000 20142.86914062  1882633.62500000 1491983.87500000 
0.09100    44651152.00000000 28119512.00000000 70863136.00000000 19676.76562500  1842328.25000000 1460083.37500000 
0.09200    43810548.00000000 27594414.00000000 69534552.00000000 19221.43945312  1802967.25000000 1428949.87500000 
0.09300    42990024.00000000 27082614.00000000 68237984.00000000 18776.91992188  1764553.00000000 1398552.25000000 
0.09400    42190000.00000000 26583148.00000000 66973192.00000000 18342.60937500  1727001.25000000 1368862.25000000 
0.09500    41408656.00000000 26096138.00000000 65739664.00000000 17917.88671875  1690317.75000000 1339849.12500000 
0.09600    40646060.00000000 25620930.00000000 64535556.00000000 17502.81054688  1654475.37500000 1311507.00000000 
0.09700    39901960.00000000 25157672.00000000 63360884.00000000 17096.66796875  1619439.75000000 1283802.12500000 
0.09800    39175416.00000000 24705708.00000000 62214956.00000000 16699.25781250  1585174.37500000 1256721.50000000 
0.09900    38466780.00000000 24265070.00000000 61096840.00000000 16310.37988281  1551660.00000000 1230232.62500000 
0.10000    37774816.00000000 23834802.00000000 60005084.00000000 15929.46582031  1518863.12500000 1204312.12500000 
0.10100    37098748.00000000 23415188.00000000 58940484.00000000 15556.43066406  1486776.75000000 1178956.87500000 
0.10200    36438944.00000000 23005714.00000000 57900700.00000000 15191.12402344  1455368.00000000 1154133.12500000 
0.10300    35794640.00000000 22606198.00000000 56885240.00000000 14832.86230469  1424596.00000000 1129824.62500000 
0.10400    35165012.00000000 22216240.00000000 55894156.00000000 14481.91601562  1394467.75000000 1106019.62500000 
0.10500    34550192.00000000 21835674.00000000 54926412.00000000 14137.85156250  1364940.37500000 1082708.37500000 
0.10600    33949548.00000000 21463840.00000000 53980836.00000000 13800.44921875  1336005.25000000 1059849.00000000 
0.10700    33362298.00000000 21100820.00000000 53057216.00000000 13469.58007812  1307646.37500000 1037469.06250000 
0.10800    32788488.00000000 20746328.00000000 52154512.00000000 13145.13671875  1279844.50000000 1015504.18750000 
0.10900    32227114.00000000 20399784.00000000 51272676.00000000 12826.90332031  1252569.25000000 993972.43750000 
0.11000    31678438.00000000 20061510.00000000 50410316.00000000 12514.80664062  1225826.87500000 972861.75000000 
0.11100    31141710.00000000 19730546.00000000 49567072.00000000 12208.61621094  1199587.62500000 952140.87500000 
0.11200    30616670.00000000 19407006.00000000 48742600.00000000 11908.37988281  1173833.50000000 931817.25000000 
0.11300    30102780.00000000 19090646.00000000 47936096.00000000 11613.89550781  1148586.00000000 911875.87500000 
0.11400    29600014.00000000 18781186.00000000 47146916.00000000 11325.21582031  1123803.87500000 892305.25000000 
0.11500    29107506.00000000 18478150.00000000 46374216.00000000 11042.08007812  1099464.62500000 873098.06250000 
0.11600    28625530.00000000 18181992.00000000 45618036.00000000 10764.53613281  1075585.12500000 854239.18750000 
0.11700    28153298.00000000 17891784.00000000 44877276.00000000 10492.46972656  1052148.50000000 835730.93750000 
0.11800    27690756.00000000 17607622.00000000 44152080.00000000 10225.70898438  1029137.93750000 817560.12500000 
0.11900    27237434.00000000 17329458.00000000 43441152.00000000 9964.54589844   1006548.06250000 799717.31250000 
0.12000    26792900.00000000 17056520.00000000 42744484.00000000 9708.65722656   984367.50000000 782195.25000000 
0.12100    26357326.00000000 16789458.00000000 42061640.00000000 9458.06250000   962603.25000000 765009.18750000 
0.12200    25930166.00000000 16527307.00000000 41391992.00000000 9212.70312500   941233.93750000 748121.62500000 
0.12300    25511098.00000000 16270217.00000000 40735664.00000000 8972.59667969   920261.50000000 731544.18750000 
0.12400    25100164.00000000 16018083.00000000 40091312.00000000 8737.61914062   899675.93750000 715274.93750000 
0.12500    24696594.00000000 15770655.00000000 39459232.00000000 8507.76562500   879474.93750000 699304.31250000 
0.12600    24300858.00000000 15527766.00000000 38839004.00000000 8283.12304688   859642.12500000 683627.62500000 
0.12700    23912138.00000000 15289342.00000000 38229620.00000000 8063.50927734   840190.56250000 668249.68750000 
0.12800    23530502.00000000 15055170.00000000 37631096.00000000 7848.85107422   821101.25000000 653139.12500000 
0.12900    23155694.00000000 14825188.00000000 37043768.00000000 7639.24365234   802378.18750000 638330.56250000 
0.13000    22787534.00000000 14599205.00000000 36466948.00000000 7434.50390625   784013.87500000 623797.25000000 
0.13100    22425936.00000000 14376893.00000000 35899636.00000000 7234.70996094   765996.25000000 609539.31250000 
0.13200    22070492.00000000 14158424.00000000 35341652.00000000 7039.72656250   748335.31250000 595548.37500000 
0.13300    21721114.00000000 13943610.00000000 34793764.00000000 6849.56494141   731014.25000000 581829.81250000 
0.13400    21377556.00000000 13732381.00000000 34254880.00000000 6664.11132812   714036.12500000 568378.56250000 
0.13500    21040076.00000000 13524518.00000000 33724780.00000000 6483.31005859   697391.75000000 555190.06250000 
0.13600    20708096.00000000 13319858.00000000 33203096.00000000 6307.15722656   681083.68750000 542262.87500000 
0.13700    20381488.00000000 13118553.00000000 32690132.00000000 6135.52783203   665098.93750000 529587.68750000 
0.13800    20060234.00000000 12920318.00000000 32185378.00000000 5968.38769531   649447.56250000 517165.84375000 
0.13900    19744092.00000000 12725159.00000000 31688204.00000000 5805.63134766   634108.81250000 504995.40625000 
0.14000    19433150.00000000 12532889.00000000 31199128.00000000 5647.27783203   619086.50000000 493073.25000000 
0.14100    19127194.00000000 12343459.00000000 30717418.00000000 5493.10595703   604377.25000000 481393.96875000 
0.14200    18825988.00000000 12156855.00000000 30243272.00000000 5343.19726562   589971.81250000 469951.09375000 
0.14300    18529416.00000000 11972993.00000000 29776188.00000000 5197.31689453   575870.18750000 458745.87500000 
0.14400    18237336.00000000 11791670.00000000 29315652.00000000 5055.47509766   562067.87500000 447773.62500000 
0.14500    17950016.00000000 11613137.00000000 28862486.00000000 4917.52099609   548559.37500000 437033.37500000 
0.14600    17666958.00000000 11436892.00000000 28415814.00000000 4783.44677734   535334.00000000 426514.75000000 
0.14700    17388306.00000000 11263311.00000000 27975764.00000000 4653.20166016   522397.87500000 416222.46875000 
0.14800    17113710.00000000 11091992.00000000 27541852.00000000 4526.59960938   509738.21875000 406146.93750000 
0.14900    16843178.00000000 10923049.00000000 27114300.00000000 4403.55517578   497350.65625000 396284.00000000 
0.15000    16576777.00000000 10756366.00000000 26692696.00000000 4284.00439453   485233.81250000 386632.21875000 
0.15100    16314295.00000000 10592056.00000000 26277146.00000000 4167.84960938   473380.87500000 377191.65625000 
0.15200    16055606.00000000 10429852.00000000 25867496.00000000 4055.09008789   461791.96875000 367954.65625000 
0.15300    15800742.00000000 10269837.00000000 25463636.00000000 3945.51464844   450451.31250000 358915.71875000 
0.15400    15549548.00000000 10111919.00000000 25065214.00000000 3839.09326172   439361.62500000 350069.09375000 
0.15500    15301989.00000000 9956162.00000000 24672384.00000000 3735.76855469   428518.84375000 341420.40625000 
0.15600    15058027.00000000 9802328.00000000 24284892.00000000 3635.41162109   417911.96875000 332956.84375000 
0.15700    14817563.00000000 9650583.00000000 23902920.00000000 3537.99291992   407544.50000000 324682.65625000 
0.15800    14580426.00000000 9500750.00000000 23525728.00000000 3443.35253906   397403.00000000 316584.18750000 
0.15900    14346774.00000000 9352854.00000000 23154342.00000000 3351.51635742   387488.31250000 308667.21875000 
0.16000    14116397.00000000 9206927.00000000 22787348.00000000 3262.29443359   377794.50000000 300919.40625000 
0.16100    13889391.00000000 9062930.00000000 22425848.00000000 3175.75585938   368317.40625000 293348.15625000 
0.16200    13665508.00000000 8920715.00000000 22069232.00000000 3091.74707031   359051.09375000 285941.34375000 
0.16300    13444836.00000000 8780366.00000000 21716978.00000000 3010.16894531   349991.56250000 278695.87500000 
0.16400    13227337.00000000 8641878.00000000 21369918.00000000 2931.04003906   341140.68750000 271613.81250000 
0.16500    13012861.00000000 8505138.00000000 21027448.00000000 2854.27514648   332483.09375000 264689.71875000 
0.16600    12801490.00000000 8370162.50000000 20689768.00000000 2779.80297852   324023.90625000 257915.59375000 
0.16700    12592989.00000000 8237046.50000000 20356554.00000000 2707.53466797   315750.03125000 251293.31250000 
0.16800    12387503.00000000 8105549.00000000 20027874.00000000 2637.46020508   307664.93750000 244820.26562500 
0.16900    12185026.00000000 7975840.50000000 19703944.00000000 2569.59570312   299766.00000000 238491.89062500 
0.17000    11985468.00000000 7847866.00000000 19384440.00000000 2503.78051758   292043.53125000 232304.06250000 
