# SAXS profile: number of points = 501, q_min = 0, q_max = 0.5, delta_q = 0.001
#    q    intensity 
0.00000    162235456.00000000 101202016.00000000 256269936.00000000 106168.32031250 8300502.00000000 6555711.00000000 
0.00100    162206544.00000000 101182888.00000000 256223440.00000000 106139.57812500 8298568.50000000 6554222.50000000 
0.00200    162117408.00000000 101127800.00000000 256080736.00000000 106054.04687500 8292887.00000000 6549723.00000000 
0.00300    161967792.00000000 101034784.00000000 255843824.00000000 105911.81250000 8283365.50000000 6542280.50000000 
0.00400    161757088.00000000 100905112.00000000 255511568.00000000 105713.34375000 8270062.50000000 6531868.50000000 
0.00500    161483872.00000000 100738232.00000000 255086608.00000000 105459.25781250 8253016.50000000 6518493.00000000 
0.00600    161149616.00000000 100534272.00000000 254565008.00000000 105148.87500000 8232231.50000000 6502212.00000000 
0.00700    160756320.00000000 100294584.00000000 253951920.00000000 104783.62500000 8207720.00000000 6483021.50000000 
0.00800    160303968.00000000 100018840.00000000 253246224.00000000 104363.89062500 8179534.00000000 6460943.50000000 
0.00900    159790784.00000000 99707224.00000000 252449376.00000000 103890.42187500 8147694.50000000 6435991.00000000 
0.01000    159223280.00000000 99361296.00000000 251560080.00000000 103364.39062500 8112325.50000000 6408277.50000000 
0.01100    158598672.00000000 98979808.00000000 250584592.00000000 102785.22656250 8073367.50000000 6377790.00000000 
0.01200    157918544.00000000 98563984.00000000 249519600.00000000 102155.71093750 8030932.00000000 6344586.00000000 
0.01300    157183104.00000000 98113472.00000000 248367200.00000000 101475.76562500 7985165.50000000 6308654.00000000 
0.01400    156390400.00000000 97629424.00000000 247128352.00000000 100747.72656250 7935964.50000000 6270154.50000000 
0.01500    155544800.00000000 97113272.00000000 245808112.00000000 99971.07031250  7883521.50000000 6229053.00000000 
0.01600    154646352.00000000 96563816.00000000 244403840.00000000 99148.23437500  7827920.00000000 6185447.00000000 
0.01700    153697136.00000000 95983720.00000000 242919232.00000000 98280.32812500  7769172.50000000 6139400.50000000 
0.01800    152697616.00000000 95373160.00000000 241355520.00000000 97368.71875000  7707416.00000000 6090983.00000000 
0.01900    151648208.00000000 94731800.00000000 239715440.00000000 96414.51562500  7642666.50000000 6040254.50000000 
0.02000    150550224.00000000 94060280.00000000 237999504.00000000 95420.72656250  7575102.50000000 5987273.00000000 
0.02100    149407296.00000000 93361088.00000000 236210000.00000000 94387.33593750  7504781.50000000 5932123.00000000 
0.02200    148218624.00000000 92634056.00000000 234350800.00000000 93316.75000000  7431748.50000000 5874899.50000000 
0.02300    146985312.00000000 91879192.00000000 232422240.00000000 92210.40625000  7356178.50000000 5815650.00000000 
0.02400    145710080.00000000 91098992.00000000 230426704.00000000 91070.11718750  7278181.50000000 5754491.00000000 
0.02500    144393968.00000000 90294136.00000000 228367344.00000000 89897.97656250  7197823.00000000 5691475.50000000 
0.02600    143038096.00000000 89464000.00000000 226245072.00000000 88695.09375000  7115255.50000000 5626661.50000000 
0.02700    141645264.00000000 88610136.00000000 224064496.00000000 87464.14843750  7030537.00000000 5560238.00000000 
0.02800    140214272.00000000 87734736.00000000 221825152.00000000 86206.23437500  6943820.00000000 5492201.00000000 
0.02900    138750496.00000000 86836992.00000000 219532720.00000000 84923.60937500  6855173.50000000 5422674.00000000 
0.03000    137253024.00000000 85918824.00000000 217188624.00000000 83618.39843750  6764786.50000000 5351708.00000000 
0.03100    135724112.00000000 84981416.00000000 214793248.00000000 82292.11718750  6672675.00000000 5279474.00000000 
0.03200    134164864.00000000 84025984.00000000 212351264.00000000 80946.57031250  6579081.00000000 5205975.00000000 
0.03300    132578640.00000000 83052800.00000000 209866880.00000000 79584.70312500  6484049.00000000 5131328.00000000 
0.03400    130965472.00000000 82062912.00000000 207338784.00000000 78206.72656250  6387678.50000000 5055706.50000000 
0.03500    129328512.00000000 81058160.00000000 204773232.00000000 76815.60156250  6290141.00000000 4979121.00000000 
0.03600    127667392.00000000 80037896.00000000 202170144.00000000 75413.71875000  6191541.00000000 4901664.00000000 
0.03700    125986384.00000000 79005168.00000000 199535584.00000000 74001.84375000  6091969.00000000 4823434.50000000 
0.03800    124285448.00000000 77960264.00000000 196868304.00000000 72582.37500000  5991555.00000000 4744588.00000000 
0.03900    122566904.00000000 76903920.00000000 194172960.00000000 71157.54687500  5890490.50000000 4665173.00000000 
0.04000    120832336.00000000 75838120.00000000 191453360.00000000 69728.53906250  5788758.00000000 4585207.00000000 
0.04100    119083944.00000000 74762856.00000000 188711072.00000000 68297.96093750  5686589.50000000 4504893.00000000 
0.04200    117322728.00000000 73679616.00000000 185947408.00000000 66865.84375000  5584027.00000000 4424284.00000000 
0.04300    115551160.00000000 72588968.00000000 183168032.00000000 65435.44531250  5481232.50000000 4343444.50000000 
0.04400    113770016.00000000 71492112.00000000 180372288.00000000 64008.10937500  5378256.50000000 4262477.50000000 
0.04500    111982016.00000000 70390624.00000000 177564400.00000000 62585.48437500  5275278.00000000 4181449.00000000 
0.04600    110188008.00000000 69284752.00000000 174747504.00000000 61168.58203125  5172324.00000000 4100466.75000000 
0.04700    108389128.00000000 68175880.00000000 171923392.00000000 59759.34765625  5069543.50000000 4019593.25000000 
0.04800    106589160.00000000 67064820.00000000 169094416.00000000 58359.66796875  4967059.50000000 3938932.75000000 
0.04900    104786720.00000000 65953064.00000000 166263776.00000000 56970.54687500  4864926.00000000 3858529.75000000 
0.05000    102985856.00000000 64840996.00000000 163431968.00000000 55593.07812500  4763275.50000000 3778494.75000000 
0.05100    101186576.00000000 63729844.00000000 160605328.00000000 54228.82031250  4662182.50000000 3698856.50000000 
0.05200    99390544.00000000 62620016.00000000 157781904.00000000 52879.27734375  4561705.50000000 3619714.75000000 
0.05300    97600512.00000000 61512764.00000000 154965024.00000000 51545.12890625  4461965.50000000 3541148.75000000 
0.05400    95815936.00000000 60409208.00000000 152158176.00000000 50227.57031250  4363058.50000000 3463190.00000000 
0.05500    94039536.00000000 59309796.00000000 149363120.00000000 48928.43750000  4265031.00000000 3385914.00000000 
0.05600    92271688.00000000 58215452.00000000 146580960.00000000 47647.70312500  4167974.75000000 3309405.75000000 
0.05700    90515168.00000000 57127236.00000000 143815840.00000000 46386.94921875  4071997.75000000 3233676.75000000 
0.05800    88769528.00000000 56045116.00000000 141066480.00000000 45146.87109375  3977072.00000000 3158803.25000000 
0.05900    87036752.00000000 54970788.00000000 138337168.00000000 43927.84765625  3883338.75000000 3084838.00000000 
0.06000    85318040.00000000 53904392.00000000 135628752.00000000 42731.06640625  3790857.75000000 3011842.75000000 
0.06100    83614080.00000000 52846764.00000000 132945176.00000000 41556.96093750  3699657.50000000 2939844.25000000 
0.06200    81926760.00000000 51798424.00000000 130283600.00000000 40406.25000000  3609802.25000000 2868858.25000000 
0.06300    80255712.00000000 50760212.00000000 127650416.00000000 39279.34375000  3521347.75000000 2798973.50000000 
0.06400    78602896.00000000 49732796.00000000 125044096.00000000 38176.88281250  3434299.00000000 2730211.50000000 
0.06500    76969696.00000000 48716396.00000000 122467008.00000000 37099.21093750  3348746.00000000 2662594.00000000 
0.06600    75356208.00000000 47711780.00000000 119920168.00000000 36046.47656250  3264736.50000000 2596159.25000000 
0.06700    73762344.00000000 46719576.00000000 117405296.00000000 35018.70312500  3182246.75000000 2530920.00000000 
0.06800    72190344.00000000 45739820.00000000 114923272.00000000 34016.75781250  3101350.50000000 2466923.50000000 
0.06900    70640632.00000000 44773612.00000000 112475872.00000000 33040.64843750  3022057.75000000 2404186.50000000 
0.07000    69114160.00000000 43820968.00000000 110063400.00000000 32089.93554688  2944431.00000000 2342703.50000000 
0.07100    67610760.00000000 42882244.00000000 107686640.00000000 31165.02148438  2868428.50000000 2282525.75000000 
0.07200    66131172.00000000 41958004.00000000 105348072.00000000 30265.97265625  2794081.25000000 2223647.50000000 
0.07300    64675992.00000000 41048584.00000000 103046728.00000000 29392.63281250  2721426.75000000 2166072.50000000 
0.07400    63245388.00000000 40153860.00000000 100783976.00000000 28544.80468750  2650457.00000000 2109822.25000000 
0.07500    61840624.00000000 39274968.00000000 98560848.00000000 27722.22265625  2581184.25000000 2054883.50000000 
0.07600    60461268.00000000 38411128.00000000 96377760.00000000 26924.78710938  2513582.25000000 2001281.62500000 
0.07700    59108072.00000000 37563144.00000000 94235624.00000000 26152.45312500  2447702.25000000 1949013.25000000 
0.07800    57781128.00000000 36731164.00000000 92133712.00000000 25404.60742188  2383496.00000000 1898064.25000000 
0.07900    56480648.00000000 35915124.00000000 90073400.00000000 24680.91406250  2320999.25000000 1848435.62500000 
0.08000    55206720.00000000 35115484.00000000 88055000.00000000 23981.08593750  2260153.50000000 1800117.75000000 
0.08100    53959964.00000000 34332372.00000000 86078224.00000000 23304.66406250  2200984.75000000 1753112.37500000 
0.08200    52739860.00000000 33565260.00000000 84143544.00000000 22651.36914062  2143466.25000000 1707402.87500000 
0.08300    51546652.00000000 32815352.00000000 82251184.00000000 22020.49804688  2087594.62500000 1662973.00000000 
0.08400    50380676.00000000 32081624.00000000 80401000.00000000 21411.71875000  2033307.00000000 1619814.00000000 
0.08500    49241728.00000000 31364504.00000000 78593520.00000000 20824.35156250  1980644.37500000 1577899.50000000 
0.08600    48129708.00000000 30664070.00000000 76828064.00000000 20258.12109375  1929520.25000000 1537225.62500000 
0.08700    47044408.00000000 29980046.00000000 75104704.00000000 19712.14648438  1879966.12500000 1497786.62500000 
0.08800    45985824.00000000 29312292.00000000 73423064.00000000 19186.08593750  1831924.75000000 1459528.25000000 
0.08900    44953872.00000000 28661132.00000000 71782928.00000000 18679.08007812  1785364.25000000 1422446.37500000 
0.09000    43948724.00000000 28026226.00000000 70185488.00000000 18190.91601562  1740285.87500000 1386512.62500000 
0.09100    42969216.00000000 27407494.00000000 68628152.00000000 17720.69531250  1696617.50000000 1351720.50000000 
0.09200    42015904.00000000 26804708.00000000 67111808.00000000 17267.90625000  1654362.00000000 1318016.62500000 
0.09300    41087904.00000000 26217986.00000000 65635664.00000000 16831.89453125  1613465.12500000 1285408.87500000 
0.09400    40185392.00000000 25646834.00000000 64199820.00000000 16411.89062500  1573894.50000000 1253853.62500000 
0.09500    39307892.00000000 25091220.00000000 62802800.00000000 16007.51464844  1535614.62500000 1223311.12500000 
0.09600    38454900.00000000 24550986.00000000 61444768.00000000 15617.98828125  1498611.12500000 1193764.12500000 
0.09700    37626140.00000000 24025956.00000000 60125600.00000000 15242.85546875  1462834.75000000 1165203.00000000 
0.09800    36821372.00000000 23515644.00000000 58844044.00000000 14881.33203125  1428233.50000000 1137577.25000000 
0.09900    36040320.00000000 23020194.00000000 57599512.00000000 14532.91308594  1394797.75000000 1110865.75000000 
0.10000    35282096.00000000 22539070.00000000 56391292.00000000 14196.86523438  1362469.25000000 1085049.25000000 
0.10100    34546312.00000000 22072024.00000000 55218904.00000000 13872.84375000  1331218.37500000 1060079.50000000 
0.10200    33832816.00000000 21618932.00000000 54081728.00000000 13559.89843750  1301008.00000000 1035928.37500000 
0.10300    33140864.00000000 21179646.00000000 52979152.00000000 13257.90917969  1271789.75000000 1012582.81250000 
0.10400    32470210.00000000 20753502.00000000 51909328.00000000 12965.99902344  1243547.87500000 990005.00000000 
0.10500    31820566.00000000 20340592.00000000 50873268.00000000 12683.74316406  1216240.75000000 968175.12500000 
0.10600    31190862.00000000 19940098.00000000 49868920.00000000 12410.69824219  1189808.00000000 947043.68750000 
0.10700    30581008.00000000 19552332.00000000 48896012.00000000 12146.16406250  1164255.00000000 926613.37500000 
0.10800    29990404.00000000 19176594.00000000 47953732.00000000 11889.81152344  1139510.50000000 906822.31250000 
0.10900    29418308.00000000 18812650.00000000 47041228.00000000 11641.11132812  1115550.12500000 887671.87500000 
0.11000    28864498.00000000 18460114.00000000 46157436.00000000 11399.67968750  1092343.37500000 869115.31250000 
0.11100    28328264.00000000 18119020.00000000 45301840.00000000 11164.97558594  1069863.75000000 851144.43750000 
0.11200    27809414.00000000 17788926.00000000 44473768.00000000 10936.77636719  1048071.56250000 833722.25000000 
0.11300    27306578.00000000 17469138.00000000 43671932.00000000 10714.47167969  1026928.12500000 816820.93750000 
0.11400    26820534.00000000 17159526.00000000 42895916.00000000 10497.81347656  1006413.12500000 800423.56250000 
0.11500    26349722.00000000 16860128.00000000 42144764.00000000 10286.52539062  986492.00000000 784505.87500000 
0.11600    25893884.00000000 16570222.00000000 41417604.00000000 10080.13671875  967134.87500000 769040.50000000 
0.11700    25452586.00000000 16289512.00000000 40713760.00000000 9878.45703125   948327.56250000 754012.37500000 
0.11800    25025582.00000000 16017798.00000000 40032212.00000000 9680.99707031   930012.25000000 739381.81250000 
0.11900    24611842.00000000 15754767.00000000 39372584.00000000 9487.68847656   912181.12500000 725148.87500000 
0.12000    24211064.00000000 15500083.00000000 38733104.00000000 9298.28613281   894816.75000000 711287.12500000 
0.12100    23822960.00000000 15253457.00000000 38114648.00000000 9112.50000000   877883.62500000 697777.75000000 
0.12200    23446864.00000000 15014580.00000000 37514736.00000000 8930.02343750   861366.81250000 684596.75000000 
0.12300    23082298.00000000 14783087.00000000 36933892.00000000 8750.73925781   845237.68750000 671733.75000000 
0.12400    22728768.00000000 14558824.00000000 36370828.00000000 8574.55859375   829474.12500000 659166.62500000 
0.12500    22385948.00000000 14341291.00000000 35824512.00000000 8401.20996094   814062.81250000 646883.93750000 
0.12600    22053360.00000000 14130460.00000000 35294960.00000000 8230.60253906   798989.31250000 634871.50000000 
0.12700    21730582.00000000 13925869.00000000 34780940.00000000 8062.55419922   784218.68750000 623105.37500000 
0.12800    21416996.00000000 13727355.00000000 34281664.00000000 7897.00439453   769749.37500000 611581.56250000 
0.12900    21112350.00000000 13534418.00000000 33797044.00000000 7733.81640625   755557.25000000 600286.68750000 
0.13000    20816104.00000000 13347065.00000000 33325836.00000000 7572.97656250   741632.68750000 589207.31250000 
0.13100    20528106.00000000 13164938.00000000 32867562.00000000 7414.30371094   727960.37500000 578328.12500000 
0.13200    20247738.00000000 12987812.00000000 32421988.00000000 7257.80859375   714526.75000000 567646.56250000 
0.13300    19974548.00000000 12815454.00000000 31987862.00000000 7103.43212891   701320.50000000 557149.43750000 
0.13400    19708418.00000000 12647655.00000000 31565172.00000000 6951.07080078   688334.43750000 546822.37500000 
0.13500    19449022.00000000 12484013.00000000 31153320.00000000 6800.82812500   675548.75000000 536663.43750000 
0.13600    19195780.00000000 12324480.00000000 30750944.00000000 6652.60351562   662961.81250000 526668.18750000 
0.13700    18948486.00000000 12168769.00000000 30358800.00000000 6506.32910156   650565.31250000 516820.43750000 
0.13800    18706848.00000000 12016730.00000000 29975014.00000000 6362.03027344   638347.43750000 507118.75000000 
0.13900    18470486.00000000 11868182.00000000 29600176.00000000 6219.80761719   626303.18750000 497558.18750000 
0.14000    18239136.00000000 11722774.00000000 29233510.00000000 6079.56591797   614429.25000000 488132.09375000 
0.14100    18012518.00000000 11580492.00000000 28874556.00000000 5941.29052734   602714.25000000 478833.59375000 
0.14200    17790326.00000000 11441021.00000000 28522534.00000000 5805.08447266   591154.00000000 469662.84375000 
0.14300    17572526.00000000 11304367.00000000 28177372.00000000 5670.89746094   579749.87500000 460614.50000000 
0.14400    17358364.00000000 11170138.00000000 27838304.00000000 5538.74023438   568490.37500000 451681.71875000 
0.14500    17148142.00000000 11038385.00000000 27505472.00000000 5408.72412109   557378.87500000 442863.00000000 
0.14600    16941342.00000000 10908886.00000000 27178108.00000000 5280.77001953   546406.43750000 434160.06250000 
0.14700    16737980.00000000 10781441.00000000 26856096.00000000 5155.02001953   535579.25000000 425568.06250000 
0.14800    16537565.00000000 10655891.00000000 26538910.00000000 5031.35498047   524882.56250000 417080.12500000 
0.14900    16340052.00000000 10532278.00000000 26226424.00000000 4909.89892578   514321.12500000 408702.87500000 
0.15000    16145183.00000000 10410379.00000000 25918154.00000000 4790.66308594   503894.96875000 400429.03125000 
0.15100    15952896.00000000 10290087.00000000 25614034.00000000 4673.67285156   493602.65625000 392261.25000000 
0.15200    15763067.00000000 10171254.00000000 25313510.00000000 4558.92089844   483443.00000000 384201.59375000 
0.15300    15575325.00000000 10053764.00000000 25016636.00000000 4446.44238281   473416.46875000 376238.56250000 
0.15400    15389692.00000000 9937544.00000000 24722742.00000000 4336.29296875   463514.96875000 368380.65625000 
0.15500    15205977.00000000 9822521.00000000 24432124.00000000 4228.44287109   453751.56250000 360623.46875000 
0.15600    15024030.00000000 9708627.00000000 24144056.00000000 4122.90332031   444113.18750000 352968.84375000 
0.15700    14843839.00000000 9595748.00000000 23858982.00000000 4019.74072266   434609.96875000 345419.12500000 
0.15800    14665058.00000000 9483829.00000000 23575968.00000000 3918.89160156   425232.28125000 337965.62500000 
0.15900    14487952.00000000 9372703.00000000 23295352.00000000 3820.45385742   415988.06250000 330620.40625000 
0.16000    14312017.00000000 9262457.00000000 23016850.00000000 3724.33715820   406876.65625000 323375.96875000 
0.16100    14137576.00000000 9152977.00000000 22740338.00000000 3630.60742188   397898.75000000 316234.06250000 
0.16200    13964298.00000000 9044176.00000000 22465734.00000000 3539.23071289   389051.78125000 309196.34375000 
0.16300    13792072.00000000 8935967.00000000 22192816.00000000 3450.20556641   380337.59375000 302260.00000000 
0.16400    13620924.00000000 8828445.00000000 21921486.00000000 3363.54467773   371754.37500000 295427.28125000 
0.16500    13450821.00000000 8721392.00000000 21651660.00000000 3279.15820312   363306.75000000 288700.40625000 
0.16600    13281669.00000000 8614900.00000000 21383222.00000000 3197.14062500   354996.21875000 282074.46875000 
0.16700    13113331.00000000 8508832.00000000 21115996.00000000 3117.39916992   346815.37500000 275554.37500000 
0.16800    12945790.00000000 8403282.00000000 20850022.00000000 3039.93261719   338766.43750000 269137.84375000 
0.16900    12779268.00000000 8298134.50000000 20585280.00000000 2964.74340820   330856.18750000 262828.75000000 
0.17000    12613426.00000000 8193413.50000000 20321764.00000000 2891.75097656   323083.28125000 256620.42187500 
