# SAXS profile: number of points = 501, q_min = 0, q_max = 0.5, delta_q = 0.001
#    q    intensity 
0.00000    162235248.00000000 101202408.00000000 256271040.00000000 107989.50781250 8371423.50000000 6611727.00000000 
0.00100    162197680.00000000 101176640.00000000 256206176.00000000 107955.07812500 8369016.50000000 6609843.00000000 
0.00200    162078640.00000000 101101648.00000000 256015488.00000000 107852.83593750 8361854.50000000 6604237.50000000 
0.00300    161877456.00000000 100976048.00000000 255696480.00000000 107682.10156250 8349936.00000000 6594862.50000000 
0.00400    161593712.00000000 100801768.00000000 255251248.00000000 107443.79687500 8333346.00000000 6581780.00000000 
0.00500    161230176.00000000 100576792.00000000 254681024.00000000 107137.94531250 8312013.50000000 6565049.00000000 
0.00600    160784128.00000000 100301912.00000000 253981472.00000000 106765.35156250 8286050.50000000 6544556.50000000 
0.00700    160261344.00000000 99980112.00000000 253165056.00000000 106327.47656250 8255462.50000000 6520527.00000000 
0.00800    159656544.00000000 99609680.00000000 252221824.00000000 105825.32812500 8220366.00000000 6492955.00000000 
0.00900    158980352.00000000 99193312.00000000 251157024.00000000 105258.15625000 8180747.00000000 6461820.50000000 
0.01000    158230448.00000000 98730296.00000000 249975408.00000000 104629.61718750 8136733.00000000 6427249.00000000 
0.01100    157405600.00000000 98219384.00000000 248677552.00000000 103939.97656250 8088481.00000000 6389296.00000000 
0.01200    156506080.00000000 97665320.00000000 247265824.00000000 103190.10937500 8036034.50000000 6348021.00000000 
0.01300    155533728.00000000 97066632.00000000 245740544.00000000 102382.91406250 7979387.50000000 6303476.00000000 
0.01400    154494992.00000000 96424280.00000000 244107776.00000000 101518.67187500 7918798.00000000 6255903.00000000 
0.01500    153387552.00000000 95741056.00000000 242367504.00000000 100601.09375000 7854353.00000000 6205161.50000000 
0.01600    152214656.00000000 95017464.00000000 240525376.00000000 99630.47656250  7786078.50000000 6151513.50000000 
0.01700    150978048.00000000 94254800.00000000 238582672.00000000 98609.95312500  7714271.00000000 6095025.00000000 
0.01800    149680960.00000000 93453776.00000000 236543648.00000000 97540.44531250  7638938.00000000 6035782.00000000 
0.01900    148324400.00000000 92615976.00000000 234410704.00000000 96425.27343750  7560255.00000000 5973903.50000000 
0.02000    146909424.00000000 91743544.00000000 232189920.00000000 95265.88281250  7478457.00000000 5909502.00000000 
0.02100    145441776.00000000 90837296.00000000 229881664.00000000 94065.92187500  7393518.50000000 5842740.50000000 
0.02200    143921040.00000000 89898184.00000000 227493040.00000000 92826.14062500  7305713.50000000 5773679.00000000 
0.02300    142352176.00000000 88928736.00000000 225025440.00000000 91549.72656250  7215227.50000000 5702495.00000000 
0.02400    140735312.00000000 87930064.00000000 222484608.00000000 90239.60937500  7122167.00000000 5629237.00000000 
0.02500    139075328.00000000 86904392.00000000 219874256.00000000 88897.42968750  7026666.00000000 5554134.50000000 
0.02600    137371936.00000000 85852368.00000000 217197296.00000000 87527.56250000  6928988.50000000 5477246.50000000 
0.02700    135630528.00000000 84776696.00000000 214459744.00000000 86130.48437500  6829252.50000000 5398742.50000000 
0.02800    133853496.00000000 83677792.00000000 211664432.00000000 84710.08593750  6727589.00000000 5318771.00000000 
0.02900    132042936.00000000 82558408.00000000 208817856.00000000 83268.00000000  6624252.50000000 5237436.50000000 
0.03000    130202416.00000000 81420016.00000000 205923920.00000000 81807.25000000  6519388.00000000 5154884.50000000 
0.03100    128333440.00000000 80265080.00000000 202984144.00000000 80330.42187500  6413147.50000000 5071224.50000000 
0.03200    126440208.00000000 79093528.00000000 200005584.00000000 78840.79687500  6305727.50000000 4986646.00000000 
0.03300    124524992.00000000 77908712.00000000 196993360.00000000 77339.51562500  6197268.00000000 4901270.50000000 
0.03400    122590624.00000000 76711360.00000000 193948448.00000000 75830.93750000  6087949.00000000 4815198.00000000 
0.03500    120639104.00000000 75504072.00000000 190879584.00000000 74315.72656250  5977992.50000000 4728591.00000000 
0.03600    118675280.00000000 74288488.00000000 187787568.00000000 72796.86718750  5867510.50000000 4641576.50000000 
0.03700    116699552.00000000 73066120.00000000 184679312.00000000 71277.58593750  5756669.50000000 4554283.00000000 
0.03800    114715136.00000000 71837328.00000000 181556736.00000000 69758.60937500  5645647.00000000 4466802.00000000 
0.03900    112725552.00000000 70604824.00000000 178425056.00000000 68243.43750000  5534560.50000000 4379303.00000000 
0.04000    110733672.00000000 69369744.00000000 175288048.00000000 66733.75000000  5423605.50000000 4291870.00000000 
0.04100    108740648.00000000 68134664.00000000 172151344.00000000 65231.42187500  5312917.50000000 4204627.00000000 
0.04200    106750024.00000000 66900988.00000000 169016960.00000000 63738.81640625  5202676.50000000 4117723.25000000 
0.04300    104764016.00000000 65669608.00000000 165888400.00000000 62258.04296875  5092952.50000000 4031243.50000000 
0.04400    102784920.00000000 64442016.00000000 162770624.00000000 60790.24218750  4983904.50000000 3945286.75000000 
0.04500    100814576.00000000 63219940.00000000 159666784.00000000 59337.97656250  4875688.50000000 3859972.75000000 
0.04600    98855552.00000000 62004448.00000000 156580480.00000000 57902.14062500  4768401.00000000 3775363.50000000 
0.04700    96910304.00000000 60797168.00000000 153514432.00000000 56484.80859375  4662154.50000000 3691565.00000000 
0.04800    94980584.00000000 59598916.00000000 150473536.00000000 55086.90234375  4557076.50000000 3608703.50000000 
0.04900    93068512.00000000 58411436.00000000 147459184.00000000 53710.27343750  4453253.00000000 3526808.00000000 
0.05000    91174472.00000000 57235696.00000000 144475616.00000000 52355.75390625  4350805.50000000 3445988.00000000 
0.05100    89302536.00000000 56072324.00000000 141523328.00000000 51024.54296875  4249876.00000000 3366305.50000000 
0.05200    87453360.00000000 54923164.00000000 138608032.00000000 49718.24218750  4150372.50000000 3287843.25000000 
0.05300    85628024.00000000 53788676.00000000 135730016.00000000 48437.02343750  4052582.25000000 3210613.50000000 
0.05400    83828128.00000000 52669552.00000000 132893632.00000000 47182.32421875  3956448.00000000 3134765.75000000 
0.05500    82056216.00000000 51567548.00000000 130097752.00000000 45954.44140625  3862095.75000000 3060253.00000000 
0.05600    80313088.00000000 50482816.00000000 127346192.00000000 44753.89843750  3769543.00000000 2987194.75000000 
0.05700    78598816.00000000 49415964.00000000 124642552.00000000 43581.55078125  3678880.50000000 2915590.75000000 
0.05800    76915584.00000000 48368028.00000000 121986216.00000000 42437.85156250  3590129.50000000 2845490.75000000 
0.05900    75263648.00000000 47340152.00000000 119378928.00000000 41322.89843750  3503332.75000000 2776952.75000000 
0.06000    73644472.00000000 46331464.00000000 116823864.00000000 40236.73046875  3418523.25000000 2709952.00000000 
0.06100    72058824.00000000 45343408.00000000 114320144.00000000 39179.98437500  3335765.75000000 2644536.50000000 
0.06200    70507200.00000000 44376488.00000000 111869608.00000000 38152.59765625  3254987.25000000 2580735.25000000 
0.06300    68988504.00000000 43430668.00000000 109473920.00000000 37154.52734375  3176323.00000000 2518557.75000000 
0.06400    67507008.00000000 42506668.00000000 107132848.00000000 36185.09375000  3099676.50000000 2457977.00000000 
0.06500    66059920.00000000 41604148.00000000 104846808.00000000 35244.92578125  3025125.25000000 2399049.00000000 
0.06600    64648156.00000000 40723756.00000000 102617736.00000000 34333.35156250  2952635.50000000 2341748.25000000 
0.06700    63272684.00000000 39865768.00000000 100444720.00000000 33450.08984375  2882175.00000000 2286050.50000000 
0.06800    61932732.00000000 39029588.00000000 98327680.00000000 32594.85937500  2813800.75000000 2231962.25000000 
0.06900    60629060.00000000 38215724.00000000 96268000.00000000 31766.95117188  2747435.25000000 2179490.75000000 
0.07000    59361412.00000000 37424260.00000000 94264192.00000000 30966.29882812  2683091.25000000 2128586.00000000 
0.07100    58129108.00000000 36655096.00000000 92317120.00000000 30192.03906250  2620689.00000000 2079234.62500000 
0.07200    56932540.00000000 35907504.00000000 90425536.00000000 29443.54882812  2560275.25000000 2031452.37500000 
0.07300    55771436.00000000 35182036.00000000 88589888.00000000 28720.39843750  2501775.25000000 1985160.25000000 
0.07400    54644940.00000000 34478780.00000000 86809736.00000000 28021.50976562  2445165.50000000 1940373.75000000 
0.07500    53552876.00000000 33796468.00000000 85082616.00000000 27346.82421875  2390380.75000000 1897033.37500000 
0.07600    52495192.00000000 33135642.00000000 83410400.00000000 26694.74609375  2337400.75000000 1855107.75000000 
0.07700    51470656.00000000 32495546.00000000 81790960.00000000 26065.29296875  2286186.25000000 1814587.62500000 
0.07800    50478772.00000000 31875772.00000000 80223040.00000000 25457.46289062  2236663.25000000 1775406.87500000 
0.07900    49519160.00000000 31276094.00000000 78705856.00000000 24870.35156250  2188829.25000000 1737531.62500000 
0.08000    48591208.00000000 30696186.00000000 77238232.00000000 24303.17773438  2142571.75000000 1700932.87500000 
0.08100    47694144.00000000 30135424.00000000 75819128.00000000 23755.04687500  2097885.50000000 1665568.62500000 
0.08200    46826760.00000000 29593446.00000000 74447808.00000000 23225.27539062  2054679.25000000 1631393.75000000 
0.08300    45988608.00000000 29069830.00000000 73123384.00000000 22712.93164062  2012934.12500000 1598356.25000000 
0.08400    45178668.00000000 28563980.00000000 71843248.00000000 22217.44140625  1972586.00000000 1566416.62500000 
0.08500    44396532.00000000 28075354.00000000 70606264.00000000 21737.88867188  1933559.12500000 1535532.75000000 
0.08600    43640816.00000000 27603404.00000000 69411576.00000000 21273.37890625  1895819.62500000 1505662.37500000 
0.08700    42910820.00000000 27147542.00000000 68258000.00000000 20823.10351562  1859286.50000000 1476759.37500000 
0.08800    42205412.00000000 26707218.00000000 67143464.00000000 20386.59570312  1823923.00000000 1448782.12500000 
0.08900    41524124.00000000 26282010.00000000 66066036.00000000 19962.88085938  1789671.12500000 1421695.12500000 
0.09000    40865528.00000000 25871018.00000000 65026140.00000000 19551.32421875  1756477.75000000 1395421.25000000 
0.09100    40228844.00000000 25474214.00000000 64020480.00000000 19150.97851562  1724269.37500000 1369946.62500000 
0.09200    39613136.00000000 25090374.00000000 63048348.00000000 18761.61328125  1693018.75000000 1345221.75000000 
0.09300    39017404.00000000 24719302.00000000 62107896.00000000 18382.24609375  1662648.87500000 1321201.37500000 
0.09400    38440996.00000000 24360522.00000000 61198136.00000000 18012.45312500  1633124.87500000 1297862.87500000 
0.09500    37882620.00000000 24012834.00000000 60316816.00000000 17651.47070312  1604391.50000000 1275123.50000000 
0.09600    37341620.00000000 23676366.00000000 59463260.00000000 17298.95117188  1576401.50000000 1253003.25000000 
0.09700    36816920.00000000 23350306.00000000 58636348.00000000 16954.39257812  1549114.62500000 1231418.62500000 
0.09800    36307900.00000000 23033934.00000000 57833208.00000000 16617.16992188  1522480.25000000 1210362.87500000 
0.09900    35813684.00000000 22726884.00000000 57053676.00000000 16286.69335938  1496459.00000000 1189790.87500000 
0.10000    35332860.00000000 22428500.00000000 56296212.00000000 15962.71875000  1470992.75000000 1169660.62500000 
0.10100    34865164.00000000 22138322.00000000 55559336.00000000 15644.83007812  1446065.75000000 1149956.50000000 
0.10200    34409460.00000000 21855964.00000000 54841500.00000000 15332.72167969  1421640.62500000 1130642.87500000 
0.10300    33965064.00000000 21580646.00000000 54141860.00000000 15025.82128906  1397659.75000000 1111674.62500000 
0.10400    33531026.00000000 21312258.00000000 53459356.00000000 14724.06347656  1374097.00000000 1093061.62500000 
0.10500    33107766.00000000 21049984.00000000 52792428.00000000 14427.12011719  1350941.75000000 1074760.37500000 
0.10600    32692904.00000000 20793526.00000000 52140068.00000000 14134.53027344  1328151.00000000 1056745.50000000 
0.10700    32286418.00000000 20542614.00000000 51501388.00000000 13846.45214844  1305705.87500000 1038990.81250000 
0.10800    31888212.00000000 20296564.00000000 50875164.00000000 13562.44921875  1283556.62500000 1021485.50000000 
0.10900    31497096.00000000 20055240.00000000 50260140.00000000 13282.35644531  1261719.87500000 1004208.81250000 
0.11000    31112630.00000000 19817970.00000000 49656068.00000000 13006.11718750  1240148.62500000 987150.75000000 
0.11100    30734584.00000000 19584576.00000000 49061820.00000000 12733.51464844  1218830.37500000 970289.12500000 
0.11200    30361840.00000000 19354800.00000000 48476152.00000000 12464.59570312  1197744.62500000 953605.06250000 
0.11300    29994492.00000000 19128208.00000000 47898864.00000000 12199.17382812  1176889.87500000 937101.93750000 
0.11400    29631346.00000000 18904604.00000000 47329244.00000000 11937.17871094  1156237.50000000 920759.31250000 
0.11500    29273022.00000000 18683616.00000000 46765988.00000000 11678.62109375  1135785.62500000 904569.06250000 
0.11600    28918276.00000000 18465108.00000000 46209168.00000000 11423.56835938  1115521.00000000 888525.06250000 
0.11700    28567302.00000000 18248668.00000000 45657628.00000000 11171.72167969  1095437.50000000 872622.06250000 
0.11800    28219158.00000000 18034308.00000000 45110792.00000000 10923.26074219  1075534.50000000 856848.93750000 
0.11900    27873938.00000000 17821690.00000000 44569052.00000000 10678.19824219  1055798.00000000 841206.06250000 
0.12000    27531750.00000000 17610676.00000000 44031044.00000000 10436.52636719  1036220.62500000 825687.00000000 
0.12100    27191726.00000000 17400874.00000000 43497100.00000000 10198.29980469  1016813.68750000 810299.56250000 
0.12200    26853982.00000000 17192506.00000000 42966500.00000000 9963.61523438   997564.50000000 795034.81250000 
0.12300    26518116.00000000 16985356.00000000 42438672.00000000 9732.34277344   978483.68750000 779888.18750000 
0.12400    26184236.00000000 16779114.00000000 41913412.00000000 9504.58007812   959556.68750000 764870.56250000 
0.12500    25851746.00000000 16573916.00000000 41390688.00000000 9280.41601562   940793.25000000 749969.81250000 
0.12600    25521156.00000000 16369569.00000000 40870848.00000000 9059.95410156   922208.87500000 735201.93750000 
0.12700    25191908.00000000 16165987.00000000 40352596.00000000 8843.16015625   903784.43750000 720562.93750000 
0.12800    24864090.00000000 15963139.00000000 39836464.00000000 8630.03222656   885529.68750000 706049.43750000 
0.12900    24537590.00000000 15760954.00000000 39322312.00000000 8420.60058594   867458.68750000 691674.31250000 
0.13000    24212346.00000000 15559415.00000000 38810444.00000000 8215.04003906   849561.18750000 677439.81250000 
0.13100    23888434.00000000 15358515.00000000 38299932.00000000 8013.30615234   831853.81250000 663341.37500000 
0.13200    23565826.00000000 15158227.00000000 37791256.00000000 7815.38427734   814337.62500000 649391.75000000 
0.13300    23244324.00000000 14958639.00000000 37284620.00000000 7621.43164062   797009.43750000 635597.56250000 
0.13400    22924514.00000000 14759705.00000000 36779504.00000000 7431.34228516   779889.12500000 621950.00000000 
0.13500    22605878.00000000 14561295.00000000 36276764.00000000 7245.19482422   762973.75000000 608468.06250000 
0.13600    22288566.00000000 14363604.00000000 35775988.00000000 7062.97070312   746267.25000000 595139.81250000 
0.13700    21972618.00000000 14166652.00000000 35276644.00000000 6884.69970703   729779.12500000 581984.43750000 
0.13800    21658236.00000000 13970450.00000000 34780132.00000000 6710.31542969   713508.62500000 569002.75000000 
0.13900    21345534.00000000 13775031.00000000 34285188.00000000 6539.92285156   697475.25000000 556188.68750000 
0.14000    21034460.00000000 13580402.00000000 33792956.00000000 6373.39501953   681661.87500000 543562.12500000 
0.14100    20725098.00000000 13386680.00000000 33303086.00000000 6210.74511719   666089.00000000 531123.37500000 
0.14200    20417416.00000000 13193870.00000000 32815862.00000000 6052.04150391   650749.50000000 518862.87500000 
0.14300    20111606.00000000 13001982.00000000 32331370.00000000 5897.11035156   635657.31250000 506793.56250000 
0.14400    19807804.00000000 12811239.00000000 31849852.00000000 5745.89843750   620806.56250000 494916.21875000 
0.14500    19506098.00000000 12621491.00000000 31371164.00000000 5598.52490234   606204.50000000 483234.56250000 
0.14600    19206648.00000000 12433025.00000000 30895732.00000000 5454.77490234   591861.37500000 471751.81250000 
0.14700    18909494.00000000 12245765.00000000 30423676.00000000 5314.70214844   577763.62500000 460472.84375000 
0.14800    18614364.00000000 12059605.00000000 29954916.00000000 5178.09375000   563927.87500000 449391.28125000 
0.14900    18321882.00000000 11874867.00000000 29490010.00000000 5045.02978516   550344.50000000 438509.75000000 
0.15000    18031790.00000000 11691646.00000000 29028724.00000000 4915.32861328   537014.56250000 427832.46875000 
0.15100    17744384.00000000 11509750.00000000 28571336.00000000 4789.02832031   523945.28125000 417359.68750000 
0.15200    17459626.00000000 11329410.00000000 28118016.00000000 4666.00439453   511137.28125000 407094.15625000 
0.15300    17177550.00000000 11150622.00000000 27668850.00000000 4546.14501953   498581.84375000 397031.03125000 
0.15400    16898378.00000000 10973387.00000000 27223834.00000000 4429.33886719   486279.34375000 387170.78125000 
0.15500    16622225.00000000 10797907.00000000 26783474.00000000 4315.61718750   474235.40625000 377512.06250000 
0.15600    16348890.00000000 10624039.00000000 26347430.00000000 4204.75976562   462440.03125000 368058.90625000 
0.15700    16078622.00000000 10452039.00000000 25916030.00000000 4096.83837891   450897.81250000 358802.34375000 
0.15800    15811380.00000000 10281793.00000000 25489392.00000000 3991.59741211   439602.84375000 349744.68750000 
0.15900    15547213.00000000 10113394.00000000 25067522.00000000 3889.04028320   428555.15625000 340885.96875000 
0.16000    15286198.00000000 9946748.00000000 24650408.00000000 3789.10327148   417749.81250000 332216.65625000 
0.16100    15028562.00000000 9782244.00000000 24238630.00000000 3691.70996094   407182.37500000 323744.25000000 
0.16200    14774043.00000000 9619517.00000000 23831590.00000000 3596.73022461   396850.50000000 315460.34375000 
0.16300    14522885.00000000 9458830.00000000 23429512.00000000 3504.07861328   386750.90625000 307362.50000000 
0.16400    14274979.00000000 9300063.00000000 23032858.00000000 3413.74047852   376883.21875000 299450.78125000 
0.16500    14030412.00000000 9143330.00000000 22641250.00000000 3325.58666992   367235.37500000 291713.00000000 
0.16600    13789242.00000000 8988702.00000000 22255134.00000000 3239.59838867   357810.43750000 284158.43750000 
0.16700    13551294.00000000 8835978.00000000 21873820.00000000 3155.67529297   348598.56250000 276775.71875000 
0.16800    13316843.00000000 8685427.00000000 21497938.00000000 3073.72192383   339594.37500000 269563.84375000 
0.16900    13085806.00000000 8536864.00000000 21127476.00000000 2993.75317383   330803.75000000 262519.59375000 
0.17000    12858138.00000000 8390478.00000000 20762384.00000000 2915.70703125   322211.31250000 255636.03125000 
