# SAXS profile: number of points = 501, q_min = 0, q_max = 0.5, delta_q = 0.001
#    q    intensity 
0.00000    162232656.00000000 101202128.00000000 256270864.00000000 110345.24218750 8462197.00000000 6683450.50000000 
0.00100    162194208.00000000 101175488.00000000 256204864.00000000 110307.63281250 8459657.00000000 6681447.50000000 
0.00200    162074496.00000000 101097384.00000000 256007264.00000000 110196.47656250 8452015.00000000 6675409.50000000 
0.00300    161868288.00000000 100968224.00000000 255676272.00000000 110010.34375000 8439240.00000000 6665365.50000000 
0.00400    161572656.00000000 100786936.00000000 255215280.00000000 109750.82812500 8421489.00000000 6651350.50000000 
0.00500    161192160.00000000 100553408.00000000 254622000.00000000 109418.64062500 8398639.00000000 6633405.50000000 
0.00600    160734816.00000000 100269456.00000000 253901072.00000000 109013.45312500 8370865.00000000 6611522.00000000 
0.00700    160189008.00000000 99935720.00000000 253053040.00000000 108537.96093750 8338163.50000000 6585750.00000000 
0.00800    159567040.00000000 99552832.00000000 252078256.00000000 107991.67968750 8300614.00000000 6556241.00000000 
0.00900    158867632.00000000 99121280.00000000 250976704.00000000 107376.76562500 8258317.50000000 6522935.50000000 
0.01000    158092016.00000000 98641648.00000000 249755056.00000000 106694.50781250 8211369.00000000 6485962.00000000 
0.01100    157240752.00000000 98113128.00000000 248412448.00000000 105946.15625000 8159816.50000000 6445402.50000000 
0.01200    156310080.00000000 97539584.00000000 246952416.00000000 105134.19531250 8103856.00000000 6401315.50000000 
0.01300    155308080.00000000 96918984.00000000 245377728.00000000 104260.21875000 8043574.50000000 6353877.00000000 
0.01400    154234128.00000000 96256256.00000000 243689664.00000000 103326.78906250 7979056.50000000 6303093.50000000 
0.01500    153094752.00000000 95550888.00000000 241894352.00000000 102334.32031250 7910482.00000000 6249089.50000000 
0.01600    151884608.00000000 94803776.00000000 239993216.00000000 101287.81250000 7838005.00000000 6192003.50000000 
0.01700    150610336.00000000 94016072.00000000 237989728.00000000 100187.44531250 7761764.50000000 6131953.00000000 
0.01800    149274912.00000000 93189856.00000000 235888336.00000000 99037.00000000  7681863.50000000 6069047.50000000 
0.01900    147878816.00000000 92326024.00000000 233691984.00000000 97838.42968750  7598523.50000000 6003376.50000000 
0.02000    146424016.00000000 91426912.00000000 231405328.00000000 96593.89843750  7511926.00000000 5935200.50000000 
0.02100    144915408.00000000 90493512.00000000 229031808.00000000 95306.89843750  7422189.50000000 5864557.00000000 
0.02200    143354720.00000000 89527608.00000000 226572800.00000000 93980.79687500  7329567.00000000 5791582.00000000 
0.02300    141742736.00000000 88531144.00000000 224039920.00000000 92617.27343750  7234177.00000000 5716441.00000000 
0.02400    140085216.00000000 87504648.00000000 221431536.00000000 91219.42968750  7136262.50000000 5639278.50000000 
0.02500    138384080.00000000 86450648.00000000 218753168.00000000 89790.94531250  7035944.00000000 5560264.50000000 
0.02600    136641200.00000000 85371328.00000000 216011280.00000000 88334.25000000  6933416.50000000 5479490.50000000 
0.02700    134859424.00000000 84268608.00000000 213208496.00000000 86852.05468750  6828925.50000000 5397183.50000000 
0.02800    133042888.00000000 83143592.00000000 210348016.00000000 85348.06250000  6722621.50000000 5313411.00000000 
0.02900    131194248.00000000 81998672.00000000 207438208.00000000 83824.58593750  6614742.50000000 5228409.50000000 
0.03000    129316536.00000000 80834224.00000000 204481040.00000000 82284.76562500  6505479.00000000 5142250.00000000 
0.03100    127412544.00000000 79653912.00000000 201482704.00000000 80731.84375000  6394927.50000000 5055138.50000000 
0.03200    125484320.00000000 78458104.00000000 198446928.00000000 79168.12500000  6283385.00000000 4967161.00000000 
0.03300    123536200.00000000 77251040.00000000 195377312.00000000 77596.59375000  6171012.00000000 4878618.00000000 
0.03400    121570496.00000000 76031680.00000000 192282160.00000000 76019.85937500  6057944.50000000 4789536.50000000 
0.03500    119589992.00000000 74803416.00000000 189161584.00000000 74441.11718750  5944456.50000000 4700039.50000000 
0.03600    117597840.00000000 73566856.00000000 186023488.00000000 72862.80468750  5830621.50000000 4610258.50000000 
0.03700    115596112.00000000 72324784.00000000 182869696.00000000 71286.68750000  5716678.50000000 4520427.00000000 
0.03800    113589304.00000000 71078336.00000000 179706240.00000000 69716.55468750  5602776.00000000 4430577.50000000 
0.03900    111578640.00000000 69829552.00000000 176536592.00000000 68153.83593750  5489127.00000000 4340921.50000000 
0.04000    109567200.00000000 68579448.00000000 173367088.00000000 66600.90625000  5375807.50000000 4251537.00000000 
0.04100    107557736.00000000 67330448.00000000 170197056.00000000 65060.64843750  5263000.00000000 4162581.50000000 
0.04200    105551984.00000000 66084060.00000000 167034416.00000000 63534.27343750  5150941.00000000 4074146.00000000 
0.04300    103554072.00000000 64841776.00000000 163883888.00000000 62024.49609375  5039627.00000000 3986348.50000000 
0.04400    101564928.00000000 63604448.00000000 160746816.00000000 60532.21484375  4929275.00000000 3899286.00000000 
0.04500    99587896.00000000 62373860.00000000 157627376.00000000 59060.26171875  4820017.00000000 3813072.50000000 
0.04600    97623888.00000000 61151940.00000000 154527312.00000000 57609.19921875  4711957.00000000 3727803.50000000 
0.04700    95674528.00000000 59939292.00000000 151451872.00000000 56180.90625000  4605269.00000000 3643563.25000000 
0.04800    93744464.00000000 58737284.00000000 148407056.00000000 54777.20312500  4499975.00000000 3560440.00000000 
0.04900    91833392.00000000 57547448.00000000 145390624.00000000 53398.81640625  4396217.50000000 3478505.25000000 
0.05000    89944232.00000000 56370608.00000000 142408064.00000000 52046.74218750  4294057.50000000 3397867.75000000 
0.05100    88077760.00000000 55207648.00000000 139462304.00000000 50722.43750000  4193594.50000000 3318543.00000000 
0.05200    86237064.00000000 54060148.00000000 136555776.00000000 49426.72656250  4094877.75000000 3240633.50000000 
0.05300    84421928.00000000 52928668.00000000 133689776.00000000 48159.85937500  3998066.75000000 3164160.75000000 
0.05400    82634592.00000000 51814172.00000000 130867680.00000000 46922.97265625  3903138.50000000 3089197.50000000 
0.05500    80875840.00000000 50717676.00000000 128089672.00000000 45716.53125000  3810169.75000000 3015770.75000000 
0.05600    79147768.00000000 49639408.00000000 125359752.00000000 44540.66015625  3719226.50000000 2943946.50000000 
0.05700    77450664.00000000 48580640.00000000 122678968.00000000 43395.54687500  3630340.25000000 2873712.75000000 
0.05800    75785880.00000000 47541400.00000000 120048392.00000000 42282.22265625  3543523.25000000 2805140.00000000 
0.05900    74154360.00000000 46523060.00000000 117469664.00000000 41199.44921875  3458811.75000000 2738230.75000000 
0.06000    72555752.00000000 45525476.00000000 114943848.00000000 40148.07031250  3376230.50000000 2672964.75000000 
0.06100    70992104.00000000 44548420.00000000 112472536.00000000 39127.37109375  3295775.75000000 2609407.50000000 
0.06200    69463424.00000000 43593900.00000000 110056328.00000000 38137.88671875  3217461.00000000 2547550.50000000 
0.06300    67969920.00000000 42661452.00000000 107696576.00000000 37179.46484375  3141313.00000000 2487346.00000000 
0.06400    66512212.00000000 41750740.00000000 105391880.00000000 36250.47656250  3067283.75000000 2428856.75000000 
0.06500    65090308.00000000 40862328.00000000 103144432.00000000 35351.68359375  2995363.25000000 2372043.50000000 
0.06600    63705092.00000000 39996652.00000000 100953672.00000000 34481.65234375  2925590.25000000 2316872.00000000 
0.06700    62355180.00000000 39153600.00000000 98820816.00000000 33640.40234375  2857872.50000000 2263369.75000000 
0.06800    61041964.00000000 38332788.00000000 96744520.00000000 32827.32031250  2792212.00000000 2211497.00000000 
0.06900    59764892.00000000 37535264.00000000 94725856.00000000 32041.31445312  2728580.00000000 2161215.75000000 
0.07000    58523672.00000000 36759556.00000000 92763520.00000000 31282.13085938  2666940.50000000 2112500.00000000 
0.07100    57317844.00000000 36006272.00000000 90857584.00000000 30548.56835938  2607247.25000000 2065350.00000000 
0.07200    56147464.00000000 35275360.00000000 89006984.00000000 29839.92187500  2549474.75000000 2019697.62500000 
0.07300    55012324.00000000 34566092.00000000 87212112.00000000 29155.28125000  2493545.00000000 1975526.12500000 
0.07400    53911372.00000000 33879004.00000000 85473528.00000000 28494.14648438  2439445.00000000 1932770.12500000 
0.07500    52844520.00000000 33212868.00000000 83786776.00000000 27855.36132812  2387124.25000000 1891436.12500000 
0.07600    51810836.00000000 32568236.00000000 82154168.00000000 27237.89453125  2336512.50000000 1851427.50000000 
0.07700    50810620.00000000 31943838.00000000 80573296.00000000 26641.12890625  2287522.75000000 1812758.00000000 
0.07800    49841836.00000000 31339846.00000000 79043496.00000000 26063.99414062  2240169.50000000 1775358.50000000 
0.07900    48905036.00000000 30755732.00000000 77563928.00000000 25505.55468750  2194343.75000000 1739174.62500000 
0.08000    47999040.00000000 30191012.00000000 76133072.00000000 24965.02929688  2150017.00000000 1704172.50000000 
0.08100    47122384.00000000 29645212.00000000 74749592.00000000 24441.51953125  2107126.25000000 1670297.50000000 
0.08200    46274888.00000000 29117820.00000000 73412392.00000000 23934.01367188  2065559.00000000 1637512.00000000 
0.08300    45456048.00000000 28608338.00000000 72120632.00000000 23441.84570312  2025349.62500000 1605759.12500000 
0.08400    44664644.00000000 28116278.00000000 70872080.00000000 22964.33203125  1986384.00000000 1575006.12500000 
0.08500    43899696.00000000 27641254.00000000 69666696.00000000 22500.18164062  1948597.75000000 1545204.50000000 
0.08600    43160240.00000000 27182470.00000000 68501408.00000000 22048.70898438  1911961.75000000 1516287.75000000 
0.08700    42445708.00000000 26739274.00000000 67375744.00000000 21609.41796875  1876409.25000000 1488240.25000000 
0.08800    41755088.00000000 26311434.00000000 66288600.00000000 21181.49609375  1841856.75000000 1461008.37500000 
0.08900    41087516.00000000 25898154.00000000 65237364.00000000 20764.10156250  1808298.62500000 1434529.62500000 
0.09000    40442108.00000000 25498908.00000000 64222384.00000000 20356.99804688  1775650.00000000 1408785.00000000 
0.09100    39817804.00000000 25113054.00000000 63240612.00000000 19959.15429688  1743863.62500000 1383740.62500000 
0.09200    39213696.00000000 24740314.00000000 62291108.00000000 19569.97656250  1712912.37500000 1359331.50000000 
0.09300    38628896.00000000 24379662.00000000 61373040.00000000 19189.12109375  1682714.75000000 1335533.75000000 
0.09400    38062820.00000000 24030796.00000000 60484060.00000000 18815.90234375  1653253.25000000 1312306.62500000 
0.09500    37513884.00000000 23693564.00000000 59622728.00000000 18449.88476562  1624461.75000000 1289620.87500000 
0.09600    36981868.00000000 23366396.00000000 58788648.00000000 18090.91601562  1596315.75000000 1267445.87500000 
0.09700    36465888.00000000 23049764.00000000 57979676.00000000 17738.15625000  1568766.12500000 1245727.75000000 
0.09800    35964844.00000000 22742624.00000000 57194944.00000000 17391.48437500  1541779.50000000 1224464.12500000 
0.09900    35478308.00000000 22444668.00000000 56432532.00000000 17050.54296875  1515311.12500000 1203624.50000000 
0.10000    35004784.00000000 22155094.00000000 55692356.00000000 16715.02148438  1489346.00000000 1183151.12500000 
0.10100    34544352.00000000 21873612.00000000 54971712.00000000 16384.57617188  1463844.75000000 1163049.00000000 
0.10200    34095772.00000000 21599800.00000000 54270480.00000000 16059.08398438  1438770.50000000 1143301.87500000 
0.10300    33658180.00000000 21332936.00000000 53587044.00000000 15738.27148438  1414099.00000000 1123843.00000000 
0.10400    33231482.00000000 21073018.00000000 52920416.00000000 15422.02832031  1389821.25000000 1104690.62500000 
0.10500    32814670.00000000 20819076.00000000 52269416.00000000 15110.41210938  1365900.25000000 1085831.75000000 
0.10600    32406584.00000000 20571032.00000000 51632792.00000000 14802.65820312  1342300.25000000 1067221.75000000 
0.10700    32007736.00000000 20328430.00000000 51010388.00000000 14499.38476562  1319044.87500000 1048863.00000000 
0.10800    31616592.00000000 20090820.00000000 50400228.00000000 14200.20605469  1296077.00000000 1030750.00000000 
0.10900    31233220.00000000 19857642.00000000 49801828.00000000 13904.93359375  1273404.12500000 1012842.93750000 
0.11000    30856196.00000000 19629046.00000000 49214536.00000000 13613.80468750  1250997.00000000 995159.50000000 
0.11100    30486066.00000000 19404352.00000000 48637380.00000000 13326.50195312  1228871.75000000 977676.18750000 
0.11200    30121770.00000000 19183370.00000000 48069724.00000000 13043.26464844  1206990.87500000 960383.93750000 
0.11300    29763102.00000000 18965628.00000000 47510440.00000000 12764.08300781  1185348.50000000 943280.87500000 
0.11400    29409432.00000000 18751022.00000000 46959024.00000000 12488.87304688  1163955.87500000 926362.25000000 
0.11500    29060544.00000000 18539318.00000000 46414900.00000000 12217.68261719  1142777.75000000 909614.18750000 
0.11600    28715890.00000000 18330180.00000000 45877488.00000000 11950.48632812  1121833.87500000 893040.81250000 
0.11700    28375392.00000000 18123126.00000000 45346544.00000000 11687.38769531  1101120.62500000 876644.62500000 
0.11800    28038486.00000000 17918388.00000000 44820724.00000000 11428.47070312  1080618.00000000 860403.93750000 
0.11900    27704766.00000000 17715710.00000000 44300072.00000000 11173.68164062  1060342.25000000 844334.37500000 
0.12000    27374268.00000000 17514490.00000000 43784352.00000000 10922.97949219  1040277.12500000 828425.37500000 
0.12100    27046796.00000000 17314986.00000000 43272472.00000000 10676.75878906  1020432.00000000 812692.00000000 
0.12200    26721868.00000000 17116924.00000000 42764788.00000000 10434.63281250  1000799.31250000 797118.18750000 
0.12300    26399374.00000000 16920140.00000000 42260644.00000000 10196.75976562  981388.87500000 781714.68750000 
0.12400    26079196.00000000 16724478.00000000 41759344.00000000 9963.33203125   962198.68750000 766469.81250000 
0.12500    25760810.00000000 16529719.00000000 41261096.00000000 9734.13964844   943225.56250000 751401.50000000 
0.12600    25444714.00000000 16335932.00000000 40766148.00000000 9509.39550781   924475.93750000 736496.56250000 
0.12700    25130140.00000000 16143052.00000000 40272880.00000000 9288.97363281   905949.68750000 721766.93750000 
0.12800    24817188.00000000 15950996.00000000 39782552.00000000 9073.08300781   887647.12500000 707205.50000000 
0.12900    24506148.00000000 15759532.00000000 39294128.00000000 8861.45019531   869580.06250000 692830.87500000 
0.13000    24196362.00000000 15568706.00000000 38807376.00000000 8654.25976562   851737.68750000 678627.37500000 
0.13100    23888102.00000000 15378488.00000000 38323148.00000000 8451.35449219   834132.18750000 664604.31250000 
0.13200    23581064.00000000 15188867.00000000 37840536.00000000 8252.76074219   816756.68750000 650765.93750000 
0.13300    23275596.00000000 14999780.00000000 37359312.00000000 8058.56054688   799621.25000000 637106.12500000 
0.13400    22971184.00000000 14811248.00000000 36880224.00000000 7868.60302734   782723.87500000 623632.81250000 
0.13500    22668084.00000000 14623070.00000000 36402376.00000000 7682.79980469   766073.06250000 610352.25000000 
0.13600    22366358.00000000 14435466.00000000 35926468.00000000 7501.18115234   749657.62500000 597259.62500000 
0.13700    22065998.00000000 14248231.00000000 35451964.00000000 7323.59228516   733490.37500000 584358.18750000 
0.13800    21766632.00000000 14061704.00000000 34979216.00000000 7150.14990234   717560.56250000 571644.56250000 
0.13900    21468804.00000000 13875503.00000000 34507936.00000000 6980.60400391   701888.12500000 559125.56250000 
0.14000    21172200.00000000 13689966.00000000 34038376.00000000 6814.94189453   686456.00000000 546802.25000000 
0.14100    20876732.00000000 13504898.00000000 33570616.00000000 6653.07714844   671271.31250000 534668.68750000 
0.14200    20582774.00000000 13320429.00000000 33104888.00000000 6494.98876953   656333.62500000 522733.50000000 
0.14300    20290066.00000000 13136459.00000000 32640878.00000000 6340.46923828   641643.81250000 510995.59375000 
0.14400    19998918.00000000 12953174.00000000 32178762.00000000 6189.47802734   627192.18750000 499448.34375000 
0.14500    19709340.00000000 12770605.00000000 31718584.00000000 6041.96337891   612995.75000000 488093.78125000 
0.14600    19420916.00000000 12588741.00000000 31260814.00000000 5897.78417969   599035.56250000 476937.03125000 
0.14700    19134440.00000000 12407585.00000000 30805130.00000000 5756.90869141   585330.00000000 465970.56250000 
0.14800    18849574.00000000 12227314.00000000 30351848.00000000 5619.12939453   571855.00000000 455198.90625000 
0.14900    18566236.00000000 12047778.00000000 29900696.00000000 5484.43505859   558625.68750000 444616.34375000 
0.15000    18284852.00000000 11869222.00000000 29452410.00000000 5352.75292969   545631.75000000 434225.71875000 
0.15100    18005142.00000000 11691549.00000000 29006276.00000000 5223.93359375   532875.68750000 424024.21875000 
0.15200    17727456.00000000 11514900.00000000 28563372.00000000 5097.94091797   520355.75000000 414010.25000000 
0.15300    17451630.00000000 11339308.00000000 28123124.00000000 4974.60937500   508068.65625000 404180.18750000 
0.15400    17177784.00000000 11164784.00000000 27685932.00000000 4853.91308594   496005.18750000 394530.25000000 
0.15500    16905928.00000000 10991238.00000000 27251730.00000000 4735.88134766   484173.87500000 385067.43750000 
0.15600    16636646.00000000 10819099.00000000 26820674.00000000 4620.16699219   472564.53125000 375781.90625000 
0.15700    16369191.00000000 10648118.00000000 26393110.00000000 4506.98828125   461179.71875000 366676.34375000 
0.15800    16103931.00000000 10478296.00000000 25968596.00000000 4396.11914062   450010.43750000 357743.90625000 
0.15900    15841120.00000000 10309892.00000000 25547922.00000000 4287.50683594   439058.21875000 348981.59375000 
0.16000    15580569.00000000 10142835.00000000 25130740.00000000 4181.15039062   428317.34375000 340395.62500000 
0.16100    15322706.00000000 9977259.00000000 24717496.00000000 4076.98583984   417792.78125000 331980.71875000 
0.16200    15067160.00000000 9813169.00000000 24307948.00000000 3974.88989258   407471.46875000 323730.18750000 
0.16300    14814200.00000000 9650571.00000000 23902248.00000000 3874.98779297   397358.09375000 315642.12500000 
0.16400    14563855.00000000 9489533.00000000 23500800.00000000 3777.06420898   387447.75000000 307718.25000000 
0.16500    14316101.00000000 9330092.00000000 23103200.00000000 3681.18652344   377736.62500000 299953.71875000 
0.16600    14071259.00000000 9172266.00000000 22710156.00000000 3587.31298828   368219.96875000 292348.21875000 
0.16700    13828968.00000000 9016106.00000000 22321218.00000000 3495.38598633   358898.28125000 284895.46875000 
0.16800    13589461.00000000 8861651.00000000 21936686.00000000 3405.43041992   349768.34375000 277599.46875000 
0.16900    13353054.00000000 8709038.00000000 21556716.00000000 3317.45092773   340831.50000000 270452.09375000 
0.17000    13119330.00000000 8558096.00000000 21181230.00000000 3231.37377930   332076.81250000 263456.46875000 
