# SAXS profile: number of points = 501, q_min = 0, q_max = 0.5, delta_q = 0.001
#    q    intensity 
0.00000    162231168.00000000 101202280.00000000 256269856.00000000 110261.06250000 8458973.00000000 6680915.00000000 
0.00100    162187120.00000000 101171576.00000000 256192864.00000000 110219.53906250 8456069.00000000 6678630.00000000 
0.00200    162047920.00000000 101080656.00000000 255962656.00000000 110097.11718750 8447475.00000000 6671862.50000000 
0.00300    161806352.00000000 100929184.00000000 255578176.00000000 109892.14062500 8433189.00000000 6660584.50000000 
0.00400    161461136.00000000 100718472.00000000 255041104.00000000 109606.60937500 8413127.00000000 6644851.00000000 
0.00500    161018736.00000000 100445512.00000000 254349328.00000000 109241.21093750 8387485.50000000 6624619.00000000 
0.00600    160484688.00000000 100116440.00000000 253512272.00000000 108796.25781250 8356297.50000000 6600117.50000000 
0.00700    159849376.00000000 99729448.00000000 252524736.00000000 108273.82812500 8319624.00000000 6571330.00000000 
0.00800    159127424.00000000 99285168.00000000 251390096.00000000 107674.54687500 8277560.00000000 6538242.00000000 
0.00900    158317712.00000000 98785064.00000000 250113968.00000000 107000.81250000 8230204.50000000 6501013.50000000 
0.01000    157418832.00000000 98227984.00000000 248697120.00000000 106254.77343750 8177737.00000000 6459726.50000000 
0.01100    156428848.00000000 97617544.00000000 247144480.00000000 105437.78125000 8120234.00000000 6414519.50000000 
0.01200    155352976.00000000 96953568.00000000 245457008.00000000 104552.24218750 8057873.50000000 6365433.00000000 
0.01300    154197248.00000000 96240696.00000000 243641632.00000000 103600.00781250 7990848.50000000 6312679.50000000 
0.01400    152962448.00000000 95478848.00000000 241700048.00000000 102585.32812500 7919176.00000000 6256368.00000000 
0.01500    151649536.00000000 94668408.00000000 239635696.00000000 101509.07812500 7843216.00000000 6196559.00000000 
0.01600    150261904.00000000 93812112.00000000 237456400.00000000 100375.99218750 7763021.00000000 6133475.00000000 
0.01700    148804576.00000000 92911544.00000000 235164096.00000000 99187.39843750  7678839.50000000 6067309.50000000 
0.01800    147278304.00000000 91970064.00000000 232767328.00000000 97947.08593750  7590994.00000000 5998119.50000000 
0.01900    145689424.00000000 90987776.00000000 230268912.00000000 96658.86718750  7499487.00000000 5926105.00000000 
0.02000    144038608.00000000 89967928.00000000 227672480.00000000 95324.92187500  7404693.00000000 5851483.00000000 
0.02100    142330048.00000000 88911520.00000000 224985808.00000000 93949.64062500  7306754.50000000 5774439.00000000 
0.02200    140569168.00000000 87821640.00000000 222215504.00000000 92535.36718750  7205912.50000000 5695038.00000000 
0.02300    138756416.00000000 86700960.00000000 219365360.00000000 91086.66406250  7102449.00000000 5613560.00000000 
0.02400    136897136.00000000 85551288.00000000 216440960.00000000 89606.48437500  6996512.50000000 5530176.00000000 
0.02500    134995344.00000000 84374904.00000000 213449424.00000000 88097.85937500  6888345.50000000 5445035.50000000 
0.02600    133054976.00000000 83173496.00000000 210396496.00000000 86564.49218750  6778340.50000000 5358317.00000000 
0.02700    131079744.00000000 81950704.00000000 207287984.00000000 85010.97656250  6666489.00000000 5270257.50000000 
0.02800    129073552.00000000 80707096.00000000 204129536.00000000 83439.00781250  6553167.50000000 5181010.50000000 
0.02900    127039472.00000000 79447488.00000000 200927280.00000000 81853.18750000  6438630.50000000 5090762.50000000 
0.03000    124981448.00000000 78172584.00000000 197686336.00000000 80256.57812500  6323016.50000000 4999686.50000000 
0.03100    122904360.00000000 76885112.00000000 194417600.00000000 78652.92968750  6206670.50000000 4907983.00000000 
0.03200    120810296.00000000 75587496.00000000 191120000.00000000 77044.92968750  6089660.00000000 4815815.50000000 
0.03300    118705184.00000000 74281416.00000000 187802016.00000000 75435.64843750  5972350.50000000 4723306.00000000 
0.03400    116589872.00000000 72968680.00000000 184468880.00000000 73827.37500000  5854864.50000000 4630686.00000000 
0.03500    114470648.00000000 71652048.00000000 181128272.00000000 72223.83593750  5737391.50000000 4538101.00000000 
0.03600    112348232.00000000 70334504.00000000 177784224.00000000 70628.71875000  5620219.50000000 4445679.00000000 
0.03700    110228408.00000000 69017296.00000000 174442128.00000000 69042.71875000  5503454.00000000 4353597.50000000 
0.03800    108113048.00000000 67703056.00000000 171105968.00000000 67468.43750000  5387351.50000000 4261970.00000000 
0.03900    106005504.00000000 66392000.00000000 167782720.00000000 65910.85156250  5271998.50000000 4170958.25000000 
0.04000    103909432.00000000 65088156.00000000 164476640.00000000 64368.81640625  5157625.50000000 4080714.25000000 
0.04100    101827056.00000000 63792744.00000000 161191168.00000000 62846.88281250  5044382.00000000 3991369.00000000 
0.04200    99761848.00000000 62506740.00000000 157931792.00000000 61346.10156250  4932426.50000000 3902977.25000000 
0.04300    97714728.00000000 61232764.00000000 154700816.00000000 59868.21875000  4821838.00000000 3815711.25000000 
0.04400    95690352.00000000 59971432.00000000 151505424.00000000 58415.21484375  4712831.50000000 3729625.50000000 
0.04500    93690248.00000000 58725356.00000000 148347904.00000000 56988.19140625  4605474.50000000 3644838.75000000 
0.04600    91716880.00000000 57494824.00000000 145231504.00000000 55588.39843750  4499872.50000000 3561445.50000000 
0.04700    89770864.00000000 56281620.00000000 142158576.00000000 54216.87109375  4396160.00000000 3479518.50000000 
0.04800    87855936.00000000 55086956.00000000 139133296.00000000 52875.06640625  4294387.00000000 3399122.50000000 
0.04900    85972664.00000000 53912336.00000000 136160560.00000000 51563.83984375  4194659.50000000 3320304.75000000 
0.05000    84124328.00000000 52758260.00000000 133237280.00000000 50283.71875000  4096984.25000000 3243150.75000000 
0.05100    82310456.00000000 51625324.00000000 130372408.00000000 49034.79687500  4001515.00000000 3167695.75000000 
0.05200    80532984.00000000 50515868.00000000 127562312.00000000 47818.14062500  3908217.25000000 3093950.75000000 
0.05300    78794240.00000000 49428740.00000000 124812848.00000000 46633.93750000  3817229.25000000 3022017.00000000 
0.05400    77093824.00000000 48366168.00000000 122124480.00000000 45481.86718750  3728493.50000000 2951841.75000000 
0.05500    75431880.00000000 47327992.00000000 119497224.00000000 44362.77734375  3642062.50000000 2883490.00000000 
0.05600    73811520.00000000 46314292.00000000 116933680.00000000 43275.57031250  3557897.75000000 2816952.50000000 
0.05700    72231880.00000000 45326076.00000000 114434848.00000000 42220.95703125  3476103.75000000 2752245.50000000 
0.05800    70692544.00000000 44363708.00000000 112000632.00000000 41197.71875000  3396594.50000000 2689386.25000000 
0.05900    69196048.00000000 43426736.00000000 109632848.00000000 40206.32812500  3319439.75000000 2628317.75000000 
0.06000    67739824.00000000 42516016.00000000 107329816.00000000 39245.25781250  3244525.25000000 2569057.25000000 
0.06100    66326104.00000000 41631448.00000000 105093144.00000000 38315.09765625  3171894.00000000 2511610.00000000 
0.06200    64954012.00000000 40773056.00000000 102923440.00000000 37414.33203125  3101505.00000000 2455917.00000000 
0.06300    63624192.00000000 39940320.00000000 100817888.00000000 36542.90234375  3033305.25000000 2401979.75000000 
0.06400    62334552.00000000 39133596.00000000 98778128.00000000 35699.12500000  2967250.00000000 2349730.00000000 
0.06500    61085924.00000000 38352332.00000000 96802888.00000000 34882.92187500  2903303.25000000 2299170.00000000 
0.06600    59878156.00000000 37596812.00000000 94892288.00000000 34093.55078125  2841454.00000000 2250212.50000000 
0.06700    58709792.00000000 36866124.00000000 93043152.00000000 33329.26953125  2781595.00000000 2202866.50000000 
0.06800    57580072.00000000 36159916.00000000 91257640.00000000 32590.12109375  2723692.75000000 2157074.50000000 
0.06900    56489408.00000000 35477784.00000000 89532448.00000000 31874.21289062  2667712.50000000 2112786.50000000 
0.07000    55436100.00000000 34819240.00000000 87866544.00000000 31181.40429688  2613502.25000000 2069948.87500000 
0.07100    54419008.00000000 34184248.00000000 86259776.00000000 30510.62890625  2561121.25000000 2028525.37500000 
0.07200    53437568.00000000 33572012.00000000 84709328.00000000 29860.23632812  2510424.75000000 1988434.12500000 
0.07300    52491396.00000000 32982156.00000000 83213184.00000000 29229.65234375  2461358.50000000 1949668.37500000 
0.07400    51578708.00000000 32413158.00000000 81772360.00000000 28618.40039062  2413838.25000000 1912137.12500000 
0.07500    50698672.00000000 31864916.00000000 80383032.00000000 28024.69140625  2367859.50000000 1875792.75000000 
0.07600    49850368.00000000 31336684.00000000 79043824.00000000 27448.04687500  2323301.50000000 1840596.37500000 
0.07700    49032008.00000000 30828046.00000000 77754304.00000000 26887.64257812  2280115.25000000 1806491.87500000 
0.07800    48242776.00000000 30338240.00000000 76509984.00000000 26342.25000000  2238249.00000000 1773423.87500000 
0.07900    47481864.00000000 29865980.00000000 75311632.00000000 25811.50000000  2197597.00000000 1741335.75000000 
0.08000    46748488.00000000 29411116.00000000 74156152.00000000 25294.18164062  2158103.75000000 1710195.50000000 
0.08100    46040448.00000000 28972936.00000000 73041832.00000000 24789.89648438  2119735.75000000 1679925.25000000 
0.08200    45357472.00000000 28550324.00000000 71967184.00000000 24297.55273438  2082431.25000000 1650496.62500000 
0.08300    44697820.00000000 28142814.00000000 70930640.00000000 23816.61523438  2046095.50000000 1621860.25000000 
0.08400    44060100.00000000 27749814.00000000 69929240.00000000 23346.83398438  2010724.62500000 1593950.37500000 
0.08500    43444268.00000000 27370148.00000000 68961448.00000000 22887.02343750  1976215.62500000 1566764.50000000 
0.08600    42848124.00000000 27003672.00000000 68026656.00000000 22436.58398438  1942534.00000000 1540220.00000000 
0.08700    42271148.00000000 26649164.00000000 67122120.00000000 21995.46289062  1909638.25000000 1514310.12500000 
0.08800    41712156.00000000 26306320.00000000 66246108.00000000 21562.88867188  1877478.75000000 1488971.25000000 
0.08900    41169392.00000000 25974104.00000000 65396884.00000000 21138.41796875  1845999.25000000 1464185.00000000 
0.09000    40643252.00000000 25652374.00000000 64573384.00000000 20721.81835938  1815159.87500000 1439903.25000000 
0.09100    40131356.00000000 25339786.00000000 63773504.00000000 20312.42773438  1784927.37500000 1416104.00000000 
0.09200    39633732.00000000 25036190.00000000 62995544.00000000 19910.62500000  1755279.00000000 1392746.25000000 
0.09300    39148760.00000000 24740862.00000000 62238540.00000000 19515.12890625  1726153.37500000 1369820.50000000 
0.09400    38676172.00000000 24453490.00000000 61500672.00000000 19126.50195312  1697521.87500000 1347289.75000000 
0.09500    38214448.00000000 24172888.00000000 60781204.00000000 18743.94726562  1669371.87500000 1325130.12500000 
0.09600    37763420.00000000 23898746.00000000 60077232.00000000 18367.66992188  1641671.25000000 1303310.75000000 
0.09700    37321904.00000000 23631232.00000000 59389216.00000000 17997.26171875  1614391.62500000 1281834.25000000 
0.09800    36888980.00000000 23368758.00000000 58714900.00000000 17632.84179688  1587514.00000000 1260654.37500000 
0.09900    36464336.00000000 23111700.00000000 58053800.00000000 17274.08593750  1561008.00000000 1239796.37500000 
0.10000    36047116.00000000 22859356.00000000 57404592.00000000 16920.76171875  1534875.25000000 1219200.00000000 
0.10100    35636828.00000000 22610958.00000000 56765956.00000000 16573.12109375  1509072.12500000 1198874.37500000 
0.10200    35232800.00000000 22366584.00000000 56137024.00000000 16230.90917969  1483609.25000000 1178812.37500000 
0.10300    34834096.00000000 22125692.00000000 55516892.00000000 15894.12304688  1458462.25000000 1158984.00000000 
0.10400    34441204.00000000 21887958.00000000 54904820.00000000 15562.66503906  1433637.37500000 1139389.87500000 
0.10500    34052892.00000000 21652822.00000000 54300736.00000000 15236.66210938  1409092.75000000 1120033.62500000 
0.10600    33668332.00000000 21420360.00000000 53702284.00000000 14915.92675781  1384839.62500000 1100890.75000000 
0.10700    33288130.00000000 21190200.00000000 53109872.00000000 14600.34472656  1360876.00000000 1081973.75000000 
0.10800    32911234.00000000 20961786.00000000 52522880.00000000 14290.24316406  1337184.62500000 1063268.25000000 
0.10900    32537368.00000000 20735198.00000000 51940208.00000000 13985.24511719  1313767.12500000 1044754.81250000 
0.11000    32166278.00000000 20510130.00000000 51361768.00000000 13685.51855469  1290609.00000000 1026453.25000000 
0.11100    31797900.00000000 20286162.00000000 50786908.00000000 13391.09277344  1267713.37500000 1008351.25000000 
0.11200    31431460.00000000 20063766.00000000 50215428.00000000 13101.70117188  1245078.12500000 990445.68750000 
0.11300    31067222.00000000 19841732.00000000 49646512.00000000 12817.60839844  1222710.00000000 972731.50000000 
0.11400    30704866.00000000 19621014.00000000 49080476.00000000 12538.60449219  1200590.00000000 955217.81250000 
0.11500    30344086.00000000 19400954.00000000 48516204.00000000 12264.64941406  1178717.50000000 937898.37500000 
0.11600    29984912.00000000 19181162.00000000 47953960.00000000 11995.90820312  1157121.00000000 920766.37500000 
0.11700    29626932.00000000 18962134.00000000 47393720.00000000 11732.06835938  1135757.75000000 903831.68750000 
0.11800    29269994.00000000 18743440.00000000 46834796.00000000 11473.16308594  1114650.87500000 887088.68750000 
0.11900    28914252.00000000 18524962.00000000 46276948.00000000 11219.26171875  1093783.12500000 870529.75000000 
0.12000    28559806.00000000 18306986.00000000 45720296.00000000 10970.05273438  1073177.62500000 854162.31250000 
0.12100    28206138.00000000 18088960.00000000 45165284.00000000 10725.90527344  1052819.12500000 837994.50000000 
0.12200    27853482.00000000 17871348.00000000 44611144.00000000 10486.09472656  1032716.25000000 822014.31250000 
0.12300    27502006.00000000 17654118.00000000 44057900.00000000 10251.19628906  1012851.00000000 806222.93750000 
0.12400    27151052.00000000 17437066.00000000 43505688.00000000 10020.59179688  993236.37500000 790618.62500000 
0.12500    26800994.00000000 17220172.00000000 42954676.00000000 9794.56542969   973858.37500000 775201.68750000 
0.12600    26451882.00000000 17003416.00000000 42404040.00000000 9572.80175781   954732.93750000 759985.62500000 
0.12700    26103878.00000000 16786678.00000000 41854768.00000000 9355.32519531   935853.00000000 744948.31250000 
0.12800    25756714.00000000 16570580.00000000 41307168.00000000 9142.02050781   917207.56250000 730104.31250000 
0.12900    25410476.00000000 16354831.00000000 40759512.00000000 8932.65332031   898807.31250000 715446.18750000 
0.13000    25065124.00000000 16139093.00000000 40213708.00000000 8727.39843750   880646.31250000 700984.56250000 
0.13100    24720870.00000000 15923900.00000000 39669496.00000000 8525.82812500   862717.87500000 686691.56250000 
0.13200    24377918.00000000 15709089.00000000 39126276.00000000 8328.11035156   845028.81250000 672595.00000000 
0.13300    24036296.00000000 15494738.00000000 38584900.00000000 8133.98242188   827576.37500000 658687.31250000 
0.13400    23695734.00000000 15280841.00000000 38045024.00000000 7943.42285156   810356.06250000 644956.43750000 
0.13500    23356616.00000000 15067698.00000000 37506840.00000000 7756.35644531   793367.87500000 631405.75000000 
0.13600    23018892.00000000 14854999.00000000 36971252.00000000 7572.66943359   776607.00000000 618042.62500000 
0.13700    22682702.00000000 14643063.00000000 36437096.00000000 7392.20117188   760080.43750000 604858.56250000 
0.13800    22347842.00000000 14431924.00000000 35905460.00000000 7215.01074219   743776.37500000 591849.43750000 
0.13900    22014968.00000000 14221676.00000000 35376168.00000000 7040.94531250   727691.81250000 579025.12500000 
0.14000    21683840.00000000 14012261.00000000 34849368.00000000 6869.96679688   711835.81250000 566377.00000000 
0.14100    21354582.00000000 13803921.00000000 34325644.00000000 6702.05419922   696206.75000000 553905.31250000 
0.14200    21027024.00000000 13596516.00000000 33804136.00000000 6536.94140625   680785.25000000 541612.50000000 
0.14300    20701742.00000000 13390300.00000000 33286156.00000000 6374.88623047   665597.56250000 529492.87500000 
0.14400    20378618.00000000 13185213.00000000 32771344.00000000 6215.61718750   650623.12500000 517548.96875000 
0.14500    20057674.00000000 12981424.00000000 32259640.00000000 6059.13183594   635865.25000000 505778.21875000 
0.14600    19739020.00000000 12778994.00000000 31751904.00000000 5905.54687500   621324.62500000 494185.62500000 
0.14700    19422882.00000000 12577889.00000000 31247578.00000000 5754.72265625   606994.37500000 482760.81250000 
0.14800    19109196.00000000 12378254.00000000 30747020.00000000 5606.60546875   592888.75000000 471511.21875000 
0.14900    18798062.00000000 12180174.00000000 30250544.00000000 5461.16406250   578997.43750000 460429.90625000 
0.15000    18489758.00000000 11983719.00000000 29758308.00000000 5318.55322266   565307.00000000 449523.25000000 
0.15100    18183970.00000000 11788979.00000000 29270390.00000000 5178.58984375   551844.68750000 438787.18750000 
0.15200    17881432.00000000 11595902.00000000 28787024.00000000 5041.38378906   538590.25000000 428224.53125000 
0.15300    17581742.00000000 11404607.00000000 28308194.00000000 4906.93212891   525562.25000000 417831.00000000 
0.15400    17285024.00000000 11215060.00000000 27833934.00000000 4775.16064453   512731.78125000 407609.56250000 
0.15500    16991280.00000000 11027485.00000000 27364588.00000000 4646.12744141   500128.65625000 397559.96875000 
0.15600    16700964.00000000 10841892.00000000 26900104.00000000 4519.86279297   487729.21875000 387677.12500000 
0.15700    16413702.00000000 10658204.00000000 26440976.00000000 4396.37890625   475554.21875000 377973.71875000 
0.15800    16129823.00000000 10476666.00000000 25986820.00000000 4275.60546875   463586.90625000 368432.46875000 
0.15900    15849373.00000000 10297149.00000000 25538108.00000000 4157.65771484   451834.34375000 359068.31250000 
0.16000    15572206.00000000 10119740.00000000 25094970.00000000 4042.43579102   440296.50000000 349873.71875000 
0.16100    15298804.00000000 9944549.00000000 24657214.00000000 3930.08471680   428977.25000000 340850.37500000 
0.16200    15028734.00000000 9771541.00000000 24224906.00000000 3820.54589844   417873.90625000 332000.75000000 
0.16300    14762277.00000000 9600738.00000000 23798384.00000000 3713.77416992   406981.68750000 323313.09375000 
0.16400    14499540.00000000 9432187.00000000 23377618.00000000 3609.85937500   396306.00000000 314804.06250000 
0.16500    14240344.00000000 9266005.00000000 22962504.00000000 3508.74121094   385845.03125000 306460.00000000 
0.16600    13984999.00000000 9102113.00000000 22553312.00000000 3410.42651367   375597.03125000 298288.21875000 
0.16700    13733161.00000000 8940478.00000000 22149938.00000000 3314.90600586   365561.93750000 290284.40625000 
0.16800    13485200.00000000 8781256.00000000 21752556.00000000 3222.19604492   355739.03125000 282447.56250000 
0.16900    13241042.00000000 8624343.00000000 21361274.00000000 3132.27685547   346128.59375000 274778.18750000 
0.17000    13000503.00000000 8469755.00000000 20975902.00000000 3045.09472656   336727.56250000 267275.90625000 
