# SAXS profile: number of points = 501, q_min = 0, q_max = 0.5, delta_q = 0.001
#    q    intensity 
0.00000    162237568.00000000 101201808.00000000 256270800.00000000 105966.36718750 8292621.00000000 6549484.50000000 
0.00100    162207552.00000000 101183688.00000000 256224160.00000000 105940.54687500 8290812.00000000 6548070.50000000 
0.00200    162119264.00000000 101128104.00000000 256083152.00000000 105862.77343750 8285430.00000000 6543855.50000000 
0.00300    161969744.00000000 101035984.00000000 255847600.00000000 105733.32031250 8276426.50000000 6536806.50000000 
0.00400    161759872.00000000 100907432.00000000 255518480.00000000 105552.01562500 8263900.00000000 6526964.00000000 
0.00500    161490896.00000000 100741496.00000000 255096496.00000000 105319.99218750 8247833.50000000 6514356.50000000 
0.00600    161161536.00000000 100539880.00000000 254581328.00000000 105036.45312500 8228168.50000000 6498947.50000000 
0.00700    160772896.00000000 100301256.00000000 253972640.00000000 104702.79687500 8205033.50000000 6480788.00000000 
0.00800    160326352.00000000 100027456.00000000 253274624.00000000 104319.17968750 8178412.50000000 6459936.00000000 
0.00900    159820640.00000000 99718136.00000000 252483888.00000000 103885.68750000 8148336.00000000 6436320.50000000 
0.01000    159256064.00000000 99374024.00000000 251604144.00000000 103403.78125000 8114897.00000000 6410048.00000000 
0.01100    158638048.00000000 98995344.00000000 250635552.00000000 102874.22656250 8078038.50000000 6381159.00000000 
0.01200    157963472.00000000 98581944.00000000 249579584.00000000 102296.58593750 8037930.00000000 6349701.50000000 
0.01300    157235024.00000000 98134336.00000000 248436096.00000000 101672.88281250 7994522.00000000 6315677.50000000 
0.01400    156451792.00000000 97652952.00000000 247208480.00000000 101003.44531250 7947949.50000000 6279079.00000000 
0.01500    155614384.00000000 97140000.00000000 245896880.00000000 100289.54687500 7898220.00000000 6240092.50000000 
0.01600    154723872.00000000 96594456.00000000 244502928.00000000 99531.84375000  7845402.50000000 6198662.00000000 
0.01700    153782688.00000000 96016544.00000000 243028496.00000000 98731.71093750  7789614.50000000 6154857.50000000 
0.01800    152791040.00000000 95408776.00000000 241474592.00000000 97890.53125000  7730890.00000000 6108788.00000000 
0.01900    151750976.00000000 94770248.00000000 239845008.00000000 97009.32812500  7669279.50000000 6060432.50000000 
0.02000    150663472.00000000 94102424.00000000 238140992.00000000 96088.46875000  7604891.50000000 6009941.50000000 
0.02100    149528064.00000000 93406008.00000000 236361440.00000000 95130.54687500  7537838.50000000 5957285.50000000 
0.02200    148346752.00000000 92681304.00000000 234512080.00000000 94136.33593750  7468147.50000000 5902606.00000000 
0.02300    147121344.00000000 91929472.00000000 232592736.00000000 93107.53906250  7395952.00000000 5845963.50000000 
0.02400    145854448.00000000 91151712.00000000 230606432.00000000 92044.46875000  7321346.00000000 5787350.50000000 
0.02500    144546224.00000000 90348216.00000000 228555088.00000000 90950.53125000  7244382.50000000 5726950.00000000 
0.02600    143197600.00000000 89520424.00000000 226442192.00000000 89825.64062500  7165160.00000000 5664755.00000000 
0.02700    141811328.00000000 88668696.00000000 224268864.00000000 88672.01562500  7083806.50000000 5600910.00000000 
0.02800    140387104.00000000 87794168.00000000 222036832.00000000 87490.92968750  7000426.50000000 5535415.50000000 
0.02900    138928544.00000000 86898256.00000000 219749888.00000000 86284.11718750  6915100.00000000 5468383.50000000 
0.03000    137436048.00000000 85980656.00000000 217409872.00000000 85052.78906250  6827943.00000000 5399933.00000000 
0.03100    135911232.00000000 85043944.00000000 215020368.00000000 83799.66406250  6739029.50000000 5330108.50000000 
0.03200    134356928.00000000 84088440.00000000 212581872.00000000 82524.67968750  6648479.50000000 5259007.50000000 
0.03300    132773536.00000000 83114856.00000000 210098496.00000000 81231.52343750  6556437.00000000 5186675.50000000 
0.03400    131162840.00000000 82124312.00000000 207573040.00000000 79919.53906250  6462980.50000000 5113243.50000000 
0.03500    129526640.00000000 81117776.00000000 205006112.00000000 78592.01562500  6368191.50000000 5038787.50000000 
0.03600    127867552.00000000 80097176.00000000 202403776.00000000 77250.76562500  6272203.00000000 4963348.00000000 
0.03700    126186056.00000000 79062368.00000000 199764688.00000000 75896.51562500  6175175.00000000 4887105.00000000 
0.03800    124484136.00000000 78015064.00000000 197094208.00000000 74530.86718750  6077121.50000000 4810020.50000000 
0.03900    122763616.00000000 76956200.00000000 194394864.00000000 73156.26562500  5978249.00000000 4732254.50000000 
0.04000    121026696.00000000 75886216.00000000 191668000.00000000 71773.85937500  5878523.00000000 4653918.00000000 
0.04100    119273856.00000000 74806680.00000000 188915936.00000000 70385.65625000  5778242.50000000 4575026.50000000 
0.04200    117508312.00000000 73718944.00000000 186144272.00000000 68992.84375000  5677344.00000000 4495693.00000000 
0.04300    115731048.00000000 72623192.00000000 183353776.00000000 67597.67187500  5576029.00000000 4416015.00000000 
0.04400    113944128.00000000 71521976.00000000 180547472.00000000 66200.14062500  5474397.50000000 4336074.00000000 
0.04500    112147624.00000000 70414616.00000000 177727760.00000000 64803.48828125  5372521.50000000 4255942.00000000 
0.04600    110345640.00000000 69303344.00000000 174896400.00000000 63408.25781250  5270525.00000000 4175676.50000000 
0.04700    108538296.00000000 68188536.00000000 172056256.00000000 62016.35156250  5168490.00000000 4095366.50000000 
0.04800    106727016.00000000 67070592.00000000 169210256.00000000 60629.09375000  5066537.00000000 4015124.75000000 
0.04900    104914632.00000000 65951012.00000000 166361600.00000000 59247.65234375  4964707.00000000 3934984.75000000 
0.05000    103101680.00000000 64831504.00000000 163512576.00000000 57873.78125000  4863201.00000000 3855049.50000000 
0.05100    101290528.00000000 63712384.00000000 160664944.00000000 56508.32421875  4762026.50000000 3775370.00000000 
0.05200    99481120.00000000 62594468.00000000 157820672.00000000 55152.98828125  4661303.00000000 3696043.25000000 
0.05300    97676640.00000000 61479132.00000000 154983584.00000000 53809.21875000  4561087.00000000 3617118.00000000 
0.05400    95878872.00000000 60366712.00000000 152154368.00000000 52477.78125000  4461531.00000000 3538657.50000000 
0.05500    94087384.00000000 59258696.00000000 149336064.00000000 51159.64062500  4362681.50000000 3460755.25000000 
0.05600    92304256.00000000 58155228.00000000 146530464.00000000 49856.48437500  4264607.50000000 3383429.50000000 
0.05700    90531656.00000000 57057804.00000000 143741184.00000000 48568.50000000  4167378.75000000 3306790.75000000 
0.05800    88770672.00000000 55966796.00000000 140968336.00000000 47297.85937500  4071085.50000000 3230891.25000000 
0.05900    87021560.00000000 54883272.00000000 138214944.00000000 46044.71484375  3975824.25000000 3155744.75000000 
0.06000    85286136.00000000 53807792.00000000 135482480.00000000 44810.10937500  3881613.25000000 3081418.25000000 
0.06100    83565976.00000000 52741020.00000000 132773872.00000000 43594.86328125  3788561.00000000 3008005.00000000 
0.06200    81861712.00000000 51683708.00000000 130088920.00000000 42399.94531250  3696695.75000000 2935501.00000000 
0.06300    80175112.00000000 50636928.00000000 127430744.00000000 41225.87890625  3606116.75000000 2864003.25000000 
0.06400    78506216.00000000 49600708.00000000 124800264.00000000 40073.14453125  3516831.00000000 2793514.75000000 
0.06500    76856784.00000000 48575792.00000000 122199936.00000000 38943.10546875  3428931.25000000 2724085.25000000 
0.06600    75227536.00000000 47563380.00000000 119630984.00000000 37835.64062500  3342430.00000000 2655753.25000000 
0.06700    73618824.00000000 46563240.00000000 117093968.00000000 36751.33984375  3257411.75000000 2588581.00000000 
0.06800    72032496.00000000 45576564.00000000 114591472.00000000 35690.66796875  3173866.50000000 2522567.50000000 
0.06900    70469264.00000000 44603216.00000000 112123984.00000000 34654.25781250  3091887.25000000 2457765.00000000 
0.07000    68928840.00000000 43644308.00000000 109693016.00000000 33642.48828125  3011479.25000000 2394160.00000000 
0.07100    67412200.00000000 42699812.00000000 107299400.00000000 32655.37695312  2932680.50000000 2331837.00000000 
0.07200    65920936.00000000 41770112.00000000 104944376.00000000 31693.14648438  2855491.00000000 2270773.00000000 
0.07300    64454964.00000000 40855828.00000000 102629264.00000000 30756.28125000  2779994.50000000 2211019.00000000 
0.07400    63015360.00000000 39957368.00000000 100354128.00000000 29844.72070312  2706165.75000000 2152557.50000000 
0.07500    61601920.00000000 39075020.00000000 98119968.00000000 28958.41992188  2634014.25000000 2095452.00000000 
0.07600    60214836.00000000 38208768.00000000 95928024.00000000 28097.65234375  2563599.75000000 2039652.12500000 
0.07700    58855784.00000000 37359128.00000000 93778520.00000000 27262.24609375  2494889.25000000 1985224.25000000 
0.07800    57523824.00000000 36526240.00000000 91672152.00000000 26452.18750000  2427921.75000000 1932139.00000000 
0.07900    56219916.00000000 35710412.00000000 89609000.00000000 25667.32226562  2362687.25000000 1880421.62500000 
0.08000    54944196.00000000 34911532.00000000 87589888.00000000 24907.63085938  2299203.75000000 1830042.50000000 
0.08100    53697088.00000000 34130100.00000000 85615056.00000000 24172.89843750  2237442.25000000 1781050.50000000 
0.08200    52478100.00000000 33365882.00000000 83684552.00000000 23462.63085938  2177409.75000000 1733408.00000000 
0.08300    51287796.00000000 32619312.00000000 81799304.00000000 22776.78515625  2119088.25000000 1687110.12500000 
0.08400    50126100.00000000 31890294.00000000 79958080.00000000 22115.15234375  2062508.25000000 1642170.50000000 
0.08500    48993048.00000000 31178738.00000000 78162304.00000000 21477.15234375  2007603.00000000 1598558.25000000 
0.08600    47888820.00000000 30484632.00000000 76411056.00000000 20862.48437500  1954414.37500000 1556282.87500000 
0.08700    46812904.00000000 29808184.00000000 74705152.00000000 20270.75195312  1902886.50000000 1515310.00000000 
0.08800    45765764.00000000 29149118.00000000 73043416.00000000 19701.61132812  1853009.87500000 1475641.50000000 
0.08900    44746820.00000000 28507586.00000000 71425536.00000000 19154.36914062  1804758.87500000 1437255.00000000 
0.09000    43755692.00000000 27883240.00000000 69852544.00000000 18628.87304688  1758126.00000000 1400133.25000000 
0.09100    42792948.00000000 27276114.00000000 68323160.00000000 18124.17773438  1713073.12500000 1364249.00000000 
0.09200    41857516.00000000 26685944.00000000 66837112.00000000 17640.08007812  1669554.50000000 1329588.00000000 
0.09300    40949484.00000000 26112746.00000000 65394188.00000000 17175.80468750  1627584.37500000 1296147.75000000 
0.09400    40068464.00000000 25556168.00000000 63993088.00000000 16730.93359375  1587097.25000000 1263865.75000000 
0.09500    39213888.00000000 25015904.00000000 62634336.00000000 16304.94726562  1548074.12500000 1232735.12500000 
0.09600    38386188.00000000 24492148.00000000 61316872.00000000 15896.93554688  1510471.00000000 1202740.62500000 
0.09700    37583624.00000000 23984294.00000000 60040396.00000000 15506.61425781  1474254.00000000 1173843.75000000 
0.09800    36807224.00000000 23492172.00000000 58803252.00000000 15133.18750000  1439400.00000000 1146006.50000000 
0.09900    36054952.00000000 23015642.00000000 57606160.00000000 14775.98046875  1405873.00000000 1119226.50000000 
0.10000    35327336.00000000 22554148.00000000 56447460.00000000 14434.53222656  1373618.37500000 1093445.87500000 
0.10100    34624172.00000000 22107720.00000000 55325960.00000000 14107.90332031  1342594.12500000 1068658.00000000 
0.10200    33944256.00000000 21675868.00000000 54242128.00000000 13795.85839844  1312784.50000000 1044816.75000000 
0.10300    33286680.00000000 21258126.00000000 53193948.00000000 13497.43164062  1284119.50000000 1021884.56250000 
0.10400    32651770.00000000 20854444.00000000 52181280.00000000 13212.06933594  1256588.87500000 999853.31250000 
0.10500    32038710.00000000 20464274.00000000 51203136.00000000 12939.28613281  1230136.00000000 978684.50000000 
0.10600    31446514.00000000 20087276.00000000 50257872.00000000 12678.05468750  1204710.00000000 958326.43750000 
0.10700    30875074.00000000 19723320.00000000 49345560.00000000 12428.17773438  1180290.87500000 938759.18750000 
0.10800    30323252.00000000 19371700.00000000 48464720.00000000 12188.87109375  1156815.37500000 919961.50000000 
0.10900    29791108.00000000 19032322.00000000 47614536.00000000 11959.55957031  1134260.87500000 901887.25000000 
0.11000    29277452.00000000 18704762.00000000 46793772.00000000 11739.47265625  1112568.12500000 884499.43750000 
0.11100    28781822.00000000 18388470.00000000 46001980.00000000 11528.19433594  1091714.50000000 867784.31250000 
0.11200    28303670.00000000 18083150.00000000 45237668.00000000 11325.16210938  1071640.50000000 851690.12500000 
0.11300    27842224.00000000 17788434.00000000 44499856.00000000 11129.69628906  1052320.62500000 836195.25000000 
0.11400    27397008.00000000 17503910.00000000 43788028.00000000 10941.33984375  1033710.43750000 821275.93750000 
0.11500    26967234.00000000 17229370.00000000 43100464.00000000 10759.63671875  1015774.75000000 806886.87500000 
0.11600    26552002.00000000 16964104.00000000 42437092.00000000 10583.93066406  998467.00000000 793011.68750000 
0.11700    26151340.00000000 16708073.00000000 41795996.00000000 10413.69921875  981757.00000000 779609.18750000 
0.11800    25764114.00000000 16460498.00000000 41176980.00000000 10248.56738281  965595.00000000 766657.56250000 
0.11900    25390032.00000000 16221344.00000000 40578364.00000000 10088.08007812  949963.31250000 754118.43750000 
0.12000    25027880.00000000 15990031.00000000 39999464.00000000 9931.76171875   934808.06250000 741971.43750000 
0.12100    24677748.00000000 15766389.00000000 39439668.00000000 9779.19628906   920113.75000000 730195.50000000 
0.12200    24338642.00000000 15549748.00000000 38897768.00000000 9630.04003906   905832.62500000 718764.18750000 
0.12300    24010282.00000000 15339892.00000000 38372464.00000000 9483.88085938   891941.25000000 707636.00000000 
0.12400    23691546.00000000 15136603.00000000 37863448.00000000 9340.37597656   878407.56250000 696803.18750000 
0.12500    23382414.00000000 14939376.00000000 37369360.00000000 9199.11914062   865193.50000000 686230.00000000 
0.12600    23082110.00000000 14747882.00000000 36889584.00000000 9059.96972656   852288.31250000 675911.25000000 
0.12700    22790054.00000000 14561848.00000000 36423368.00000000 8922.42675781   839646.68750000 665812.12500000 
0.12800    22505732.00000000 14380755.00000000 35969520.00000000 8786.33007812   827253.18750000 655904.81250000 
0.12900    22228818.00000000 14204543.00000000 35527772.00000000 8651.44824219   815079.37500000 646190.81250000 
0.13000    21958448.00000000 14032687.00000000 35096500.00000000 8517.55468750   803105.81250000 636638.18750000 
0.13100    21694412.00000000 13865103.00000000 34675692.00000000 8384.41699219   791300.43750000 627224.75000000 
0.13200    21436152.00000000 13701298.00000000 34264400.00000000 8251.86328125   779649.75000000 617946.81250000 
0.13300    21183248.00000000 13541044.00000000 33861736.00000000 8119.69824219   768143.25000000 608779.56250000 
0.13400    20935424.00000000 13384147.00000000 33467258.00000000 7987.84912109   756742.00000000 599709.00000000 
0.13500    20691940.00000000 13230261.00000000 33080142.00000000 7856.04443359   745452.00000000 590726.93750000 
0.13600    20452584.00000000 13079117.00000000 32699658.00000000 7724.32861328   734237.25000000 581815.87500000 
0.13700    20217092.00000000 12930575.00000000 32325784.00000000 7592.57958984   723099.31250000 572964.81250000 
0.13800    19985012.00000000 12784352.00000000 31956904.00000000 7460.65039062   712012.06250000 564166.31250000 
0.13900    19755914.00000000 12640214.00000000 31593586.00000000 7328.56933594   700969.31250000 555405.18750000 
0.14000    19529404.00000000 12497971.00000000 31234638.00000000 7196.28662109   689963.62500000 546681.43750000 
0.14100    19305406.00000000 12357452.00000000 30879664.00000000 7063.77636719   678986.37500000 537981.18750000 
0.14200    19083566.00000000 12218378.00000000 30528436.00000000 6931.01904297   668019.18750000 529297.06250000 
0.14300    18863508.00000000 12080669.00000000 30180288.00000000 6797.92431641   657067.37500000 520624.68750000 
0.14400    18645228.00000000 11944050.00000000 29834868.00000000 6664.67724609   646119.31250000 511956.87500000 
0.14500    18428254.00000000 11808561.00000000 29491850.00000000 6531.22070312   635171.75000000 503293.59375000 
0.14600    18212472.00000000 11673886.00000000 29150814.00000000 6397.62988281   624216.43750000 494631.59375000 
0.14700    17997706.00000000 11539972.00000000 28811754.00000000 6263.94775391   613256.81250000 485964.28125000 
0.14800    17783612.00000000 11406689.00000000 28473786.00000000 6130.21435547   602285.75000000 477292.03125000 
0.14900    17570236.00000000 11273819.00000000 28137084.00000000 5996.51171875   591305.12500000 468611.50000000 
0.15000    17357302.00000000 11141406.00000000 27801304.00000000 5862.91894531   580311.43750000 459924.40625000 
0.15100    17144876.00000000 11009346.00000000 27466350.00000000 5729.58105469   569312.31250000 451231.65625000 
0.15200    16932708.00000000 10877576.00000000 27131766.00000000 5596.52099609   558300.06250000 442535.59375000 
0.15300    16720686.00000000 10745950.00000000 26797552.00000000 5463.88623047   547289.50000000 433834.87500000 
0.15400    16508678.00000000 10614357.00000000 26463568.00000000 5331.74218750   536267.81250000 425127.31250000 
0.15500    16296651.00000000 10482837.00000000 26129728.00000000 5200.19677734   525249.81250000 416422.65625000 
0.15600    16084640.00000000 10351371.00000000 25795704.00000000 5069.37548828   514235.21875000 407719.87500000 
0.15700    15872609.00000000 10219913.00000000 25461752.00000000 4939.42285156   503235.03125000 399026.62500000 
0.15800    15660501.00000000 10088314.00000000 25127514.00000000 4810.43994141   492240.28125000 390343.59375000 
0.15900    15448222.00000000 9956711.00000000 24793296.00000000 4682.53759766   481275.09375000 381671.78125000 
0.16000    15235708.00000000 9825047.00000000 24458656.00000000 4555.84130859   470330.93750000 373019.18750000 
0.16100    15023303.00000000 9693208.00000000 24124080.00000000 4430.46093750   459419.43750000 364394.00000000 
0.16200    14810722.00000000 9561413.00000000 23789192.00000000 4306.52490234   448547.34375000 355796.12500000 
0.16300    14598114.00000000 9429430.00000000 23454140.00000000 4184.06396484   437723.84375000 347232.37500000 
0.16400    14385508.00000000 9297500.00000000 23118956.00000000 4063.36206055   426952.75000000 338708.25000000 
0.16500    14172816.00000000 9165462.00000000 22783972.00000000 3944.38208008   416241.15625000 330229.34375000 
0.16600    13960318.00000000 9033421.00000000 22448816.00000000 3827.33959961   405601.56250000 321803.03125000 
0.16700    13747923.00000000 8901376.00000000 22113962.00000000 3712.21923828   395030.75000000 313431.25000000 
0.16800    13535602.00000000 8769389.00000000 21779066.00000000 3599.20239258   384544.34375000 305121.90625000 
0.16900    13323780.00000000 8637527.00000000 21444870.00000000 3488.39111328   374154.09375000 296884.93750000 
0.17000    13112291.00000000 8505762.00000000 21110864.00000000 3379.82983398   363858.28125000 288716.65625000 
