# SAXS profile: number of points = 501, q_min = 0, q_max = 0.5, delta_q = 0.001
#    q    intensity 
0.00000    162232496.00000000 101202328.00000000 256270448.00000000 103890.15625000 8210946.50000000 6485001.00000000 
0.00100    162197760.00000000 101178992.00000000 256210304.00000000 103856.60937500 8208659.00000000 6483183.00000000 
0.00200    162088624.00000000 101108808.00000000 256031536.00000000 103756.63281250 8201782.50000000 6477775.00000000 
0.00300    161902000.00000000 100991864.00000000 255733744.00000000 103589.98437500 8190244.00000000 6468749.00000000 
0.00400    161634272.00000000 100828160.00000000 255317008.00000000 103358.01562500 8174163.00000000 6456134.50000000 
0.00500    161291216.00000000 100618520.00000000 254780768.00000000 103059.70312500 8153490.50000000 6439925.50000000 
0.00600    160873776.00000000 100362088.00000000 254128800.00000000 102696.85156250 8128427.00000000 6420196.00000000 
0.00700    160380208.00000000 100061328.00000000 253363008.00000000 102270.28125000 8098836.50000000 6397004.50000000 
0.00800    159813968.00000000 99716408.00000000 252479104.00000000 101781.07812500 8064913.00000000 6370381.00000000 
0.00900    159178544.00000000 99326808.00000000 251482512.00000000 101228.85156250 8026601.00000000 6340332.00000000 
0.01000    158475440.00000000 98893864.00000000 250376832.00000000 100616.10156250 7984110.00000000 6306969.00000000 
0.01100    157700352.00000000 98417624.00000000 249160496.00000000 99945.14062500  7937456.00000000 6270346.50000000 
0.01200    156855424.00000000 97899832.00000000 247836640.00000000 99216.09375000  7886752.00000000 6230514.50000000 
0.01300    155942176.00000000 97338984.00000000 246408000.00000000 98430.47656250  7832056.50000000 6187635.50000000 
0.01400    154965312.00000000 96739312.00000000 244878608.00000000 97590.87500000  7773508.50000000 6141663.50000000 
0.01500    153924208.00000000 96100448.00000000 243248032.00000000 96698.37500000  7711311.50000000 6092829.50000000 
0.01600    152822352.00000000 95424016.00000000 241518528.00000000 95755.82812500  7645371.50000000 6041100.00000000 
0.01700    151659456.00000000 94710008.00000000 239697152.00000000 94764.80468750  7576071.50000000 5986662.00000000 
0.01800    150437888.00000000 93960568.00000000 237783216.00000000 93727.11718750  7503359.50000000 5929562.50000000 
0.01900    149162656.00000000 93176096.00000000 235783488.00000000 92645.07031250  7427502.00000000 5869948.00000000 
0.02000    147831920.00000000 92359024.00000000 233697600.00000000 91521.27343750  7348521.00000000 5807898.50000000 
0.02100    146450576.00000000 91509544.00000000 231530880.00000000 90358.16406250  7266659.00000000 5743667.00000000 
0.02200    145017328.00000000 90629600.00000000 229284656.00000000 89157.57812500  7182048.50000000 5677158.00000000 
0.02300    143539232.00000000 89720432.00000000 226965200.00000000 87923.32031250  7094777.50000000 5608608.50000000 
0.02400    142016112.00000000 88783232.00000000 224575040.00000000 86656.22656250  7005126.50000000 5538195.00000000 
0.02500    140450144.00000000 87819800.00000000 222118592.00000000 85359.37500000  6913209.00000000 5465867.50000000 
0.02600    138845424.00000000 86831728.00000000 219600960.00000000 84035.29687500  6819132.00000000 5391951.00000000 
0.02700    137201264.00000000 85820160.00000000 217021872.00000000 82687.82812500  6723077.50000000 5316486.50000000 
0.02800    135522944.00000000 84786544.00000000 214387728.00000000 81317.07031250  6625273.50000000 5239599.50000000 
0.02900    133813184.00000000 83732664.00000000 211703776.00000000 79927.60937500  6525847.00000000 5161411.00000000 
0.03000    132073232.00000000 82660520.00000000 208972112.00000000 78521.28906250  6424961.50000000 5082065.50000000 
0.03100    130305968.00000000 81571608.00000000 206196848.00000000 77100.32812500  6322788.50000000 5001700.50000000 
0.03200    128514040.00000000 80466296.00000000 203382288.00000000 75667.89843750  6219484.00000000 4920434.50000000 
0.03300    126700064.00000000 79347288.00000000 200530896.00000000 74226.64062500  6115242.00000000 4838460.00000000 
0.03400    124866472.00000000 78216296.00000000 197652944.00000000 72778.35937500  6010229.00000000 4755796.00000000 
0.03500    123015320.00000000 77074440.00000000 194742288.00000000 71324.67968750  5904563.00000000 4672668.50000000 
0.03600    121150504.00000000 75923112.00000000 191810896.00000000 69869.60156250  5798445.00000000 4589152.50000000 
0.03700    119273248.00000000 74762840.00000000 188859312.00000000 68414.78125000  5691960.50000000 4505342.50000000 
0.03800    117385296.00000000 73596304.00000000 185892880.00000000 66961.81250000  5585356.50000000 4421350.50000000 
0.03900    115491968.00000000 72425120.00000000 182914016.00000000 65513.63281250  5478712.00000000 4337356.00000000 
0.04000    113592176.00000000 71249848.00000000 179925408.00000000 64071.64843750  5372205.00000000 4253475.50000000 
0.04100    111690832.00000000 70072952.00000000 176934704.00000000 62638.50000000  5265949.00000000 4169732.25000000 
0.04200    109788184.00000000 68896056.00000000 173940080.00000000 61215.19921875  5160067.00000000 4086329.25000000 
0.04300    107888032.00000000 67718744.00000000 170948128.00000000 59804.65625000  5054719.50000000 4003276.25000000 
0.04400    105992712.00000000 66543604.00000000 167962224.00000000 58407.66015625  4950073.00000000 3920753.75000000 
0.04500    104102464.00000000 65371800.00000000 164986800.00000000 57026.10156250  4846157.00000000 3838844.75000000 
0.04600    102220536.00000000 64203888.00000000 162021712.00000000 55661.94921875  4743111.00000000 3757584.25000000 
0.04700    100348008.00000000 63042440.00000000 159071824.00000000 54315.64062500  4641060.50000000 3677086.25000000 
0.04800    98486920.00000000 61887172.00000000 156139776.00000000 52989.44140625  4540139.50000000 3597445.50000000 
0.04900    96639792.00000000 60740236.00000000 153227856.00000000 51684.16015625  4440365.50000000 3518727.75000000 
0.05000    94807568.00000000 59601824.00000000 150340224.00000000 50400.87500000  4341889.00000000 3440966.75000000 
0.05100    92992568.00000000 58473436.00000000 147476960.00000000 49140.12890625  4244770.00000000 3364293.00000000 
0.05200    91195888.00000000 57355624.00000000 144643200.00000000 47903.85546875  4149084.00000000 3288736.00000000 
0.05300    89418856.00000000 56249604.00000000 141840016.00000000 46692.10156250  4054885.50000000 3214340.25000000 
0.05400    87662984.00000000 55156420.00000000 139068608.00000000 45505.83593750  3962275.75000000 3141179.75000000 
0.05500    85929296.00000000 54076516.00000000 136331216.00000000 44345.45312500  3871302.25000000 3069284.25000000 
0.05600    84219064.00000000 53010516.00000000 133632080.00000000 43211.88281250  3781979.75000000 2998700.00000000 
0.05700    82533120.00000000 51959864.00000000 130970224.00000000 42105.03125000  3694410.25000000 2929472.75000000 
0.05800    80873232.00000000 50924488.00000000 128347400.00000000 41025.57812500  3608605.00000000 2861603.25000000 
0.05900    79240400.00000000 49904816.00000000 125766992.00000000 39973.35156250  3524595.50000000 2795168.50000000 
0.06000    77634456.00000000 48902124.00000000 123228504.00000000 38948.36328125  3442380.25000000 2730152.50000000 
0.06100    76055920.00000000 47916568.00000000 120733144.00000000 37951.48046875  3362030.75000000 2666561.25000000 
0.06200    74506448.00000000 46948168.00000000 118283984.00000000 36981.91796875  3283551.25000000 2604464.25000000 
0.06300    72986336.00000000 45997572.00000000 115880200.00000000 36040.18359375  3206942.50000000 2543814.50000000 
0.06400    71495992.00000000 45065084.00000000 113521872.00000000 35125.13671875  3132217.00000000 2484661.00000000 
0.06500    70035360.00000000 44151276.00000000 111210760.00000000 34237.25000000  3059353.25000000 2426956.25000000 
0.06600    68605384.00000000 43255988.00000000 108948184.00000000 33376.30078125  2988384.50000000 2370737.25000000 
0.06700    67206520.00000000 42379728.00000000 106733664.00000000 32541.46484375  2919258.00000000 2315995.50000000 
0.06800    65838060.00000000 41522152.00000000 104567504.00000000 31732.67773438  2852012.75000000 2262720.25000000 
0.06900    64500676.00000000 40683968.00000000 102449704.00000000 30949.06640625  2786575.75000000 2210867.00000000 
0.07000    63194340.00000000 39865072.00000000 100380240.00000000 30190.44531250  2723004.00000000 2160469.00000000 
0.07100    61918872.00000000 39065028.00000000 98360904.00000000 29456.06250000  2661165.00000000 2111464.75000000 
0.07200    60674340.00000000 38284052.00000000 96389024.00000000 28745.69140625  2601121.50000000 2063850.50000000 
0.07300    59460256.00000000 37522372.00000000 94465856.00000000 28058.12890625  2542819.75000000 2017639.12500000 
0.07400    58276856.00000000 36779904.00000000 92591016.00000000 27392.70703125  2486199.50000000 1972735.37500000 
0.07500    57124232.00000000 36055960.00000000 90763736.00000000 26749.33593750  2431254.25000000 1929163.00000000 
0.07600    56001128.00000000 35350932.00000000 88983656.00000000 26126.87695312  2377938.75000000 1886876.25000000 
0.07700    54907680.00000000 34664008.00000000 87250712.00000000 25524.60742188  2326211.75000000 1845851.87500000 
0.07800    53843644.00000000 33995240.00000000 85563200.00000000 24942.13867188  2276033.75000000 1806044.00000000 
0.07900    52808048.00000000 33345456.00000000 83922032.00000000 24378.22265625  2227342.75000000 1767421.50000000 
0.08000    51801084.00000000 32712620.00000000 82325528.00000000 23832.10742188  2180122.25000000 1729976.37500000 
0.08100    50822016.00000000 32097592.00000000 80772304.00000000 23303.65234375  2134328.00000000 1693626.37500000 
0.08200    49869472.00000000 31499094.00000000 79263288.00000000 22791.73437500  2089889.25000000 1658380.25000000 
0.08300    48944016.00000000 30917732.00000000 77795312.00000000 22295.49804688  2046765.87500000 1624168.75000000 
0.08400    48044448.00000000 30352864.00000000 76369680.00000000 21814.40039062  2004921.12500000 1590982.50000000 
0.08500    47170288.00000000 29803984.00000000 74984328.00000000 21347.75195312  1964277.12500000 1558754.87500000 
0.08600    46321068.00000000 29270630.00000000 73638312.00000000 20894.70312500  1924830.87500000 1527481.75000000 
0.08700    45495984.00000000 28752578.00000000 72331448.00000000 20454.66015625  1886549.00000000 1497099.75000000 
0.08800    44694528.00000000 28249656.00000000 71060928.00000000 20027.04101562  1849325.62500000 1467586.50000000 
0.08900    43915428.00000000 27761086.00000000 69827248.00000000 19610.95312500  1813148.50000000 1438901.75000000 
0.09000    43159088.00000000 27286492.00000000 68628384.00000000 19206.06640625  1777965.50000000 1411009.25000000 
0.09100    42423776.00000000 26825422.00000000 67464248.00000000 18811.79101562  1743726.00000000 1383870.12500000 
0.09200    41709504.00000000 26377782.00000000 66332796.00000000 18427.15039062  1710407.12500000 1357461.50000000 
0.09300    41014932.00000000 25942748.00000000 65233720.00000000 18052.33789062  1677949.87500000 1331741.75000000 
0.09400    40340220.00000000 25520386.00000000 64165336.00000000 17686.05664062  1646318.37500000 1306672.12500000 
0.09500    39683664.00000000 25109580.00000000 63126952.00000000 17328.22460938  1615469.87500000 1282242.00000000 
0.09600    39045448.00000000 24710436.00000000 62117208.00000000 16978.50195312  1585384.37500000 1258400.50000000 
0.09700    38424832.00000000 24322204.00000000 61135484.00000000 16636.22265625  1555985.62500000 1235142.25000000 
0.09800    37820316.00000000 23944958.00000000 60180116.00000000 16300.92480469  1527293.75000000 1212407.75000000 
0.09900    37232284.00000000 23577746.00000000 59250560.00000000 15972.57226562  1499237.00000000 1190186.37500000 
0.10000    36659436.00000000 23220254.00000000 58345448.00000000 15650.49121094  1471785.50000000 1168466.00000000 
0.10100    36101340.00000000 22872266.00000000 57463872.00000000 15334.41113281  1444911.50000000 1147190.62500000 
0.10200    35557068.00000000 22533492.00000000 56604928.00000000 15024.24511719  1418602.50000000 1126373.87500000 
0.10300    35026864.00000000 22203112.00000000 55767600.00000000 14719.55566406  1392811.25000000 1105960.37500000 
0.10400    34509232.00000000 21881300.00000000 54951280.00000000 14420.16503906  1367519.75000000 1085948.25000000 
0.10500    34004268.00000000 21567392.00000000 54154416.00000000 14125.94921875  1342698.87500000 1066312.62500000 
0.10600    33510612.00000000 21260684.00000000 53376164.00000000 13836.41992188  1318340.37500000 1047038.18750000 
0.10700    33028646.00000000 20961368.00000000 52616300.00000000 13551.77441406  1294411.25000000 1028110.25000000 
0.10800    32557396.00000000 20669014.00000000 51873568.00000000 13271.55371094  1270883.37500000 1009505.12500000 
0.10900    32096122.00000000 20383088.00000000 51147392.00000000 12995.77734375  1247763.12500000 991211.37500000 
0.11000    31644604.00000000 20103320.00000000 50436768.00000000 12724.35351562  1225022.75000000 973220.75000000 
0.11100    31202724.00000000 19829516.00000000 49740544.00000000 12457.09472656  1202645.87500000 955520.18750000 
0.11200    30769314.00000000 19561142.00000000 49058820.00000000 12193.94921875  1180620.12500000 938084.18750000 
0.11300    30344820.00000000 19298462.00000000 48390264.00000000 11934.88281250  1158919.50000000 920920.50000000 
0.11400    29928200.00000000 19040756.00000000 47734760.00000000 11679.77539062  1137560.75000000 904013.87500000 
0.11500    29519164.00000000 18787810.00000000 47090996.00000000 11428.65527344  1116511.25000000 887361.06250000 
0.11600    29117190.00000000 18539502.00000000 46458936.00000000 11181.44042969  1095759.12500000 870935.50000000 
0.11700    28722732.00000000 18295424.00000000 45837964.00000000 10938.10644531  1075314.00000000 854753.37500000 
0.11800    28334206.00000000 18055280.00000000 45227204.00000000 10698.68261719  1055161.12500000 838790.50000000 
0.11900    27952134.00000000 17819416.00000000 44626552.00000000 10463.02246094  1035288.25000000 823049.75000000 
0.12000    27575996.00000000 17587172.00000000 44035120.00000000 10231.20410156  1015688.56250000 807527.75000000 
0.12100    27205576.00000000 17358352.00000000 43452540.00000000 10003.26953125  996369.00000000 792224.75000000 
0.12200    26840714.00000000 17132638.00000000 42878492.00000000 9779.11816406   977315.12500000 777122.68750000 
0.12300    26480980.00000000 16910534.00000000 42312520.00000000 9558.86230469   958535.56250000 762234.68750000 
0.12400    26126024.00000000 16690987.00000000 41754280.00000000 9342.41503906   940005.75000000 747545.00000000 
0.12500    25775866.00000000 16474519.00000000 41203084.00000000 9129.74609375   921738.87500000 733052.75000000 
0.12600    25430050.00000000 16260794.00000000 40659488.00000000 8920.93750000   903733.62500000 718771.25000000 
0.12700    25088718.00000000 16049474.00000000 40121880.00000000 8716.01464844   885974.56250000 704677.68750000 
0.12800    24751198.00000000 15840575.00000000 39590800.00000000 8514.79101562   868472.56250000 690783.18750000 
0.12900    24418050.00000000 15633997.00000000 39065820.00000000 8317.43066406   851215.93750000 677084.81250000 
0.13000    24088330.00000000 15429756.00000000 38546668.00000000 8123.89990234   834218.56250000 663574.87500000 
0.13100    23762460.00000000 15227558.00000000 38032768.00000000 7934.12109375   817455.62500000 650263.00000000 
0.13200    23439962.00000000 15027373.00000000 37524616.00000000 7748.09472656   800955.75000000 637139.81250000 
0.13300    23121066.00000000 14829083.00000000 37021412.00000000 7565.87988281   784686.43750000 624207.18750000 
0.13400    22805212.00000000 14632750.00000000 36523028.00000000 7387.33496094   768666.75000000 611465.12500000 
0.13500    22492306.00000000 14438125.00000000 36029280.00000000 7212.46972656   752886.25000000 598916.18750000 
0.13600    22182510.00000000 14245258.00000000 35540440.00000000 7041.34667969   737357.06250000 586551.43750000 
0.13700    21875832.00000000 14054119.00000000 35056176.00000000 6873.80322266   722063.18750000 574377.56250000 
0.13800    21571980.00000000 13864397.00000000 34575488.00000000 6709.82666016   707001.75000000 562386.00000000 
0.13900    21270974.00000000 13676425.00000000 34099284.00000000 6549.50439453   692187.50000000 550585.62500000 
0.14000    20972378.00000000 13489869.00000000 33627608.00000000 6392.56494141   677603.12500000 538967.87500000 
0.14100    20676886.00000000 13304753.00000000 33159706.00000000 6239.17089844   663262.62500000 527532.62500000 
0.14200    20383602.00000000 13121142.00000000 32695326.00000000 6089.10937500   649143.31250000 516282.21875000 
0.14300    20092912.00000000 12938958.00000000 32235048.00000000 5942.38671875   635259.12500000 505211.15625000 
0.14400    19804640.00000000 12758071.00000000 31778318.00000000 5798.96044922   621600.50000000 494319.28125000 
0.14500    19519120.00000000 12578631.00000000 31325448.00000000 5658.80029297   608170.06250000 483607.21875000 
0.14600    19235672.00000000 12400454.00000000 30876016.00000000 5521.78906250   594963.93750000 473070.62500000 
0.14700    18954946.00000000 12223678.00000000 30430328.00000000 5387.86181641   581983.75000000 462712.43750000 
0.14800    18676248.00000000 12048160.00000000 29988000.00000000 5256.99609375   569210.25000000 452526.03125000 
0.14900    18400004.00000000 11873937.00000000 29548940.00000000 5129.11279297   556663.12500000 442509.31250000 
0.15000    18126094.00000000 11701089.00000000 29113776.00000000 5004.13623047   544328.62500000 432663.65625000 
0.15100    17854404.00000000 11529430.00000000 28681816.00000000 4881.99169922   532205.06250000 422984.93750000 
0.15200    17585190.00000000 11359124.00000000 28253376.00000000 4762.63720703   520289.78125000 413472.68750000 
0.15300    17318000.00000000 11190062.00000000 27828282.00000000 4645.98535156   508578.34375000 404123.40625000 
0.15400    17053216.00000000 11022183.00000000 27406678.00000000 4531.97412109   497067.90625000 394934.50000000 
0.15500    16790648.00000000 10855770.00000000 26988506.00000000 4420.52197266   485761.09375000 385905.81250000 
0.15600    16530397.00000000 10690562.00000000 26573750.00000000 4311.68115234   474646.50000000 377031.34375000 
0.15700    16272316.00000000 10526697.00000000 26162502.00000000 4205.28955078   463729.15625000 368314.81250000 
0.15800    16016530.00000000 10364065.00000000 25754458.00000000 4101.28222656   452993.81250000 359745.62500000 
0.15900    15762911.00000000 10202952.00000000 25349970.00000000 3999.63964844   442452.56250000 351332.31250000 
0.16000    15511560.00000000 10042895.00000000 24949080.00000000 3900.32543945   432091.78125000 343058.71875000 
0.16100    15262689.00000000 9884484.00000000 24551882.00000000 3803.27734375   421917.25000000 334937.96875000 
0.16200    15015973.00000000 9727336.00000000 24158074.00000000 3708.42651367   411918.12500000 326956.34375000 
0.16300    14771602.00000000 9571463.00000000 23767906.00000000 3615.74072266   402095.84375000 319117.46875000 
0.16400    14529611.00000000 9417056.00000000 23381214.00000000 3525.19384766   392444.53125000 311415.37500000 
0.16500    14289965.00000000 9264058.00000000 22998390.00000000 3436.69824219   382965.40625000 303851.78125000 
0.16600    14052586.00000000 9112464.00000000 22619162.00000000 3350.29248047   373657.28125000 296425.18750000 
0.16700    13817697.00000000 8962320.00000000 22243540.00000000 3265.86401367   364511.78125000 289126.71875000 
0.16800    13585177.00000000 8813586.00000000 21871772.00000000 3183.43652344   355528.09375000 281961.68750000 
0.16900    13355158.00000000 8666523.00000000 21503828.00000000 3102.96655273   346707.93750000 274925.31250000 
0.17000    13127385.00000000 8520888.00000000 21139834.00000000 3024.42114258   338048.65625000 268017.78125000 
