# SAXS profile: number of points = 501, q_min = 0, q_max = 0.5, delta_q = 0.001
#    q    intensity 
0.00000    162231600.00000000 101202056.00000000 256270096.00000000 103213.28125000 8184208.00000000 6463860.00000000 
0.00100    162201216.00000000 101179944.00000000 256215072.00000000 103182.29687500 8182049.50000000 6462167.00000000 
0.00200    162100112.00000000 101115032.00000000 256050608.00000000 103087.84375000 8175600.00000000 6457083.50000000 
0.00300    161929424.00000000 101007384.00000000 255773920.00000000 102931.33593750 8164804.50000000 6448643.50000000 
0.00400    161681968.00000000 100856184.00000000 255388192.00000000 102712.13281250 8149799.00000000 6436852.50000000 
0.00500    161364928.00000000 100662392.00000000 254895472.00000000 102431.73437500 8130493.50000000 6421684.00000000 
0.00600    160977488.00000000 100424904.00000000 254291248.00000000 102090.33593750 8107009.50000000 6403264.50000000 
0.00700    160520784.00000000 100146864.00000000 253580288.00000000 101687.85937500 8079356.00000000 6381535.00000000 
0.00800    159996480.00000000 99827136.00000000 252763664.00000000 101226.20312500 8047554.50000000 6356606.50000000 
0.00900    159409248.00000000 99467320.00000000 251841104.00000000 100706.45312500 8011746.00000000 6328456.00000000 
0.01000    158755984.00000000 99065768.00000000 250815792.00000000 100127.94531250 7971922.50000000 6297199.00000000 
0.01100    158038112.00000000 98624696.00000000 249688208.00000000 99494.23437500  7928230.00000000 6262881.00000000 
0.01200    157255232.00000000 98142976.00000000 248461488.00000000 98805.22656250  7880666.50000000 6225506.50000000 
0.01300    156405488.00000000 97623384.00000000 247135456.00000000 98063.46875000  7829355.00000000 6185250.50000000 
0.01400    155497728.00000000 97065944.00000000 245712688.00000000 97269.14062500  7774391.50000000 6142079.00000000 
0.01500    154533152.00000000 96471960.00000000 244196640.00000000 96424.83593750  7715905.50000000 6096174.00000000 
0.01600    153506736.00000000 95842856.00000000 242588752.00000000 95531.35937500  7653989.00000000 6047531.50000000 
0.01700    152423584.00000000 95177576.00000000 240891344.00000000 94592.83593750  7588703.00000000 5996290.50000000 
0.01800    151286512.00000000 94478368.00000000 239108192.00000000 93607.60937500  7520272.00000000 5942478.50000000 
0.01900    150095392.00000000 93745936.00000000 237240384.00000000 92579.73437500  7448714.00000000 5886248.50000000 
0.02000    148851424.00000000 92982920.00000000 235291968.00000000 91512.28125000  7374191.50000000 5827723.00000000 
0.02100    147558384.00000000 92188896.00000000 233265104.00000000 90404.88281250  7296828.00000000 5766925.50000000 
0.02200    146217840.00000000 91364344.00000000 231162112.00000000 89261.36718750  7216734.50000000 5704014.50000000 
0.02300    144832496.00000000 90511736.00000000 228988032.00000000 88083.34375000  7134165.50000000 5639126.50000000 
0.02400    143401920.00000000 89631496.00000000 226745024.00000000 86873.26562500  7049116.00000000 5572262.00000000 
0.02500    141930512.00000000 88726064.00000000 224436256.00000000 85633.13281250  6961787.50000000 5503608.50000000 
0.02600    140418128.00000000 87795280.00000000 222062784.00000000 84365.59375000  6872355.00000000 5433294.00000000 
0.02700    138868800.00000000 86841344.00000000 219631152.00000000 83072.71093750  6780939.00000000 5361411.00000000 
0.02800    137283952.00000000 85865320.00000000 217144064.00000000 81756.99218750  6687650.50000000 5288104.50000000 
0.02900    135666624.00000000 84868824.00000000 214604352.00000000 80420.61718750  6592670.50000000 5213366.50000000 
0.03000    134016760.00000000 83852544.00000000 212014928.00000000 79065.92187500  6496172.00000000 5137503.00000000 
0.03100    132339960.00000000 82818288.00000000 209381376.00000000 77694.60937500  6398250.50000000 5060471.00000000 
0.03200    130635448.00000000 81766832.00000000 206702960.00000000 76310.76562500  6299063.50000000 4982451.50000000 
0.03300    128907112.00000000 80700936.00000000 203987248.00000000 74914.45312500  6198818.50000000 4903586.00000000 
0.03400    127156648.00000000 79620968.00000000 201237632.00000000 73508.79687500  6097648.00000000 4823979.50000000 
0.03500    125386064.00000000 78527976.00000000 198455696.00000000 72097.42968750  5995636.50000000 4743689.00000000 
0.03600    123597536.00000000 77424008.00000000 195644832.00000000 70679.92968750  5892992.00000000 4662910.00000000 
0.03700    121793824.00000000 76309824.00000000 192808928.00000000 69260.28906250  5789765.50000000 4581655.00000000 
0.03800    119976496.00000000 75186760.00000000 189951232.00000000 67839.86718750  5686213.50000000 4500092.00000000 
0.03900    118147672.00000000 74055696.00000000 187076848.00000000 66420.90625000  5582365.50000000 4418360.00000000 
0.04000    116310632.00000000 72919336.00000000 184185264.00000000 65004.61718750  5478441.50000000 4336431.00000000 
0.04100    114465696.00000000 71778248.00000000 181283840.00000000 63593.69921875  5374466.50000000 4254560.50000000 
0.04200    112616816.00000000 70632496.00000000 178374208.00000000 62189.57812500  5270664.00000000 4172775.75000000 
0.04300    110764272.00000000 69485592.00000000 175456960.00000000 60794.25000000  5167128.00000000 4091178.75000000 
0.04400    108911576.00000000 68337584.00000000 172540448.00000000 59409.47656250  5063971.00000000 4009874.75000000 
0.04500    107058960.00000000 67189520.00000000 169622352.00000000 58036.29296875  4961275.00000000 3928923.75000000 
0.04600    105208840.00000000 66041552.00000000 166707952.00000000 56676.65234375  4859229.00000000 3848422.50000000 
0.04700    103363104.00000000 64896832.00000000 163801120.00000000 55331.85156250  4757868.00000000 3768497.00000000 
0.04800    101523880.00000000 63755288.00000000 160903568.00000000 54002.92968750  4657251.00000000 3689175.75000000 
0.04900    99693456.00000000 62618300.00000000 158017168.00000000 52691.56250000  4557582.50000000 3610542.25000000 
0.05000    97871952.00000000 61486360.00000000 155145616.00000000 51398.34375000  4458911.00000000 3532659.50000000 
0.05100    96061240.00000000 60361344.00000000 152290864.00000000 50124.97265625  4361276.50000000 3455629.25000000 
0.05200    94263688.00000000 59243208.00000000 149455104.00000000 48871.95312500  4264797.00000000 3379468.00000000 
0.05300    92479656.00000000 58133428.00000000 146640624.00000000 47640.73828125  4169548.50000000 3304267.75000000 
0.05400    90711336.00000000 57032132.00000000 143850112.00000000 46431.26171875  4075588.50000000 3230055.25000000 
0.05500    88959168.00000000 55941648.00000000 141085584.00000000 45245.09375000  3982980.00000000 3156934.50000000 
0.05600    87225024.00000000 54861112.00000000 138348304.00000000 44082.07031250  3891763.25000000 3084857.00000000 
0.05700    85510200.00000000 53792352.00000000 135640704.00000000 42943.46875000  3802002.75000000 3013944.75000000 
0.05800    83815912.00000000 52735348.00000000 132963984.00000000 41829.11328125  3713769.50000000 2944206.50000000 
0.05900    82142424.00000000 51691420.00000000 130321360.00000000 40739.62890625  3627099.25000000 2875680.00000000 
0.06000    80490216.00000000 50660524.00000000 127711152.00000000 39675.51171875  3541997.75000000 2808406.00000000 
0.06100    78861536.00000000 49643392.00000000 125136376.00000000 38636.30078125  3458540.25000000 2742373.00000000 
0.06200    77257112.00000000 48640944.00000000 122600104.00000000 37623.45312500  3376712.25000000 2677675.50000000 
0.06300    75677232.00000000 47653556.00000000 120100832.00000000 36635.67578125  3296558.50000000 2614251.00000000 
0.06400    74120872.00000000 46680544.00000000 117641120.00000000 35673.41796875  3218107.00000000 2552157.50000000 
0.06500    72591080.00000000 45723908.00000000 115221768.00000000 34737.03515625  3141334.50000000 2491415.00000000 
0.06600    71088040.00000000 44783000.00000000 112843400.00000000 33825.73437500  3066282.25000000 2432015.25000000 
0.06700    69611704.00000000 43858708.00000000 110505848.00000000 32939.65625000  2992965.75000000 2373955.75000000 
0.06800    68161784.00000000 42950756.00000000 108211824.00000000 32078.88281250  2921337.50000000 2317239.00000000 
0.06900    66739496.00000000 42059800.00000000 105959456.00000000 31242.55078125  2851461.50000000 2261881.50000000 
0.07000    65345532.00000000 41185448.00000000 103752368.00000000 30430.65820312  2783256.00000000 2207881.00000000 
0.07100    63978784.00000000 40328960.00000000 101588736.00000000 29642.84570312  2716792.50000000 2155184.00000000 
0.07200    62640204.00000000 39489800.00000000 99468408.00000000 28878.59375000  2651993.00000000 2103858.00000000 
0.07300    61330364.00000000 38667464.00000000 97393088.00000000 28137.25390625  2588871.25000000 2053821.62500000 
0.07400    60048728.00000000 37863284.00000000 95361704.00000000 27418.92382812  2527402.00000000 2005099.00000000 
0.07500    58794988.00000000 37076472.00000000 93376400.00000000 26722.36132812  2467589.25000000 1957663.50000000 
0.07600    57569164.00000000 36306772.00000000 91434096.00000000 26047.74414062  2409361.25000000 1911503.37500000 
0.07700    56372340.00000000 35555088.00000000 89536488.00000000 25393.94726562  2352754.75000000 1866607.12500000 
0.07800    55203516.00000000 34820748.00000000 87682912.00000000 24760.72265625  2297676.25000000 1822930.62500000 
0.07900    54061896.00000000 34103692.00000000 85873872.00000000 24147.44921875  2244138.25000000 1780451.00000000 
0.08000    52948536.00000000 33404234.00000000 84108352.00000000 23553.11914062  2192114.25000000 1739180.25000000 
0.08100    51862368.00000000 32722060.00000000 82386096.00000000 22977.92578125  2141527.50000000 1699054.87500000 
0.08200    50803196.00000000 32056498.00000000 80706600.00000000 22420.42578125  2092382.62500000 1660057.62500000 
0.08300    49771144.00000000 31407846.00000000 79069760.00000000 21880.27539062  2044646.37500000 1622187.75000000 
0.08400    48764868.00000000 30775680.00000000 77475656.00000000 21357.30468750  1998267.37500000 1585384.75000000 
0.08500    47785656.00000000 30160062.00000000 75921840.00000000 20850.15820312  1953216.75000000 1549639.62500000 
0.08600    46831688.00000000 29560542.00000000 74408952.00000000 20359.03515625  1909477.25000000 1514920.75000000 
0.08700    45902780.00000000 28977154.00000000 72937328.00000000 19882.77929688  1866978.75000000 1481188.37500000 
0.08800    44998800.00000000 28409126.00000000 71503896.00000000 19420.59570312  1825697.62500000 1448422.00000000 
0.08900    44119276.00000000 27856856.00000000 70109648.00000000 18972.42968750  1785599.87500000 1416607.00000000 
0.09000    43263988.00000000 27319578.00000000 68754008.00000000 18537.64257812  1746651.37500000 1385704.62500000 
0.09100    42431888.00000000 26797168.00000000 67434776.00000000 18115.52148438  1708799.25000000 1355669.50000000 
0.09200    41623116.00000000 26289152.00000000 66153200.00000000 17705.51953125  1672036.50000000 1326483.50000000 
0.09300    40836008.00000000 25795730.00000000 64906784.00000000 17307.25976562  1636304.12500000 1298142.12500000 
0.09400    40071360.00000000 25316058.00000000 63695260.00000000 16920.06835938  1601574.00000000 1270572.87500000 
0.09500    39327568.00000000 24849870.00000000 62518060.00000000 16543.50585938  1567795.87500000 1243790.87500000 
0.09600    38605572.00000000 24397060.00000000 61373480.00000000 16177.35742188  1534955.37500000 1217733.62500000 
0.09700    37903288.00000000 23957336.00000000 60261980.00000000 15820.89941406  1503020.37500000 1192394.50000000 
0.09800    37221156.00000000 23529902.00000000 59181484.00000000 15473.81445312  1471936.50000000 1167744.50000000 
0.09900    36557908.00000000 23114860.00000000 58132216.00000000 15135.67187500  1441694.75000000 1143767.75000000 
0.10000    35913360.00000000 22711678.00000000 57112708.00000000 14806.14355469  1412246.62500000 1120418.62500000 
0.10100    35286844.00000000 22320228.00000000 56121812.00000000 14484.79296875  1383583.25000000 1097692.50000000 
0.10200    34678176.00000000 21939992.00000000 55159888.00000000 14171.39160156  1355661.12500000 1075556.25000000 
0.10300    34086504.00000000 21570588.00000000 54224424.00000000 13865.47460938  1328423.87500000 1053981.12500000 
0.10400    33511558.00000000 21211868.00000000 53315976.00000000 13566.84179688  1301900.00000000 1032954.81250000 
0.10500    32952268.00000000 20863296.00000000 52432468.00000000 13275.16699219  1276041.50000000 1012469.75000000 
0.10600    32408430.00000000 20524496.00000000 51574228.00000000 12990.15625000  1250810.37500000 992475.56250000 
0.10700    31879940.00000000 20195482.00000000 50739460.00000000 12711.68945312  1226194.50000000 972968.00000000 
0.10800    31365660.00000000 19875548.00000000 49928076.00000000 12439.43457031  1202163.50000000 953936.56250000 
0.10900    30865104.00000000 19564632.00000000 49138876.00000000 12173.24609375  1178692.75000000 935348.56250000 
0.11000    30378238.00000000 19262226.00000000 48371340.00000000 11912.86914062  1155766.50000000 917199.50000000 
0.11100    29904406.00000000 18968040.00000000 47624528.00000000 11658.17578125  1133377.00000000 899469.37500000 
0.11200    29442938.00000000 18681890.00000000 46897424.00000000 11408.83105469  1111491.87500000 882134.12500000 
0.11300    28993642.00000000 18403382.00000000 46189440.00000000 11164.85546875  1090083.25000000 865197.43750000 
0.11400    28555888.00000000 18132184.00000000 45500344.00000000 10926.12792969  1069153.00000000 848625.00000000 
0.11500    28128922.00000000 17868046.00000000 44828844.00000000 10692.40429688  1048672.50000000 832416.56250000 
0.11600    27712928.00000000 17610792.00000000 44174068.00000000 10463.58203125  1028632.31250000 816552.68750000 
0.11700    27307170.00000000 17360058.00000000 43536136.00000000 10239.58789062  1009010.93750000 801023.06250000 
0.11800    26911024.00000000 17115630.00000000 42913548.00000000 10020.20605469  989795.81250000 785814.25000000 
0.11900    26524750.00000000 16876978.00000000 42305812.00000000 9805.43261719   970975.12500000 770922.43750000 
0.12000    26147268.00000000 16644221.00000000 41712220.00000000 9595.07812500   952534.12500000 756329.87500000 
0.12100    25778364.00000000 16416842.00000000 41132816.00000000 9389.18652344   934460.06250000 742030.43750000 
0.12200    25417822.00000000 16194644.00000000 40566544.00000000 9187.67285156   916747.43750000 728014.68750000 
0.12300    25065306.00000000 15977459.00000000 40013084.00000000 8990.29394531   899382.43750000 714271.62500000 
0.12400    24720264.00000000 15764877.00000000 39471256.00000000 8797.03320312   882352.87500000 700788.43750000 
0.12500    24382534.00000000 15556876.00000000 38940708.00000000 8607.86132812   865646.75000000 687562.43750000 
0.12600    24051446.00000000 15353236.00000000 38421272.00000000 8422.70800781   849257.56250000 674588.50000000 
0.12700    23727338.00000000 15153673.00000000 37911972.00000000 8241.48730469   833165.18750000 661851.81250000 
0.12800    23409024.00000000 14957910.00000000 37412932.00000000 8064.03662109   817382.18750000 649355.00000000 
0.12900    23097204.00000000 14765935.00000000 36923092.00000000 7890.41650391   801879.00000000 637070.12500000 
0.13000    22790832.00000000 14577364.00000000 36442336.00000000 7720.51513672   786659.43750000 625020.25000000 
0.13100    22489846.00000000 14392131.00000000 35969708.00000000 7554.16992188   771714.87500000 613174.25000000 
0.13200    22194150.00000000 14210038.00000000 35505392.00000000 7391.46777344   757023.87500000 601540.06250000 
0.13300    21903362.00000000 14030975.00000000 35048708.00000000 7232.21386719   742596.43750000 590114.68750000 
0.13400    21617232.00000000 13854652.00000000 34599224.00000000 7076.30566406   728423.62500000 578873.75000000 
0.13500    21335410.00000000 13681004.00000000 34157104.00000000 6923.81591797   714496.12500000 567827.93750000 
0.13600    21057844.00000000 13509949.00000000 33720852.00000000 6774.56201172   700795.56250000 556969.56250000 
0.13700    20784320.00000000 13341150.00000000 33290856.00000000 6628.51416016   687323.37500000 546284.37500000 
0.13800    20514492.00000000 13174469.00000000 32866744.00000000 6485.54443359   674082.00000000 535775.50000000 
0.13900    20248420.00000000 13010029.00000000 32448058.00000000 6345.68359375   661055.37500000 525441.31250000 
0.14000    19985482.00000000 12847618.00000000 32034530.00000000 6208.67480469   648244.31250000 515268.34375000 
0.14100    19726176.00000000 12686966.00000000 31626060.00000000 6074.66406250   635638.75000000 505257.96875000 
0.14200    19469464.00000000 12528062.00000000 31221982.00000000 5943.40429688   623227.31250000 495407.59375000 
0.14300    19215768.00000000 12370855.00000000 30822418.00000000 5814.83691406   611014.93750000 485705.18750000 
0.14400    18964938.00000000 12215092.00000000 30426916.00000000 5688.96533203   598988.56250000 476148.50000000 
0.14500    18716714.00000000 12060911.00000000 30035500.00000000 5565.68115234   587147.00000000 466737.00000000 
0.14600    18470764.00000000 11907966.00000000 29647592.00000000 5444.85791016   575488.62500000 457467.81250000 
0.14700    18227346.00000000 11756482.00000000 29263310.00000000 5326.57275391   564002.06250000 448334.25000000 
0.14800    17985954.00000000 11606047.00000000 28882122.00000000 5210.52148438   552686.87500000 439332.46875000 
0.14900    17746628.00000000 11456823.00000000 28504162.00000000 5096.78759766   541536.43750000 430456.21875000 
0.15000    17509430.00000000 11308660.00000000 28129000.00000000 4985.34082031   530542.87500000 421712.09375000 
0.15100    17274056.00000000 11161503.00000000 27756950.00000000 4875.97900391   519711.15625000 413087.96875000 
0.15200    17040706.00000000 11015399.00000000 27387360.00000000 4768.73291016   509031.68750000 404587.00000000 
0.15300    16808984.00000000 10870211.00000000 27020422.00000000 4663.51269531   498505.09375000 396198.78125000 
0.15400    16578983.00000000 10725799.00000000 26655850.00000000 4560.24560547   488117.62500000 387923.84375000 
0.15500    16350484.00000000 10582299.00000000 26293762.00000000 4458.86279297   477875.37500000 379764.75000000 
0.15600    16123622.00000000 10439568.00000000 25933650.00000000 4359.33984375   467770.34375000 371711.03125000 
0.15700    15898251.00000000 10297544.00000000 25575752.00000000 4261.68847656   457807.65625000 363767.21875000 
0.15800    15674164.00000000 10156482.00000000 25220146.00000000 4165.67822266   447971.68750000 355923.09375000 
0.15900    15451554.00000000 10016033.00000000 24866496.00000000 4071.43798828   438268.09375000 348188.18750000 
0.16000    15230301.00000000 9876356.00000000 24514858.00000000 3978.88476562   428694.43750000 340552.53125000 
0.16100    15010446.00000000 9737317.00000000 24165080.00000000 3887.94091797   419251.06250000 333013.03125000 
0.16200    14791975.00000000 9598998.00000000 23817318.00000000 3798.63256836   409930.78125000 325573.31250000 
0.16300    14574707.00000000 9461304.00000000 23471434.00000000 3710.86645508   400728.40625000 318231.93750000 
0.16400    14358866.00000000 9324303.00000000 23127662.00000000 3624.64428711   391652.00000000 310985.81250000 
0.16500    14144178.00000000 9188134.00000000 22785746.00000000 3539.95581055   382694.09375000 303832.65625000 
0.16600    13930902.00000000 9052655.00000000 22445730.00000000 3456.77416992   373854.06250000 296774.93750000 
0.16700    13718866.00000000 8917758.00000000 22107490.00000000 3375.03320312   365132.37500000 289809.15625000 
0.16800    13508160.00000000 8783622.00000000 21771242.00000000 3294.77539062   356527.65625000 282935.43750000 
0.16900    13298845.00000000 8650323.00000000 21437098.00000000 3216.03247070   348041.68750000 276157.09375000 
0.17000    13090967.00000000 8517683.00000000 21105006.00000000 3138.66943359   339671.46875000 269468.12500000 
