# SAXS profile: number of points = 501, q_min = 0, q_max = 0.5, delta_q = 0.001
#    q    intensity 
0.00000    162232400.00000000 101201784.00000000 256271472.00000000 101825.15625000 8128940.50000000 6420243.00000000 
0.00100    162201760.00000000 101180864.00000000 256216704.00000000 101794.56250000 8126875.00000000 6418611.50000000 
0.00200    162105200.00000000 101118600.00000000 256059552.00000000 101704.27343750 8120670.50000000 6413749.00000000 
0.00300    161941952.00000000 101015032.00000000 255793920.00000000 101553.89843750 8110263.50000000 6405554.00000000 
0.00400    161705424.00000000 100871256.00000000 255424880.00000000 101343.18750000 8095761.00000000 6394200.50000000 
0.00500    161397744.00000000 100685232.00000000 254950432.00000000 101074.07812500 8077163.00000000 6379663.50000000 
0.00600    161025664.00000000 100456648.00000000 254369648.00000000 100745.21875000 8054474.50000000 6361826.50000000 
0.00700    160588240.00000000 100190592.00000000 253688656.00000000 100358.49218750 8027804.00000000 6340912.00000000 
0.00800    160081632.00000000 99884784.00000000 252904112.00000000 99914.91406250  7997138.50000000 6316908.50000000 
0.00900    159515504.00000000 99539360.00000000 252018224.00000000 99414.28906250  7962575.50000000 6289765.50000000 
0.01000    158886480.00000000 99155088.00000000 251032048.00000000 98858.65625000  7924152.00000000 6259606.00000000 
0.01100    158196352.00000000 98731248.00000000 249949392.00000000 98248.75000000  7881934.50000000 6226491.00000000 
0.01200    157441920.00000000 98269744.00000000 248769952.00000000 97585.41406250  7835964.50000000 6190464.50000000 
0.01300    156625952.00000000 97771208.00000000 247495376.00000000 96870.94531250  7786416.00000000 6151600.00000000 
0.01400    155750368.00000000 97236000.00000000 246127904.00000000 96105.91406250  7733298.50000000 6109937.00000000 
0.01500    154818352.00000000 96666080.00000000 244669376.00000000 95292.48437500  7676757.50000000 6065585.00000000 
0.01600    153830800.00000000 96061080.00000000 243121152.00000000 94431.89062500  7616840.50000000 6018619.50000000 
0.01700    152785408.00000000 95422056.00000000 241488096.00000000 93525.71093750  7553700.00000000 5969063.00000000 
0.01800    151688832.00000000 94751024.00000000 239769760.00000000 92575.71093750  7487427.00000000 5917062.00000000 
0.01900    150538512.00000000 94046904.00000000 237970352.00000000 91583.63281250  7418099.00000000 5862662.50000000 
0.02000    149338592.00000000 93312296.00000000 236092416.00000000 90551.87500000  7345898.00000000 5806006.50000000 
0.02100    148089920.00000000 92548256.00000000 234139488.00000000 89482.82812500  7270935.50000000 5747156.50000000 
0.02200    146794144.00000000 91754392.00000000 232110192.00000000 88376.17968750  7193270.50000000 5686204.00000000 
0.02300    145453424.00000000 90933200.00000000 230012240.00000000 87236.70312500  7113111.00000000 5623266.00000000 
0.02400    144069792.00000000 90085192.00000000 227845680.00000000 86065.57812500  7030500.50000000 5558445.00000000 
0.02500    142646864.00000000 89211896.00000000 225615888.00000000 84864.60156250  6945685.00000000 5491871.00000000 
0.02600    141181920.00000000 88314264.00000000 223322336.00000000 83635.72656250  6858721.00000000 5423567.00000000 
0.02700    139680464.00000000 87392880.00000000 220969072.00000000 82381.78125000  6769776.50000000 5353715.00000000 
0.02800    138144016.00000000 86450168.00000000 218563440.00000000 81104.10156250  6678947.50000000 5282385.00000000 
0.02900    136574464.00000000 85486928.00000000 216104384.00000000 79805.66406250  6586460.50000000 5209716.50000000 
0.03000    134975040.00000000 84503696.00000000 213596288.00000000 78489.07812500  6492410.50000000 5135816.00000000 
0.03100    133344816.00000000 83502904.00000000 211041792.00000000 77154.65625000  6396887.00000000 5060781.50000000 
0.03200    131688752.00000000 82485288.00000000 208444800.00000000 75806.75000000  6300123.50000000 4984683.00000000 
0.03300    130007488.00000000 81451160.00000000 205807904.00000000 74445.71093750  6202137.50000000 4907725.00000000 
0.03400    128303672.00000000 80403904.00000000 203136560.00000000 73074.78125000  6103190.50000000 4829936.00000000 
0.03500    126579200.00000000 79344200.00000000 200431520.00000000 71696.57812500  6003410.00000000 4751482.00000000 
0.03600    124836264.00000000 78271336.00000000 197696528.00000000 70311.46875000  5902840.00000000 4672456.50000000 
0.03700    123076784.00000000 77188072.00000000 194934544.00000000 68923.01562500  5801772.00000000 4592906.50000000 
0.03800    121303088.00000000 76095920.00000000 192150416.00000000 67531.95312500  5700102.00000000 4512983.00000000 
0.03900    119517720.00000000 74995360.00000000 189346352.00000000 66141.15625000  5598210.50000000 4432799.00000000 
0.04000    117721128.00000000 73887000.00000000 186524096.00000000 64751.60546875  5496051.00000000 4352412.50000000 
0.04100    115915896.00000000 72774368.00000000 183690944.00000000 63366.15234375  5393813.50000000 4271964.00000000 
0.04200    114105576.00000000 71656512.00000000 180844176.00000000 61985.61328125  5291638.50000000 4191515.00000000 
0.04300    112289808.00000000 70535984.00000000 177992064.00000000 60612.78515625  5189573.00000000 4111181.25000000 
0.04400    110471656.00000000 69413168.00000000 175134720.00000000 59248.32421875  5087853.50000000 4031048.00000000 
0.04500    108652568.00000000 68289072.00000000 172273824.00000000 57893.98828125  4986473.00000000 3951210.00000000 
0.04600    106834976.00000000 67165104.00000000 169414576.00000000 56551.66015625  4885592.50000000 3871753.75000000 
0.04700    105020088.00000000 66041740.00000000 166558464.00000000 55222.32812500  4785332.50000000 3792740.00000000 
0.04800    103209080.00000000 64921224.00000000 163709088.00000000 53907.68359375  4685729.50000000 3714241.25000000 
0.04900    101403600.00000000 63803620.00000000 160868608.00000000 52608.53125000  4586943.50000000 3636367.50000000 
0.05000    99607656.00000000 62690744.00000000 158040832.00000000 51326.35156250  4489016.50000000 3559183.75000000 
0.05100    97819264.00000000 61582472.00000000 155224288.00000000 50062.01562500  4392070.50000000 3482720.00000000 
0.05200    96042208.00000000 60479880.00000000 152425040.00000000 48817.18359375  4296143.50000000 3407063.25000000 
0.05300    94277912.00000000 59384668.00000000 149645312.00000000 47591.64062500  4201371.50000000 3332278.50000000 
0.05400    92526136.00000000 58297156.00000000 146884768.00000000 46387.40234375  4107765.25000000 3258399.00000000 
0.05500    90789624.00000000 57218156.00000000 144147120.00000000 45204.21484375  4015421.50000000 3185491.50000000 
0.05600    89068032.00000000 56148252.00000000 141432832.00000000 44043.68750000  3924381.75000000 3113610.25000000 
0.05700    87364416.00000000 55088716.00000000 138746640.00000000 42905.98046875  3834723.50000000 3042815.75000000 
0.05800    85679280.00000000 54039836.00000000 136086544.00000000 41791.12500000  3746486.50000000 2973105.50000000 
0.05900    84013144.00000000 53002228.00000000 133457272.00000000 40700.78906250  3659716.25000000 2904543.50000000 
0.06000    82366960.00000000 51976856.00000000 130858416.00000000 39634.17578125  3574436.50000000 2837155.75000000 
0.06100    80742096.00000000 50964092.00000000 128292392.00000000 38591.85937500  3490736.50000000 2770975.75000000 
0.06200    79139128.00000000 49964260.00000000 125760520.00000000 37574.63281250  3408616.50000000 2706063.25000000 
0.06300    77558912.00000000 48977876.00000000 123264056.00000000 36582.05078125  3328098.50000000 2642377.75000000 
0.06400    76002072.00000000 48005424.00000000 120802344.00000000 35615.00390625  3249188.25000000 2579952.00000000 
0.06500    74469256.00000000 47047944.00000000 118379928.00000000 34672.58984375  3171949.50000000 2518841.50000000 
0.06600    72961040.00000000 46105244.00000000 115994712.00000000 33754.87890625  3096392.00000000 2459023.50000000 
0.06700    71478208.00000000 45177532.00000000 113648768.00000000 32862.18750000  3022453.00000000 2400496.25000000 
0.06800    70020856.00000000 44265352.00000000 111343256.00000000 31994.52148438  2950243.75000000 2343283.75000000 
0.06900    68590112.00000000 43368856.00000000 109077792.00000000 31150.85351562  2879708.75000000 2287442.00000000 
0.07000    67184936.00000000 42489224.00000000 106854016.00000000 30331.87890625  2810847.25000000 2232861.25000000 
0.07100    65805968.00000000 41624700.00000000 104671200.00000000 29536.79687500  2743679.00000000 2179649.25000000 
0.07200    64455600.00000000 40777224.00000000 102531512.00000000 28765.19531250  2678200.25000000 2127711.25000000 
0.07300    63131188.00000000 39946192.00000000 100433096.00000000 28017.03125000  2614360.00000000 2077113.12500000 
0.07400    61834536.00000000 39131904.00000000 98377872.00000000 27291.81640625  2552195.75000000 2027795.75000000 
0.07500    60564296.00000000 38334368.00000000 96364936.00000000 26589.03710938  2491656.00000000 1979776.37500000 
0.07600    59322428.00000000 37553348.00000000 94394384.00000000 25908.21679688  2432723.00000000 1933022.25000000 
0.07700    58107332.00000000 36789252.00000000 92467560.00000000 25248.98437500  2375379.25000000 1887526.87500000 
0.07800    56919324.00000000 36042104.00000000 90583776.00000000 24610.56054688  2319624.25000000 1843260.50000000 
0.07900    55758844.00000000 35311908.00000000 88742184.00000000 23992.72070312  2265424.75000000 1800224.25000000 
0.08000    54625376.00000000 34597972.00000000 86942864.00000000 23394.66992188  2212741.25000000 1758380.00000000 
0.08100    53518728.00000000 33900816.00000000 85185680.00000000 22816.13281250  2161550.25000000 1717720.12500000 
0.08200    52438680.00000000 33220428.00000000 83471080.00000000 22256.10742188  2111820.50000000 1678211.37500000 
0.08300    51384904.00000000 32556066.00000000 81798320.00000000 21714.19140625  2063521.12500000 1639829.87500000 
0.08400    50357316.00000000 31908026.00000000 80166096.00000000 21190.07812500  2016618.37500000 1602556.25000000 
0.08500    49355360.00000000 31276048.00000000 78574384.00000000 20682.83984375  1971089.25000000 1566365.62500000 
0.08600    48378956.00000000 30660028.00000000 77022216.00000000 20191.99218750  1926874.37500000 1531213.00000000 
0.08700    47427396.00000000 30059586.00000000 75511168.00000000 19716.86914062  1883970.75000000 1497107.75000000 
0.08800    46500900.00000000 29474492.00000000 74038400.00000000 19257.03906250  1842325.75000000 1463990.37500000 
0.08900    45598664.00000000 28904608.00000000 72604304.00000000 18811.81054688  1801906.00000000 1431834.87500000 
0.09000    44720044.00000000 28349816.00000000 71207368.00000000 18380.58789062  1762666.62500000 1400625.75000000 
0.09100    43864740.00000000 27809714.00000000 69848592.00000000 17962.83984375  1724576.75000000 1370329.75000000 
0.09200    43032584.00000000 27284196.00000000 68525504.00000000 17557.88281250  1687612.12500000 1340924.50000000 
0.09300    42222952.00000000 26772432.00000000 67238728.00000000 17165.47851562  1651727.62500000 1312372.62500000 
0.09400    41435236.00000000 26274718.00000000 65985508.00000000 16784.82031250  1616874.75000000 1284637.12500000 
0.09500    40668884.00000000 25790554.00000000 64767860.00000000 16415.51562500  1583017.12500000 1257715.75000000 
0.09600    39923668.00000000 25319478.00000000 63582308.00000000 16057.06640625  1550146.62500000 1231554.87500000 
0.09700    39198868.00000000 24861568.00000000 62429952.00000000 15708.91894531  1518216.62500000 1206128.37500000 
0.09800    38493852.00000000 24416120.00000000 61309284.00000000 15370.62402344  1487177.75000000 1181436.62500000 
0.09900    37808660.00000000 23983256.00000000 60219840.00000000 15041.76171875  1457013.12500000 1157437.12500000 
0.10000    37141868.00000000 23562198.00000000 59159852.00000000 14721.82226562  1427671.50000000 1134086.37500000 
0.10100    36493336.00000000 23152636.00000000 58129440.00000000 14410.41015625  1399132.12500000 1111382.62500000 
0.10200    35862980.00000000 22754538.00000000 57127120.00000000 14107.30859375  1371367.87500000 1089286.12500000 
0.10300    35249700.00000000 22367218.00000000 56152256.00000000 13811.83886719  1344336.25000000 1067783.25000000 
0.10400    34653092.00000000 21990892.00000000 55204428.00000000 13523.81542969  1318011.00000000 1046845.06250000 
0.10500    34072704.00000000 21624940.00000000 54282700.00000000 13242.97949219  1292367.50000000 1026441.50000000 
0.10600    33507954.00000000 21268614.00000000 53385328.00000000 12968.71093750  1267371.62500000 1006562.00000000 
0.10700    32958518.00000000 20922286.00000000 52512748.00000000 12700.91308594  1242995.37500000 987176.75000000 
0.10800    32423366.00000000 20584970.00000000 51662904.00000000 12439.27929688  1219208.75000000 968271.00000000 
0.10900    31902468.00000000 20256910.00000000 50835896.00000000 12183.50878906  1195998.75000000 949806.62500000 
0.11000    31395064.00000000 19937618.00000000 50030616.00000000 11933.26855469  1173333.50000000 931785.06250000 
0.11100    30900790.00000000 19626498.00000000 49246456.00000000 11688.48046875  1151188.12500000 914176.25000000 
0.11200    30419160.00000000 19323454.00000000 48482164.00000000 11448.58691406  1129537.00000000 896966.43750000 
0.11300    29949606.00000000 19028216.00000000 47737528.00000000 11213.69921875  1108358.25000000 880137.37500000 
0.11400    29491552.00000000 18740484.00000000 47011420.00000000 10983.58984375  1087632.12500000 863678.62500000 
0.11500    29044740.00000000 18460026.00000000 46303144.00000000 10757.81250000  1067354.75000000 847562.56250000 
0.11600    28608496.00000000 18186220.00000000 45611856.00000000 10536.48144531  1047478.81250000 831784.43750000 
0.11700    28182846.00000000 17919196.00000000 44937564.00000000 10319.27148438  1028007.87500000 816319.43750000 
0.11800    27766682.00000000 17658352.00000000 44278348.00000000 10105.99316406  1008917.81250000 801150.12500000 
0.11900    27359778.00000000 17403652.00000000 43634608.00000000 9896.66406250   990177.68750000 786279.75000000 
0.12000    26962244.00000000 17154664.00000000 43004912.00000000 9690.94042969   971797.50000000 771682.43750000 
0.12100    26573144.00000000 16911266.00000000 42389136.00000000 9488.89746094   953751.68750000 757360.37500000 
0.12200    26192052.00000000 16673191.00000000 41786580.00000000 9290.29882812   936017.87500000 743286.87500000 
0.12300    25818806.00000000 16439934.00000000 41196200.00000000 9095.10449219   918590.18750000 729456.50000000 
0.12400    25453064.00000000 16211440.00000000 40617940.00000000 8903.13574219   901452.00000000 715863.43750000 
0.12500    25094378.00000000 15987580.00000000 40051196.00000000 8714.37109375   884591.43750000 702487.50000000 
0.12600    24742478.00000000 15768041.00000000 39494936.00000000 8528.76464844   868008.18750000 689331.18750000 
0.12700    24396966.00000000 15552537.00000000 38949244.00000000 8346.00097656   851682.43750000 676382.62500000 
0.12800    24057332.00000000 15340983.00000000 38412948.00000000 8166.27343750   835602.93750000 663629.18750000 
0.12900    23723784.00000000 15133099.00000000 37885908.00000000 7989.43603516   819758.25000000 651064.81250000 
0.13000    23395488.00000000 14928816.00000000 37367684.00000000 7815.38183594   804150.37500000 638695.75000000 
0.13100    23072402.00000000 14727622.00000000 36857864.00000000 7643.98193359   788760.62500000 626491.00000000 
0.13200    22754312.00000000 14529792.00000000 36355828.00000000 7475.37353516   773585.68750000 614462.68750000 
0.13300    22440914.00000000 14334644.00000000 35861480.00000000 7309.37500000   758617.50000000 602599.62500000 
0.13400    22131928.00000000 14142513.00000000 35373844.00000000 7145.93945312   743853.06250000 590891.50000000 
0.13500    21826992.00000000 13952999.00000000 34892720.00000000 6985.04492188   729279.18750000 579339.56250000 
0.13600    21526032.00000000 13765945.00000000 34418568.00000000 6826.65039062   714896.81250000 567946.25000000 
0.13700    21229010.00000000 13581293.00000000 33949708.00000000 6670.71826172   700695.18750000 556683.50000000 
0.13800    20935280.00000000 13398732.00000000 33486838.00000000 6517.22998047   686672.06250000 545573.87500000 
0.13900    20645318.00000000 13218483.00000000 33028968.00000000 6366.14599609   672825.68750000 534601.31250000 
0.14000    20358088.00000000 13040103.00000000 32576430.00000000 6217.39794922   659145.37500000 523759.43750000 
0.14100    20074270.00000000 12863569.00000000 32128582.00000000 6070.99365234   645638.25000000 513055.93750000 
0.14200    19793000.00000000 12688909.00000000 31685092.00000000 5926.88623047   632289.50000000 502477.75000000 
0.14300    19514774.00000000 12515797.00000000 31246126.00000000 5785.11328125   619098.93750000 492026.53125000 
0.14400    19238970.00000000 12344228.00000000 30810948.00000000 5645.55908203   606071.25000000 481696.00000000 
0.14500    18965618.00000000 12174387.00000000 30379882.00000000 5508.30859375   593195.37500000 471494.62500000 
0.14600    18694778.00000000 12005922.00000000 29952332.00000000 5373.29687500   580471.50000000 461411.84375000 
0.14700    18426308.00000000 11838630.00000000 29528566.00000000 5240.57226562   567907.75000000 451450.37500000 
0.14800    18159638.00000000 11672764.00000000 29107872.00000000 5109.97070312   555486.12500000 441601.96875000 
0.14900    17895272.00000000 11508216.00000000 28690658.00000000 4981.64355469   543221.31250000 431874.37500000 
0.15000    17632888.00000000 11344721.00000000 28276352.00000000 4855.50585938   531102.43750000 422264.84375000 
0.15100    17372572.00000000 11182434.00000000 27865192.00000000 4731.53076172   519125.34375000 412768.93750000 
0.15200    17114172.00000000 11021301.00000000 27456966.00000000 4609.86914062   507303.90625000 403393.46875000 
0.15300    16857684.00000000 10861235.00000000 27051720.00000000 4490.32177734   495624.34375000 394126.37500000 
0.15400    16602863.00000000 10702091.00000000 26648856.00000000 4373.01904297   484092.78125000 384980.65625000 
0.15500    16350017.00000000 10544142.00000000 26249092.00000000 4257.96484375   472713.21875000 375947.09375000 
0.15600    16098882.00000000 10387086.00000000 25851810.00000000 4145.08203125   461476.71875000 367029.53125000 
0.15700    15849459.00000000 10231209.00000000 25457106.00000000 4034.47949219   450392.37500000 358231.37500000 
0.15800    15601834.00000000 10076111.00000000 25065260.00000000 3926.06542969   439453.43750000 349545.50000000 
0.15900    15355894.00000000 9922152.00000000 24676046.00000000 3819.94531250   428667.87500000 340978.78125000 
0.16000    15111796.00000000 9769004.00000000 24289202.00000000 3716.05346680   418034.31250000 332530.00000000 
0.16100    14869441.00000000 9617063.00000000 23905384.00000000 3614.50146484   407557.65625000 324205.09375000 
0.16200    14628975.00000000 9466060.00000000 23524186.00000000 3515.19165039   397230.00000000 315996.06250000 
0.16300    14390209.00000000 9316073.00000000 23145856.00000000 3418.20312500   387058.81250000 307908.87500000 
0.16400    14153291.00000000 9167068.00000000 22769986.00000000 3323.50830078   377050.37500000 299945.56250000 
0.16500    13918279.00000000 9019167.00000000 22397172.00000000 3231.19287109   367194.37500000 292103.46875000 
0.16600    13685128.00000000 8872454.00000000 22027154.00000000 3141.22973633   357503.18750000 284392.21875000 
0.16700    13454064.00000000 8726726.00000000 21659906.00000000 3053.58081055   347972.09375000 276799.43750000 
0.16800    13224850.00000000 8582081.00000000 21295862.00000000 2968.32397461   338604.78125000 269334.65625000 
0.16900    12997851.00000000 8438687.00000000 20934956.00000000 2885.49536133   329406.90625000 262005.70312500 
0.17000    12772775.00000000 8296428.50000000 20577116.00000000 2805.06347656   320373.00000000 254801.43750000 
