# SAXS profile: number of points = 501, q_min = 0, q_max = 0.5, delta_q = 0.001
#    q    intensity 
0.00000    162238608.00000000 101202056.00000000 256271264.00000000 112003.04687500 8525582.00000000 6733460.50000000 
0.00100    162207136.00000000 101181552.00000000 256220144.00000000 111975.41406250 8523623.00000000 6731983.50000000 
0.00200    162110656.00000000 101121376.00000000 256066832.00000000 111892.72656250 8517898.00000000 6727419.50000000 
0.00300    161949040.00000000 101020544.00000000 255810752.00000000 111755.22656250 8508361.00000000 6719958.00000000 
0.00400    161721200.00000000 100880688.00000000 255454448.00000000 111562.53906250 8495049.00000000 6709475.00000000 
0.00500    161428016.00000000 100700312.00000000 254995792.00000000 111316.16406250 8477825.00000000 6696011.50000000 
0.00600    161071168.00000000 100480568.00000000 254435360.00000000 111014.99218750 8456982.00000000 6679605.00000000 
0.00700    160650560.00000000 100220776.00000000 253773728.00000000 110660.23437500 8432362.00000000 6660211.00000000 
0.00800    160165840.00000000 99922896.00000000 253015216.00000000 110252.61718750 8404026.00000000 6637964.00000000 
0.00900    159617760.00000000 99586152.00000000 252158256.00000000 109792.70312500 8372037.50000000 6612845.50000000 
0.01000    159009120.00000000 99211464.00000000 251202592.00000000 109279.96875000 8336460.50000000 6584851.00000000 
0.01100    158339680.00000000 98798416.00000000 250151584.00000000 108716.69531250 8297257.00000000 6554071.50000000 
0.01200    157611344.00000000 98349352.00000000 249005264.00000000 108102.39843750 8254606.50000000 6520537.50000000 
0.01300    156824720.00000000 97862736.00000000 247766032.00000000 107439.50781250 8208420.50000000 6484269.00000000 
0.01400    155976912.00000000 97339712.00000000 246435472.00000000 106727.73437500 8158931.50000000 6445304.00000000 
0.01500    155069456.00000000 96781752.00000000 245013792.00000000 105968.55468750 8106040.50000000 6403794.00000000 
0.01600    154108400.00000000 96188768.00000000 243503760.00000000 105162.73437500 8049931.00000000 6359668.00000000 
0.01700    153092528.00000000 95562024.00000000 241907776.00000000 104312.03125000 7990574.50000000 6313028.50000000 
0.01800    152022000.00000000 94901800.00000000 240226288.00000000 103417.24218750 7928160.50000000 6263981.50000000 
0.01900    150899840.00000000 94209000.00000000 238462608.00000000 102479.47656250 7862691.50000000 6212515.00000000 
0.02000    149724720.00000000 93485240.00000000 236618848.00000000 101500.06250000 7794313.50000000 6158749.50000000 
0.02100    148501152.00000000 92730480.00000000 234696752.00000000 100480.85937500 7723052.00000000 6102761.00000000 
0.02200    147229872.00000000 91945856.00000000 232697824.00000000 99422.86718750  7649053.00000000 6044570.00000000 
0.02300    145910992.00000000 91132272.00000000 230627216.00000000 98327.34375000  7572369.00000000 5984298.50000000 
0.02400    144546416.00000000 90290128.00000000 228483088.00000000 97196.25000000  7493140.00000000 5921993.50000000 
0.02500    143139328.00000000 89422504.00000000 226272224.00000000 96031.56250000  7411415.00000000 5857758.00000000 
0.02600    141689520.00000000 88527672.00000000 223995296.00000000 94833.36718750  7327333.00000000 5791655.50000000 
0.02700    140200672.00000000 87608728.00000000 221653824.00000000 93604.82031250  7241049.50000000 5723751.50000000 
0.02800    138672160.00000000 86664880.00000000 219253104.00000000 92346.14843750  7152565.00000000 5654192.50000000 
0.02900    137106560.00000000 85699136.00000000 216793904.00000000 91060.01562500  7062028.00000000 5583001.50000000 
0.03000    135507520.00000000 84711640.00000000 214280096.00000000 89747.61718750  6969585.50000000 5510344.50000000 
0.03100    133874240.00000000 83703440.00000000 211714016.00000000 88411.73437500  6875318.50000000 5436196.50000000 
0.03200    132210296.00000000 82675840.00000000 209098752.00000000 87052.50000000  6779351.50000000 5360719.00000000 
0.03300    130516880.00000000 81630440.00000000 206437712.00000000 85672.46093750  6681802.00000000 5283971.50000000 
0.03400    128796480.00000000 80567336.00000000 203732528.00000000 84273.36718750  6582800.00000000 5206078.00000000 
0.03500    127049584.00000000 79488688.00000000 200987104.00000000 82856.73437500  6482426.50000000 5127132.50000000 
0.03600    125279912.00000000 78395176.00000000 198204848.00000000 81425.08593750  6380808.00000000 5047186.00000000 
0.03700    123487480.00000000 77288256.00000000 195388208.00000000 79978.77343750  6278042.50000000 4966343.00000000 
0.03800    121676352.00000000 76169104.00000000 192540480.00000000 78519.71875000  6174304.50000000 4884696.00000000 
0.03900    119847120.00000000 75037584.00000000 189663360.00000000 77051.39843750  6069653.50000000 4802358.50000000 
0.04000    118001144.00000000 73897048.00000000 186761008.00000000 75573.59375000  5964255.50000000 4719420.50000000 
0.04100    116141784.00000000 72747792.00000000 183837648.00000000 74089.25781250  5858174.50000000 4635930.50000000 
0.04200    114270208.00000000 71591088.00000000 180893392.00000000 72599.54687500  5751539.00000000 4552001.50000000 
0.04300    112388496.00000000 70427688.00000000 177934784.00000000 71105.95312500  5644512.50000000 4467738.00000000 
0.04400    110498696.00000000 69258808.00000000 174962592.00000000 69610.42187500  5537178.50000000 4383241.00000000 
0.04500    108601904.00000000 68085968.00000000 171977872.00000000 68114.43750000  5429626.50000000 4298544.50000000 
0.04600    106700024.00000000 66909188.00000000 168986736.00000000 66619.50781250  5321956.00000000 4213751.50000000 
0.04700    104796408.00000000 65730828.00000000 165991504.00000000 65127.60937500  5214287.50000000 4128973.75000000 
0.04800    102890792.00000000 64551784.00000000 162993536.00000000 63639.38671875  5106734.00000000 4044293.50000000 
0.04900    100986608.00000000 63372840.00000000 159997088.00000000 62157.43359375  4999441.00000000 3959771.25000000 
0.05000    99084832.00000000 62195572.00000000 157004112.00000000 60682.25781250  4892429.00000000 3875477.75000000 
0.05100    97186832.00000000 61020688.00000000 154017328.00000000 59215.88671875  4785827.50000000 3791510.75000000 
0.05200    95294984.00000000 59849144.00000000 151039616.00000000 57759.67187500  4679756.50000000 3707947.00000000 
0.05300    93410760.00000000 58681736.00000000 148073152.00000000 56314.17968750  4574309.00000000 3624838.00000000 
0.05400    91535296.00000000 57519556.00000000 145120512.00000000 54881.80859375  4469542.00000000 3542268.75000000 
0.05500    89670368.00000000 56364196.00000000 142184800.00000000 53462.84765625  4365565.50000000 3460332.75000000 
0.05600    87817432.00000000 55215744.00000000 139267536.00000000 52058.85156250  4262481.50000000 3379036.75000000 
0.05700    85978712.00000000 54075860.00000000 136370848.00000000 50671.13671875  4160330.25000000 3298527.75000000 
0.05800    84154728.00000000 52944536.00000000 133497816.00000000 49300.17578125  4059193.25000000 3218806.75000000 
0.05900    82346896.00000000 51823468.00000000 130650544.00000000 47947.78515625  3959203.75000000 3139929.50000000 
0.06000    80556536.00000000 50712952.00000000 127830976.00000000 46613.91406250  3860348.00000000 3061987.25000000 
0.06100    78785352.00000000 49613752.00000000 125040264.00000000 45300.58593750  3762772.50000000 2985002.75000000 
0.06200    77034032.00000000 48527060.00000000 122281024.00000000 44007.92578125  3666506.50000000 2909060.75000000 
0.06300    75304520.00000000 47453216.00000000 119554360.00000000 42737.03515625  3571596.25000000 2834177.50000000 
0.06400    73596248.00000000 46392556.00000000 116862680.00000000 41488.33984375  3478133.50000000 2760396.25000000 
0.06500    71911736.00000000 45346516.00000000 114207720.00000000 40262.88671875  3386145.25000000 2687825.50000000 
0.06600    70252272.00000000 44315012.00000000 111591096.00000000 39060.86718750  3295682.75000000 2616394.50000000 
0.06700    68617072.00000000 43299288.00000000 109012848.00000000 37883.20312500  3206827.25000000 2546239.00000000 
0.06800    67008332.00000000 42299164.00000000 106476248.00000000 36730.72265625  3119575.50000000 2477336.50000000 
0.06900    65426680.00000000 41315812.00000000 103981704.00000000 35602.91406250  3034002.00000000 2409752.75000000 
0.07000    63872752.00000000 40349264.00000000 101530664.00000000 34500.95703125  2950114.00000000 2343482.50000000 
0.07100    62347112.00000000 39400276.00000000 99123456.00000000 33424.94140625  2867963.50000000 2278586.25000000 
0.07200    60850164.00000000 38468744.00000000 96762008.00000000 32375.28125000  2787564.00000000 2215054.50000000 
0.07300    59383400.00000000 37555596.00000000 94446848.00000000 31352.08203125  2708945.50000000 2152926.00000000 
0.07400    57946052.00000000 36660920.00000000 92178976.00000000 30355.64843750  2632155.25000000 2092222.62500000 
0.07500    56539452.00000000 35784700.00000000 89958408.00000000 29386.06054688  2557187.00000000 2032941.62500000 
0.07600    55163988.00000000 34927504.00000000 87786472.00000000 28443.22851562  2484046.50000000 1975086.87500000 
0.07700    53819536.00000000 34089952.00000000 85663304.00000000 27527.30664062  2412755.25000000 1918695.50000000 
0.07800    52506308.00000000 33270938.00000000 83590032.00000000 26638.56250000  2343301.50000000 1863765.12500000 
0.07900    51225416.00000000 32472162.00000000 81565864.00000000 25776.46484375  2275754.00000000 1810290.37500000 
0.08000    49976044.00000000 31692684.00000000 79592712.00000000 24941.11718750  2210044.25000000 1758271.62500000 
0.08100    48758932.00000000 30933072.00000000 77669648.00000000 24132.45703125  2146185.50000000 1707725.87500000 
0.08200    47573680.00000000 30193120.00000000 75796176.00000000 23350.07617188  2084172.87500000 1658627.87500000 
0.08300    46420856.00000000 29473128.00000000 73974136.00000000 22593.94140625  2024028.12500000 1610972.00000000 
0.08400    45299812.00000000 28772722.00000000 72202040.00000000 21863.74609375  1965695.50000000 1564768.75000000 
0.08500    44211072.00000000 28092210.00000000 70480304.00000000 21159.11523438  1909204.50000000 1519998.00000000 
0.08600    43154072.00000000 27431364.00000000 68808040.00000000 20479.69726562  1854517.62500000 1476638.50000000 
0.08700    42128904.00000000 26789992.00000000 67186016.00000000 19825.22070312  1801612.12500000 1434696.87500000 
0.08800    41135160.00000000 26168090.00000000 65613968.00000000 19195.23046875  1750477.00000000 1394133.75000000 
0.08900    40172360.00000000 25565624.00000000 64090728.00000000 18589.23828125  1701076.25000000 1354951.87500000 
0.09000    39240816.00000000 24982046.00000000 62615408.00000000 18006.90429688  1653408.25000000 1317114.12500000 
0.09100    38339604.00000000 24417500.00000000 61188976.00000000 17447.51562500  1607416.75000000 1280613.75000000 
0.09200    37468508.00000000 23871494.00000000 59809804.00000000 16910.76757812  1563098.62500000 1245417.25000000 
0.09300    36627444.00000000 23344106.00000000 58477308.00000000 16396.01367188  1520400.62500000 1211499.50000000 
0.09400    35815424.00000000 22834718.00000000 57190548.00000000 15902.89550781  1479297.62500000 1178846.37500000 
0.09500    35032212.00000000 22343152.00000000 55949740.00000000 15430.65625000  1439762.62500000 1147426.75000000 
0.09600    34277280.00000000 21869338.00000000 54753280.00000000 14978.77050781  1401756.62500000 1117203.75000000 
0.09700    33550348.00000000 21412670.00000000 53600812.00000000 14546.58300781  1365231.37500000 1088164.12500000 
0.09800    32850564.00000000 20972834.00000000 52491124.00000000 14133.57519531  1330166.75000000 1060260.37500000 
0.09900    32177434.00000000 20549546.00000000 51423596.00000000 13739.16308594  1296512.00000000 1033482.31250000 
0.10000    31529976.00000000 20142402.00000000 50396752.00000000 13362.58398438  1264224.62500000 1007773.87500000 
0.10100    30908158.00000000 19751046.00000000 49409616.00000000 13003.35742188  1233273.62500000 983124.87500000 
0.10200    30310830.00000000 19375046.00000000 48461604.00000000 12660.60546875  1203621.62500000 959492.81250000 
0.10300    29737814.00000000 19013928.00000000 47551672.00000000 12334.09082031  1175201.50000000 936845.62500000 
0.10400    29187898.00000000 18667332.00000000 46678500.00000000 12022.69335938  1147988.37500000 915152.12500000 
0.10500    28660862.00000000 18334922.00000000 45841380.00000000 11726.22363281  1121947.75000000 894382.81250000 
0.10600    28155144.00000000 18016116.00000000 45038300.00000000 11443.70507812  1097016.00000000 874485.31250000 
0.10700    27671088.00000000 17710524.00000000 44268864.00000000 11174.68847656  1073165.00000000 855445.18750000 
0.10800    27207600.00000000 17417930.00000000 43531836.00000000 10918.61718750  1050342.87500000 837220.12500000 
0.10900    26763632.00000000 17137472.00000000 42826164.00000000 10674.66113281  1028507.25000000 819777.25000000 
0.11000    26338710.00000000 16868862.00000000 42150176.00000000 10442.38867188  1007620.56250000 803085.37500000 
0.11100    25931998.00000000 16611736.00000000 41503036.00000000 10221.01562500  987635.37500000 787109.43750000 
0.11200    25542698.00000000 16365465.00000000 40883732.00000000 10010.07714844  968513.68750000 771810.68750000 
0.11300    25170232.00000000 16129812.00000000 40290888.00000000 9809.05371094   950203.00000000 757163.18750000 
0.11400    24813930.00000000 15904109.00000000 39723612.00000000 9617.20898438   932676.81250000 743137.18750000 
0.11500    24472838.00000000 15688010.00000000 39180380.00000000 9434.15332031   915887.37500000 729687.87500000 
0.11600    24146210.00000000 15481108.00000000 38660280.00000000 9259.28320312   899789.93750000 716795.93750000 
0.11700    23833460.00000000 15282848.00000000 38162132.00000000 9092.02441406   884351.25000000 704427.81250000 
0.11800    23533550.00000000 15092799.00000000 37684696.00000000 8931.84472656   869522.37500000 692546.50000000 
0.11900    23246306.00000000 14910506.00000000 37226660.00000000 8778.36718750   855284.75000000 681128.93750000 
0.12000    22970642.00000000 14735569.00000000 36787568.00000000 8631.06738281   841578.06250000 670143.50000000 
0.12100    22706000.00000000 14567783.00000000 36365756.00000000 8489.51953125   828391.87500000 659569.56250000 
0.12200    22451654.00000000 14406383.00000000 35960408.00000000 8353.14941406   815672.31250000 649361.50000000 
0.12300    22207034.00000000 14251081.00000000 35570544.00000000 8221.68554688   803402.37500000 639512.50000000 
0.12400    21971442.00000000 14101565.00000000 35195060.00000000 8094.62207031   791531.25000000 629983.93750000 
0.12500    21744124.00000000 13957292.00000000 34832608.00000000 7971.64990234   780035.00000000 620756.56250000 
0.12600    21524690.00000000 13817948.00000000 34482864.00000000 7852.41894531   768886.93750000 611810.43750000 
0.12700    21312454.00000000 13683257.00000000 34144468.00000000 7736.50000000   758053.37500000 603114.81250000 
0.12800    21106696.00000000 13552673.00000000 33816452.00000000 7623.51904297   747507.93750000 594652.75000000 
0.12900    20907086.00000000 13425939.00000000 33498486.00000000 7513.31542969   737226.25000000 586403.37500000 
0.13000    20713008.00000000 13302872.00000000 33188984.00000000 7405.50585938   727192.18750000 578342.93750000 
0.13100    20523832.00000000 13182835.00000000 32887738.00000000 7299.82226562   717357.43750000 570450.00000000 
0.13200    20339166.00000000 13065758.00000000 32593408.00000000 7196.05029297   707719.93750000 562714.75000000 
0.13300    20158538.00000000 12951233.00000000 32305602.00000000 7093.94921875   698251.93750000 555121.75000000 
0.13400    19981224.00000000 12838899.00000000 32023362.00000000 6993.24755859   688931.37500000 547645.68750000 
0.13500    19807162.00000000 12728639.00000000 31746100.00000000 6893.77685547   679745.37500000 540275.56250000 
0.13600    19635844.00000000 12620125.00000000 31473114.00000000 6795.36474609   670667.87500000 532999.43750000 
0.13700    19466598.00000000 12513097.00000000 31203916.00000000 6697.82519531   661689.37500000 525801.62500000 
0.13800    19299340.00000000 12407257.00000000 30937824.00000000 6600.97802734   652789.75000000 518668.28125000 
0.13900    19133662.00000000 12302479.00000000 30674194.00000000 6504.76074219   643957.81250000 511592.96875000 
0.14000    18969066.00000000 12198522.00000000 30412566.00000000 6409.03906250   635181.81250000 504561.12500000 
0.14100    18805478.00000000 12095117.00000000 30152472.00000000 6313.62207031   626450.06250000 497569.12500000 
0.14200    18642496.00000000 11992183.00000000 29893052.00000000 6218.52832031   617751.50000000 490606.15625000 
0.14300    18479750.00000000 11889494.00000000 29634532.00000000 6123.59033203   609075.56250000 483660.62500000 
0.14400    18317084.00000000 11786861.00000000 29375886.00000000 6028.81884766   600406.25000000 476728.43750000 
0.14500    18154220.00000000 11684158.00000000 29117326.00000000 5934.13769531   591754.43750000 469805.87500000 
0.14600    17991032.00000000 11581273.00000000 28858042.00000000 5839.51611328   583100.62500000 462887.81250000 
0.14700    17827294.00000000 11478146.00000000 28598024.00000000 5744.89160156   574444.68750000 455970.18750000 
0.14800    17662890.00000000 11374495.00000000 28336806.00000000 5650.24462891   565777.25000000 449042.43750000 
0.14900    17497464.00000000 11270367.00000000 28074040.00000000 5555.57714844   557094.87500000 442107.34375000 
0.15000    17331076.00000000 11165481.00000000 27809856.00000000 5460.87988281   548403.62500000 435162.56250000 
0.15100    17163352.00000000 11059941.00000000 27543882.00000000 5366.18066406   539692.18750000 428206.90625000 
0.15200    16994616.00000000 10953685.00000000 27276024.00000000 5271.51269531   530967.62500000 421242.50000000 
0.15300    16824500.00000000 10846653.00000000 27006014.00000000 5176.88134766   522221.75000000 414261.28125000 
0.15400    16652934.00000000 10738663.00000000 26733470.00000000 5082.26953125   513458.15625000 407264.28125000 
0.15500    16479986.00000000 10629757.00000000 26459098.00000000 4987.75000000   504677.18750000 400260.56250000 
0.15600    16305442.00000000 10519862.00000000 26182020.00000000 4893.40429688   495882.12500000 393240.68750000 
0.15700    16129471.00000000 10409101.00000000 25902756.00000000 4799.24755859   487076.75000000 386213.84375000 
0.15800    15951879.00000000 10297291.00000000 25620846.00000000 4705.24804688   478255.90625000 379178.31250000 
0.15900    15772834.00000000 10184560.00000000 25336562.00000000 4611.58740234   469427.75000000 372138.43750000 
0.16000    15592146.00000000 10070795.00000000 25049824.00000000 4518.23535156   460595.75000000 365092.43750000 
0.16100    15410169.00000000 9956180.00000000 24760892.00000000 4425.29443359   451768.06250000 358051.03125000 
0.16200    15226692.00000000 9840593.00000000 24469666.00000000 4332.81054688   442939.84375000 351013.09375000 
0.16300    15041823.00000000 9724029.00000000 24175990.00000000 4240.84570312   434117.87500000 343978.28125000 
0.16400    14855490.00000000 9606658.00000000 23880162.00000000 4149.44482422   425313.06250000 336958.40625000 
0.16500    14668031.00000000 9488377.00000000 23582314.00000000 4058.72485352   416526.15625000 329952.06250000 
0.16600    14479328.00000000 9369385.00000000 23282484.00000000 3968.69018555   407762.62500000 322961.34375000 
0.16700    14289447.00000000 9249563.00000000 22980852.00000000 3879.39208984   399025.18750000 315994.62500000 
0.16800    14098534.00000000 9129084.00000000 22677440.00000000 3790.92993164   390319.90625000 309053.37500000 
0.16900    13906802.00000000 9008024.00000000 22372614.00000000 3703.41137695   381657.78125000 302145.75000000 
0.17000    13714108.00000000 8886316.00000000 22066320.00000000 3616.81274414   373039.87500000 295273.96875000 
