# SAXS profile: number of points = 501, q_min = 0, q_max = 0.5, delta_q = 0.001
#    q    intensity 
0.00000    162236880.00000000 101201808.00000000 256271488.00000000 91176.47656250  7692169.00000000 6075293.00000000 
0.00100    162207040.00000000 101182312.00000000 256222080.00000000 91154.39062500  7690526.50000000 6073950.00000000 
0.00200    162115840.00000000 101125792.00000000 256076320.00000000 91087.91406250  7685503.00000000 6070020.00000000 
0.00300    161961984.00000000 101029768.00000000 255833488.00000000 90978.37500000  7677175.00000000 6063492.50000000 
0.00400    161744864.00000000 100896632.00000000 255492480.00000000 90824.53125000  7665532.00000000 6054342.00000000 
0.00500    161466272.00000000 100724448.00000000 255054816.00000000 90627.71875000  7650617.50000000 6042629.00000000 
0.00600    161126144.00000000 100515384.00000000 254521360.00000000 90387.89843750  7632387.00000000 6028351.00000000 
0.00700    160724288.00000000 100268256.00000000 253892848.00000000 90104.61718750  7610980.50000000 6011478.00000000 
0.00800    160262720.00000000 99984432.00000000 253169312.00000000 89779.35937500  7586317.00000000 5992133.00000000 
0.00900    159739104.00000000 99664184.00000000 252353136.00000000 89412.06250000  7558454.50000000 5970258.00000000 
0.01000    159158896.00000000 99307568.00000000 251442896.00000000 89004.06250000  7527453.50000000 5945932.00000000 
0.01100    158522032.00000000 98915176.00000000 250441248.00000000 88554.62500000  7493381.50000000 5919150.50000000 
0.01200    157828496.00000000 98487376.00000000 249351408.00000000 88065.57031250  7456238.50000000 5889994.50000000 
0.01300    157077392.00000000 98024904.00000000 248172256.00000000 87537.61718750  7416093.50000000 5858466.00000000 
0.01400    156269104.00000000 97527872.00000000 246904448.00000000 86970.61718750  7372999.00000000 5824625.50000000 
0.01500    155406672.00000000 96997352.00000000 245551824.00000000 86367.01562500  7327019.50000000 5788541.00000000 
0.01600    154491248.00000000 96433248.00000000 244115808.00000000 85725.83593750  7278230.00000000 5750215.50000000 
0.01700    153524480.00000000 95837408.00000000 242597744.00000000 85049.17187500  7226685.50000000 5709745.00000000 
0.01800    152505568.00000000 95210144.00000000 240999424.00000000 84338.26562500  7172443.50000000 5667132.00000000 
0.01900    151437840.00000000 94552560.00000000 239322448.00000000 83593.64843750  7115626.00000000 5622506.50000000 
0.02000    150320496.00000000 93865112.00000000 237569264.00000000 82815.89062500  7056274.50000000 5575873.00000000 
0.02100    149156768.00000000 93147864.00000000 235740944.00000000 82008.07031250  6994449.00000000 5527308.00000000 
0.02200    147947088.00000000 92402712.00000000 233843504.00000000 81168.65625000  6930261.50000000 5476941.50000000 
0.02300    146693632.00000000 91630536.00000000 231874864.00000000 80300.61718750  6863829.50000000 5424704.50000000 
0.02400    145396640.00000000 90832040.00000000 229840848.00000000 79405.72656250  6795190.50000000 5370768.00000000 
0.02500    144059360.00000000 90008576.00000000 227741648.00000000 78483.33593750  6724449.00000000 5315135.50000000 
0.02600    142682688.00000000 89159952.00000000 225579232.00000000 77536.19531250  6651664.50000000 5257980.50000000 
0.02700    141268880.00000000 88288008.00000000 223357872.00000000 76565.65625000  6576979.00000000 5199315.50000000 
0.02800    139817680.00000000 87393904.00000000 221081360.00000000 75572.55468750  6500490.00000000 5139192.00000000 
0.02900    138333328.00000000 86478648.00000000 218749440.00000000 74558.26562500  6422284.50000000 5077704.00000000 
0.03000    136816224.00000000 85542792.00000000 216365808.00000000 73523.89843750  6342443.00000000 5014953.50000000 
0.03100    135267584.00000000 84587472.00000000 213934544.00000000 72471.41406250  6261105.50000000 4950986.00000000 
0.03200    133690608.00000000 83615048.00000000 211456272.00000000 71402.04687500  6178325.00000000 4885919.00000000 
0.03300    132086240.00000000 82624592.00000000 208935104.00000000 70317.28906250  6094234.50000000 4819799.50000000 
0.03400    130456072.00000000 81618744.00000000 206374528.00000000 69218.50000000  6008882.00000000 4752696.50000000 
0.03500    128802200.00000000 80598480.00000000 203776240.00000000 68107.23437500  5922487.00000000 4684706.50000000 
0.03600    127126984.00000000 79563704.00000000 201142416.00000000 66984.08593750  5835041.00000000 4615947.00000000 
0.03700    125430880.00000000 78516792.00000000 198477952.00000000 65851.63281250  5746676.00000000 4546469.50000000 
0.03800    123718224.00000000 77458600.00000000 195784288.00000000 64710.67968750  5657527.00000000 4476315.00000000 
0.03900    121988128.00000000 76390024.00000000 193065456.00000000 63562.68359375  5567654.00000000 4405639.00000000 
0.04000    120243296.00000000 75312136.00000000 190322480.00000000 62408.96484375  5477192.50000000 4334419.00000000 
0.04100    118486032.00000000 74226408.00000000 187560768.00000000 61250.94531250  5386177.50000000 4262831.00000000 
0.04200    116718728.00000000 73134192.00000000 184781664.00000000 60089.67187500  5294849.00000000 4190939.25000000 
0.04300    114940592.00000000 72035648.00000000 181986208.00000000 58926.98828125  5203149.00000000 4118757.50000000 
0.04400    113156568.00000000 70932560.00000000 179179008.00000000 57763.71093750  5111238.00000000 4046405.25000000 
0.04500    111366640.00000000 69825352.00000000 176363376.00000000 56601.10546875  5019231.00000000 3973972.25000000 
0.04600    109572488.00000000 68715168.00000000 173540800.00000000 55440.98437500  4927174.00000000 3901493.00000000 
0.04700    107776008.00000000 67603168.00000000 170715056.00000000 54284.24218750  4835176.00000000 3829047.75000000 
0.04800    105979264.00000000 66491516.00000000 167887904.00000000 53131.60546875  4743337.00000000 3756716.00000000 
0.04900    104184128.00000000 65379432.00000000 165061808.00000000 51984.53906250  4651769.50000000 3684581.00000000 
0.05000    102391176.00000000 64269256.00000000 162239888.00000000 50844.02734375  4560520.50000000 3612673.50000000 
0.05100    100602296.00000000 63161268.00000000 159424240.00000000 49711.89453125  4469683.00000000 3541100.25000000 
0.05200    98819952.00000000 62056732.00000000 156617840.00000000 48587.75390625  4379313.00000000 3469881.25000000 
0.05300    97044680.00000000 60956196.00000000 153822096.00000000 47473.73437500  4289523.00000000 3399104.75000000 
0.05400    95276984.00000000 59860744.00000000 151039984.00000000 46370.32031250  4200349.00000000 3328829.75000000 
0.05500    93520432.00000000 58771496.00000000 148272272.00000000 45278.32031250  4111908.00000000 3259088.00000000 
0.05600    91775136.00000000 57688744.00000000 145522576.00000000 44198.68750000  4024248.00000000 3189957.00000000 
0.05700    90043040.00000000 56613784.00000000 142792784.00000000 43132.43359375  3937436.25000000 3121498.00000000 
0.05800    88324768.00000000 55547072.00000000 140085344.00000000 42080.13671875  3851529.25000000 3053725.75000000 
0.05900    86621600.00000000 54489444.00000000 137400144.00000000 41042.43750000  3766587.00000000 2986712.00000000 
0.06000    84934056.00000000 53441948.00000000 134742544.00000000 40020.08203125  3682672.75000000 2920503.50000000 
0.06100    83264584.00000000 52404552.00000000 132110616.00000000 39013.47656250  3599826.75000000 2855114.50000000 
0.06200    81613704.00000000 51378628.00000000 129507080.00000000 38023.64062500  3518111.75000000 2790609.00000000 
0.06300    79982592.00000000 50364448.00000000 126934776.00000000 37050.75390625  3437576.00000000 2727031.25000000 
0.06400    78371072.00000000 49362388.00000000 124393064.00000000 36095.26562500  3358246.00000000 2664392.25000000 
0.06500    76781648.00000000 48373404.00000000 121885256.00000000 35157.67968750  3280161.25000000 2602732.25000000 
0.06600    75214168.00000000 47397680.00000000 119411920.00000000 34238.50781250  3203387.25000000 2542085.50000000 
0.06700    73669032.00000000 46436404.00000000 116974160.00000000 33337.69531250  3127939.75000000 2482450.00000000 
0.06800    72148496.00000000 45489172.00000000 114573760.00000000 32456.03125000  3053822.75000000 2423908.00000000 
0.06900    70651576.00000000 44557008.00000000 112210952.00000000 31593.61132812  2981101.75000000 2366430.75000000 
0.07000    69179784.00000000 43639708.00000000 109887184.00000000 30750.38085938  2909810.75000000 2310065.50000000 
0.07100    67733040.00000000 42737972.00000000 107603392.00000000 29926.69921875  2839933.50000000 2254809.75000000 
0.07200    66312752.00000000 41852216.00000000 105359264.00000000 29122.50781250  2771484.00000000 2200683.50000000 
0.07300    64918632.00000000 40982368.00000000 103156704.00000000 28338.14453125  2704496.75000000 2147702.00000000 
0.07400    63551116.00000000 40129184.00000000 100996104.00000000 27573.50585938  2639001.75000000 2095872.37500000 
0.07500    62210580.00000000 39292352.00000000 98877808.00000000 26828.55859375  2574956.25000000 2045196.00000000 
0.07600    60897264.00000000 38472288.00000000 96802192.00000000 26103.37890625  2512414.50000000 1995698.62500000 
0.07700    59611716.00000000 37669080.00000000 94770120.00000000 25397.58789062  2451337.25000000 1947357.00000000 
0.07800    58353920.00000000 36882896.00000000 92780384.00000000 24711.42578125  2391771.25000000 1900187.37500000 
0.07900    57123540.00000000 36113944.00000000 90835504.00000000 24044.50390625  2333676.00000000 1854183.87500000 
0.08000    55921204.00000000 35362008.00000000 88933696.00000000 23396.71289062  2277061.50000000 1809327.25000000 
0.08100    54747084.00000000 34627424.00000000 87076256.00000000 22767.80468750  2221906.75000000 1765630.87500000 
0.08200    53600416.00000000 33909700.00000000 85261896.00000000 22157.77734375  2168225.50000000 1723085.37500000 
0.08300    52481748.00000000 33209564.00000000 83491088.00000000 21565.97656250  2115959.00000000 1681678.37500000 
0.08400    51390764.00000000 32526220.00000000 81764192.00000000 20992.38085938  2065153.87500000 1641400.25000000 
0.08500    50327528.00000000 31860028.00000000 80081104.00000000 20436.62500000  2015759.25000000 1602233.25000000 
0.08600    49290976.00000000 31210720.00000000 78440688.00000000 19898.30664062  1967754.37500000 1564165.87500000 
0.08700    48282184.00000000 30578220.00000000 76842696.00000000 19377.02929688  1921143.12500000 1527186.50000000 
0.08800    47300052.00000000 29962372.00000000 75287104.00000000 18872.67382812  1875868.00000000 1491263.25000000 
0.08900    46344624.00000000 29362916.00000000 73772672.00000000 18384.63476562  1831922.75000000 1456410.37500000 
0.09000    45415112.00000000 28779734.00000000 72300792.00000000 17912.44726562  1789293.37500000 1422576.87500000 
0.09100    44511156.00000000 28212714.00000000 70868896.00000000 17455.77343750  1747946.00000000 1389754.37500000 
0.09200    43633148.00000000 27661404.00000000 69477344.00000000 17014.30273438  1707840.62500000 1357918.87500000 
0.09300    42780236.00000000 27125608.00000000 68125032.00000000 16587.54882812  1668979.50000000 1327048.50000000 
0.09400    41951324.00000000 26605098.00000000 66811424.00000000 16174.99218750  1631286.12500000 1297118.87500000 
0.09500    41146668.00000000 26099516.00000000 65535620.00000000 15776.14160156  1594756.75000000 1268109.50000000 
0.09600    40365876.00000000 25608662.00000000 64297184.00000000 15390.64941406  1559371.50000000 1239998.37500000 
0.09700    39607816.00000000 25132338.00000000 63095192.00000000 15018.02246094  1525079.12500000 1212757.62500000 
0.09800    38872568.00000000 24670038.00000000 61929148.00000000 14657.79394531  1491852.37500000 1186355.87500000 
0.09900    38158964.00000000 24221296.00000000 60797536.00000000 14309.43652344  1459664.37500000 1160767.25000000 
0.10000    37467104.00000000 23786072.00000000 59699824.00000000 13972.73242188  1428463.25000000 1135975.25000000 
0.10100    36795488.00000000 23363800.00000000 58634804.00000000 13646.86816406  1398235.62500000 1111957.12500000 
0.10200    36144652.00000000 22954450.00000000 57602064.00000000 13331.64941406  1368937.25000000 1088662.12500000 
0.10300    35513284.00000000 22557110.00000000 56600152.00000000 13026.42773438  1340541.75000000 1066090.00000000 
0.10400    34900820.00000000 22171896.00000000 55628948.00000000 12730.91894531  1313005.62500000 1044190.31250000 
0.10500    34306840.00000000 21798306.00000000 54686400.00000000 12444.68164062  1286305.00000000 1022962.62500000 
0.10600    33730436.00000000 21435620.00000000 53772084.00000000 12167.22167969  1260384.12500000 1002354.93750000 
0.10700    33171412.00000000 21084134.00000000 52885316.00000000 11898.18164062  1235236.50000000 982360.68750000 
0.10800    32628916.00000000 20742804.00000000 52024600.00000000 11637.11132812  1210831.37500000 962947.50000000 
0.10900    32102248.00000000 20411508.00000000 51189048.00000000 11383.52343750  1187102.25000000 944084.81250000 
0.11000    31590942.00000000 20089920.00000000 50377824.00000000 11137.17578125  1164039.62500000 925751.93750000 
0.11100    31094392.00000000 19777530.00000000 49590388.00000000 10897.58789062  1141627.87500000 907931.06250000 
0.11200    30611714.00000000 19474100.00000000 48824784.00000000 10664.44140625  1119808.87500000 890574.56250000 
0.11300    30142842.00000000 19179256.00000000 48081072.00000000 10437.47558594  1098566.62500000 873688.31250000 
0.11400    29686702.00000000 18892502.00000000 47357240.00000000 10216.25292969  1077863.00000000 857239.25000000 
0.11500    29242686.00000000 18613558.00000000 46653560.00000000 10000.46484375  1057683.25000000 841190.93750000 
0.11600    28810460.00000000 18342192.00000000 45968432.00000000 9789.83105469   1037992.56250000 825536.31250000 
0.11700    28389468.00000000 18077706.00000000 45301084.00000000 9584.05175781   1018758.31250000 810252.12500000 
0.11800    27978948.00000000 17819964.00000000 44650184.00000000 9382.73144531   999961.31250000 795306.43750000 
0.11900    27578594.00000000 17568622.00000000 44015784.00000000 9185.74414062   981580.18750000 780694.25000000 
0.12000    27187350.00000000 17323434.00000000 43396180.00000000 8992.81445312   963578.06250000 766398.62500000 
0.12100    26805656.00000000 17084018.00000000 42791376.00000000 8803.77246094   945946.12500000 752388.81250000 
0.12200    26432036.00000000 16849826.00000000 42199692.00000000 8618.25878906   928661.00000000 738651.56250000 
0.12300    26066720.00000000 16620859.00000000 41621560.00000000 8436.18945312   911699.68750000 725177.12500000 
0.12400    25708796.00000000 16396744.00000000 41054720.00000000 8257.29980469   895039.68750000 711943.06250000 
0.12500    25357932.00000000 16177032.00000000 40499312.00000000 8081.40087891   878659.81250000 698928.93750000 
0.12600    25013764.00000000 15961717.00000000 39955012.00000000 7908.51855469   862557.75000000 686143.31250000 
0.12700    24675884.00000000 15750346.00000000 39420160.00000000 7738.23730469   846699.43750000 673546.00000000 
0.12800    24343724.00000000 15542597.00000000 38894840.00000000 7570.58447266   831076.93750000 661144.18750000 
0.12900    24017066.00000000 15338523.00000000 38378064.00000000 7405.42968750   815682.62500000 648916.68750000 
0.13000    23695702.00000000 15137577.00000000 37869844.00000000 7242.68896484   800491.56250000 636856.81250000 
0.13100    23378762.00000000 14939654.00000000 37368792.00000000 7082.11035156   785492.81250000 624946.37500000 
0.13200    23066352.00000000 14744625.00000000 36874904.00000000 6923.75927734   770685.87500000 613187.75000000 
0.13300    22758222.00000000 14552190.00000000 36387856.00000000 6767.52490234   756050.68750000 601567.18750000 
0.13400    22453742.00000000 14362227.00000000 35906936.00000000 6613.35351562   741586.75000000 590080.75000000 
0.13500    22152932.00000000 14174424.00000000 35431448.00000000 6461.20019531   727274.12500000 578716.43750000 
0.13600    21855278.00000000 13988801.00000000 34961068.00000000 6310.96875000   713116.18750000 567473.56250000 
0.13700    21560708.00000000 13805147.00000000 34495600.00000000 6162.65332031   699096.81250000 556342.18750000 
0.13800    21268974.00000000 13623172.00000000 34034824.00000000 6016.27783203   685216.00000000 545321.43750000 
0.13900    20979952.00000000 13442929.00000000 33578184.00000000 5871.77685547   671471.87500000 534403.43750000 
0.14000    20693408.00000000 13264246.00000000 33125448.00000000 5729.16162109   657855.81250000 523587.09375000 
0.14100    20408942.00000000 13086966.00000000 32676362.00000000 5588.39111328   644364.00000000 512868.21875000 
0.14200    20126860.00000000 12911068.00000000 32230748.00000000 5449.48974609   630996.25000000 502245.40625000 
0.14300    19846600.00000000 12736266.00000000 31788044.00000000 5312.50781250   617749.43750000 491718.81250000 
0.14400    19568446.00000000 12562775.00000000 31348360.00000000 5177.39013672   604615.75000000 481284.50000000 
0.14500    19291934.00000000 12390192.00000000 30911502.00000000 5044.20117188   591610.62500000 470942.90625000 
0.14600    19017146.00000000 12218769.00000000 30477212.00000000 4912.95996094   578715.93750000 460694.81250000 
0.14700    18743934.00000000 12048283.00000000 30045620.00000000 4783.65234375   565947.50000000 450541.28125000 
0.14800    18472332.00000000 11878649.00000000 29616044.00000000 4656.34130859   553296.75000000 440475.31250000 
0.14900    18201980.00000000 11709918.00000000 29188866.00000000 4531.02099609   540760.06250000 430505.53125000 
0.15000    17933372.00000000 11542027.00000000 28764060.00000000 4407.74462891   528353.75000000 420632.68750000 
0.15100    17666138.00000000 11375031.00000000 28341402.00000000 4286.58349609   516069.84375000 410852.62500000 
0.15200    17400366.00000000 11208754.00000000 27920924.00000000 4167.51513672   503912.84375000 401175.46875000 
0.15300    17135858.00000000 11043379.00000000 27502496.00000000 4050.58398438   491885.59375000 391593.40625000 
0.15400    16872780.00000000 10878673.00000000 27086024.00000000 3935.79467773   479983.71875000 382116.50000000 
0.15500    16611115.00000000 10714845.00000000 26671836.00000000 3823.23315430   468222.21875000 372743.71875000 
0.15600    16350965.00000000 10551772.00000000 26259662.00000000 3712.89331055   456597.43750000 363475.62500000 
0.15700    16092317.00000000 10389558.00000000 25850042.00000000 3604.81665039   445116.71875000 354320.81250000 
0.15800    15835071.00000000 10228135.00000000 25442410.00000000 3499.03271484   433772.46875000 345273.50000000 
0.15900    15579399.00000000 10067606.00000000 25037092.00000000 3395.55883789   422581.71875000 336342.62500000 
0.16000    15325246.00000000 9907959.00000000 24634004.00000000 3294.41113281   411538.59375000 327529.18750000 
0.16100    15072954.00000000 9749227.00000000 24233666.00000000 3195.66210938   400652.56250000 318838.87500000 
0.16200    14822149.00000000 9591415.00000000 23835678.00000000 3099.25439453   389922.62500000 310268.56250000 
0.16300    14573153.00000000 9434589.00000000 23440414.00000000 3005.23779297   379355.18750000 301823.12500000 
0.16400    14325998.00000000 9278863.00000000 23047882.00000000 2913.64355469   368949.43750000 293509.06250000 
0.16500    14080802.00000000 9124092.00000000 22658174.00000000 2824.44848633   358715.50000000 285321.81250000 
0.16600    13837403.00000000 8970513.00000000 22271504.00000000 2737.70483398   348647.21875000 277272.09375000 
0.16700    13596105.00000000 8817913.00000000 21887618.00000000 2653.34545898   338752.65625000 269352.18750000 
0.16800    13356791.00000000 8666633.00000000 21506986.00000000 2571.40039062   329033.75000000 261573.78125000 
0.16900    13119825.00000000 8516568.00000000 21129820.00000000 2491.91601562   319497.46875000 253935.67187500 
0.17000    12885040.00000000 8367769.00000000 20755748.00000000 2414.81518555   310137.93750000 246438.73437500 
