# SAXS profile: number of points = 501, q_min = 0, q_max = 0.5, delta_q = 0.001
#    q    intensity 
0.00000    162238096.00000000 101201808.00000000 256271840.00000000 103420.41406250 8192396.00000000 6470343.00000000 
0.00100    162214592.00000000 101187096.00000000 256234080.00000000 103400.47656250 8191001.00000000 6469215.50000000 
0.00200    162142816.00000000 101142488.00000000 256120496.00000000 103341.00781250 8186768.50000000 6465937.50000000 
0.00300    162023120.00000000 101067912.00000000 255932096.00000000 103241.92187500 8179763.50000000 6460413.50000000 
0.00400    161855120.00000000 100964328.00000000 255667056.00000000 103103.64843750 8169965.00000000 6452742.00000000 
0.00500    161638752.00000000 100830888.00000000 255328240.00000000 102925.60937500 8157361.00000000 6442789.50000000 
0.00600    161374544.00000000 100668160.00000000 254913024.00000000 102709.13281250 8142002.00000000 6430737.50000000 
0.00700    161063072.00000000 100476160.00000000 254424480.00000000 102453.12500000 8123888.50000000 6416492.50000000 
0.00800    160704096.00000000 100254560.00000000 253859136.00000000 102159.00781250 8103007.00000000 6400094.50000000 
0.00900    160298528.00000000 100004384.00000000 253223024.00000000 101826.43750000 8079422.50000000 6381561.50000000 
0.01000    159845408.00000000 99726040.00000000 252513440.00000000 101456.03906250 8053145.00000000 6360913.00000000 
0.01100    159346048.00000000 99419144.00000000 251730832.00000000 101047.97656250 8024168.50000000 6338150.50000000 
0.01200    158801648.00000000 99083984.00000000 250877104.00000000 100602.46875000 7992570.00000000 6313289.00000000 
0.01300    158213424.00000000 98720576.00000000 249951648.00000000 100120.91406250 7958369.50000000 6286428.00000000 
0.01400    157578480.00000000 98330408.00000000 248955920.00000000 99602.68750000  7921557.00000000 6257517.00000000 
0.01500    156901440.00000000 97912176.00000000 247891056.00000000 99049.47656250  7882234.50000000 6226572.50000000 
0.01600    156179552.00000000 97467408.00000000 246758608.00000000 98461.00000000  7840366.50000000 6193695.50000000 
0.01700    155415024.00000000 96995960.00000000 245556640.00000000 97837.74218750  7796025.50000000 6158831.50000000 
0.01800    154607792.00000000 96498760.00000000 244289824.00000000 97181.12500000  7749299.50000000 6122121.50000000 
0.01900    153758800.00000000 95975352.00000000 242957472.00000000 96491.50000000  7700155.50000000 6083511.50000000 
0.02000    152869568.00000000 95426448.00000000 241560176.00000000 95769.65625000  7648718.50000000 6043047.50000000 
0.02100    151940000.00000000 94853968.00000000 240100912.00000000 95015.76562500  7594954.50000000 6000807.00000000 
0.02200    150971184.00000000 94256296.00000000 238578896.00000000 94231.92968750  7538955.50000000 5956785.00000000 
0.02300    149963472.00000000 93635256.00000000 236996544.00000000 93417.80468750  7480798.50000000 5911073.00000000 
0.02400    148918320.00000000 92990544.00000000 235354800.00000000 92574.27343750  7420486.00000000 5863653.00000000 
0.02500    147836496.00000000 92323304.00000000 233655184.00000000 91702.36718750  7358125.50000000 5814620.50000000 
0.02600    146718688.00000000 91633944.00000000 231899696.00000000 90803.23437500  7293734.50000000 5764010.50000000 
0.02700    145565936.00000000 90922968.00000000 230088320.00000000 89877.39843750  7227388.50000000 5711829.00000000 
0.02800    144378352.00000000 90190896.00000000 228224496.00000000 88925.83593750  7159128.50000000 5658171.00000000 
0.02900    143158512.00000000 89438576.00000000 226308864.00000000 87950.18750000  7089070.00000000 5603088.50000000 
0.03000    141907312.00000000 88666224.00000000 224342480.00000000 86950.64843750  7017238.00000000 5546606.00000000 
0.03100    140624448.00000000 87874960.00000000 222326832.00000000 85928.67187500  6943686.50000000 5488775.00000000 
0.03200    139311072.00000000 87064944.00000000 220264400.00000000 84884.65625000  6868497.00000000 5429659.00000000 
0.03300    137970160.00000000 86237136.00000000 218156896.00000000 83820.14062500  6791754.00000000 5369287.50000000 
0.03400    136600176.00000000 85392008.00000000 216005072.00000000 82736.10156250  6713496.00000000 5307734.00000000 
0.03500    135204864.00000000 84530384.00000000 213811328.00000000 81633.46875000  6633796.00000000 5245056.50000000 
0.03600    133782712.00000000 83652768.00000000 211577312.00000000 80513.39062500  6552762.00000000 5181293.00000000 
0.03700    132337104.00000000 82760600.00000000 209304832.00000000 79376.93750000  6470387.00000000 5116517.50000000 
0.03800    130867488.00000000 81853056.00000000 206996992.00000000 78225.03906250  6386836.00000000 5050771.50000000 
0.03900    129376080.00000000 80932456.00000000 204651792.00000000 77058.66406250  6302108.50000000 4984118.50000000 
0.04000    127863232.00000000 79998232.00000000 202274048.00000000 75879.34375000  6216318.00000000 4916633.00000000 
0.04100    126330592.00000000 79051712.00000000 199865632.00000000 74687.96093750  6129509.00000000 4848325.00000000 
0.04200    124780320.00000000 78094232.00000000 197428640.00000000 73485.35156250  6041772.00000000 4779291.00000000 
0.04300    123211160.00000000 77125120.00000000 194962624.00000000 72272.73437500  5953159.00000000 4709568.00000000 
0.04400    121626248.00000000 76146344.00000000 192471456.00000000 71051.07031250  5863794.50000000 4639225.00000000 
0.04500    120026528.00000000 75157864.00000000 189956528.00000000 69821.98437500  5773706.00000000 4568303.00000000 
0.04600    118412848.00000000 74160640.00000000 187418000.00000000 68586.36718750  5682946.50000000 4496903.00000000 
0.04700    116786096.00000000 73155008.00000000 184861888.00000000 67344.88281250  5591671.00000000 4425010.00000000 
0.04800    115148256.00000000 72142696.00000000 182285568.00000000 66098.35937500  5499871.50000000 4352774.50000000 
0.04900    113499904.00000000 71123600.00000000 179692416.00000000 64848.88671875  5407671.50000000 4280159.50000000 
0.05000    111842520.00000000 70099384.00000000 177086992.00000000 63596.85937500  5315104.50000000 4207286.00000000 
0.05100    110176744.00000000 69068856.00000000 174467616.00000000 62343.17578125  5222241.00000000 4134173.00000000 
0.05200    108504264.00000000 68035216.00000000 171836608.00000000 61089.16015625  5129168.00000000 4060887.75000000 
0.05300    106826136.00000000 66996940.00000000 169196880.00000000 59835.66406250  5035966.50000000 3987480.50000000 
0.05400    105143728.00000000 65955828.00000000 166550144.00000000 58583.51953125  4942687.00000000 3914018.00000000 
0.05500    103457248.00000000 64912728.00000000 163896240.00000000 57334.19531250  4849412.00000000 3840520.50000000 
0.05600    101768960.00000000 63867712.00000000 161240736.00000000 56088.06640625  4756201.00000000 3767099.75000000 
0.05700    100079784.00000000 62822252.00000000 158582384.00000000 54846.68359375  4663105.50000000 3693757.25000000 
0.05800    98390152.00000000 61776116.00000000 155923952.00000000 53610.29687500  4570207.50000000 3620552.00000000 
0.05900    96701664.00000000 60730748.00000000 153265904.00000000 52380.12890625  4477555.50000000 3547544.00000000 
0.06000    95015232.00000000 59686404.00000000 150611552.00000000 51157.30468750  4385241.50000000 3474781.75000000 
0.06100    93331816.00000000 58643512.00000000 147962080.00000000 49941.91015625  4293303.50000000 3402308.50000000 
0.06200    91652656.00000000 57603496.00000000 145319088.00000000 48735.71093750  4201789.00000000 3330186.25000000 
0.06300    89978864.00000000 56566448.00000000 142682896.00000000 47538.90234375  4110807.25000000 3258439.75000000 
0.06400    88310872.00000000 55532624.00000000 140056896.00000000 46352.26171875  4020360.25000000 3187122.75000000 
0.06500    86650488.00000000 54503264.00000000 137442080.00000000 45176.91015625  3930497.00000000 3116267.75000000 
0.06600    84998216.00000000 53478880.00000000 134839744.00000000 44012.98437500  3841335.00000000 3045940.25000000 
0.06700    83354296.00000000 52459724.00000000 132251072.00000000 42861.81640625  3752871.25000000 2976159.75000000 
0.06800    81720808.00000000 51446636.00000000 129678248.00000000 41723.72656250  3665179.25000000 2906968.75000000 
0.06900    80098208.00000000 50439892.00000000 127121640.00000000 40599.28906250  3578281.00000000 2838426.75000000 
0.07000    78487232.00000000 49440120.00000000 124583008.00000000 39489.20703125  3492272.50000000 2770547.75000000 
0.07100    76888136.00000000 48448016.00000000 122064136.00000000 38394.21484375  3407145.75000000 2703381.50000000 
0.07200    75302648.00000000 47463672.00000000 119565576.00000000 37314.58593750  3322988.75000000 2636935.00000000 
0.07300    73731560.00000000 46488156.00000000 117089240.00000000 36251.16796875  3239815.25000000 2571284.00000000 
0.07400    72175336.00000000 45521312.00000000 114635760.00000000 35203.99218750  3157673.25000000 2506415.25000000 
0.07500    70634312.00000000 44564164.00000000 112206392.00000000 34173.79296875  3076597.50000000 2442389.50000000 
0.07600    69109264.00000000 43616556.00000000 109802456.00000000 33161.08593750  2996611.50000000 2379226.25000000 
0.07700    67601728.00000000 42679284.00000000 107424392.00000000 32166.36523438  2917782.75000000 2316959.50000000 
0.07800    66110840.00000000 41752956.00000000 105074088.00000000 31189.53710938  2840115.75000000 2255590.00000000 
0.07900    64638816.00000000 40837548.00000000 102751888.00000000 30231.08593750  2763630.75000000 2195160.25000000 
0.08000    63185188.00000000 39933300.00000000 100458832.00000000 29291.48437500  2688397.50000000 2135689.75000000 
0.08100    61751140.00000000 39040812.00000000 98196120.00000000 28371.15234375  2614391.25000000 2077200.62500000 
0.08200    60336600.00000000 38160616.00000000 95964048.00000000 27469.96679688  2541674.75000000 2019710.50000000 
0.08300    58942204.00000000 37292492.00000000 93763544.00000000 26588.20117188  2470258.00000000 1963235.12500000 
0.08400    57568676.00000000 36437108.00000000 91595128.00000000 25726.22656250  2400146.25000000 1907792.25000000 
0.08500    56216164.00000000 35594788.00000000 89460424.00000000 24884.10351562  2331387.75000000 1853395.75000000 
0.08600    54885212.00000000 34765440.00000000 87359056.00000000 24062.10546875  2263982.00000000 1800057.37500000 
0.08700    53576204.00000000 33949548.00000000 85291960.00000000 23259.93750000  2197928.00000000 1747794.37500000 
0.08800    52289232.00000000 33147238.00000000 83259336.00000000 22477.99804688  2133244.50000000 1696601.00000000 
0.08900    51024616.00000000 32358576.00000000 81262192.00000000 21716.39062500  2069979.00000000 1646510.12500000 
0.09000    49783248.00000000 31584116.00000000 79300680.00000000 20974.72656250  2008093.62500000 1597504.25000000 
0.09100    48564692.00000000 30823706.00000000 77375152.00000000 20253.44531250  1947639.12500000 1549612.00000000 
0.09200    47369352.00000000 30077524.00000000 75486376.00000000 19552.26562500  1888556.12500000 1502821.37500000 
0.09300    46197572.00000000 29345776.00000000 73634080.00000000 18871.18164062  1830906.25000000 1457143.87500000 
0.09400    45049396.00000000 28628360.00000000 71818504.00000000 18210.11523438  1774667.37500000 1412562.37500000 
0.09500    43924900.00000000 27925530.00000000 70040304.00000000 17568.95507812  1719840.62500000 1369102.25000000 
0.09600    42824036.00000000 27237480.00000000 68299792.00000000 16947.53515625  1666430.87500000 1326753.62500000 
0.09700    41747608.00000000 26564104.00000000 66596624.00000000 16345.78613281  1614425.75000000 1285510.75000000 
0.09800    40694724.00000000 25905536.00000000 64930888.00000000 15763.49316406  1563830.75000000 1245376.12500000 
0.09900    39666044.00000000 25261774.00000000 63303256.00000000 15200.41015625  1514646.62500000 1206339.87500000 
0.10000    38661120.00000000 24632642.00000000 61713052.00000000 14656.34667969  1466824.50000000 1168393.25000000 
0.10100    37680228.00000000 24018266.00000000 60160236.00000000 14131.20605469  1420406.50000000 1131528.25000000 
0.10200    36723160.00000000 23418664.00000000 58644936.00000000 13624.43750000  1375347.25000000 1095750.25000000 
0.10300    35790164.00000000 22833670.00000000 57167128.00000000 13135.99121094  1331643.75000000 1061037.62500000 
0.10400    34880784.00000000 22263516.00000000 55726768.00000000 12665.59570312  1289289.50000000 1027377.31250000 
0.10500    33995152.00000000 21707748.00000000 54323620.00000000 12212.84765625  1248275.25000000 994777.81250000 
0.10600    33132568.00000000 21166550.00000000 52957012.00000000 11777.43750000  1208556.37500000 963198.06250000 
0.10700    32293788.00000000 20639660.00000000 51627080.00000000 11359.06347656  1170145.37500000 932646.06250000 
0.10800    31477670.00000000 20127152.00000000 50333284.00000000 10957.53515625  1133006.75000000 903099.25000000 
0.10900    30684660.00000000 19628688.00000000 49075588.00000000 10572.11132812  1097133.50000000 874549.81250000 
0.11000    29914410.00000000 19144286.00000000 47853916.00000000 10202.85742188  1062497.87500000 846977.00000000 
0.11100    29166328.00000000 18673740.00000000 46667296.00000000 9849.13867188   1029073.93750000 820360.68750000 
0.11200    28440556.00000000 18216992.00000000 45515392.00000000 9510.61621094   996849.37500000 794689.00000000 
0.11300    27736612.00000000 17773702.00000000 44398080.00000000 9186.91894531   965795.93750000 769946.06250000 
0.11400    27054340.00000000 17343920.00000000 43314664.00000000 8877.83398438   935902.31250000 746112.18750000 
0.11500    26393238.00000000 16927160.00000000 42265028.00000000 8582.63183594   907130.37500000 723166.75000000 
0.11600    25753150.00000000 16523536.00000000 41248088.00000000 8301.10058594   879460.75000000 701093.50000000 
0.11700    25133608.00000000 16132743.00000000 40264004.00000000 8032.76611328   852864.18750000 679868.31250000 
0.11800    24534446.00000000 15754336.00000000 39311368.00000000 7777.25927734   827319.87500000 659470.81250000 
0.11900    23954850.00000000 15388308.00000000 38390012.00000000 7534.08056641   802794.68750000 639886.00000000 
0.12000    23395040.00000000 15034469.00000000 37499736.00000000 7302.84472656   779269.31250000 621087.00000000 
0.12100    22854398.00000000 14692507.00000000 36639656.00000000 7083.22314453   756717.62500000 603058.12500000 
0.12200    22332186.00000000 14362204.00000000 35809184.00000000 6874.67041016   735106.62500000 585773.00000000 
0.12300    21828582.00000000 14043370.00000000 35007484.00000000 6676.87451172   714400.25000000 569218.37500000 
0.12400    21342840.00000000 13735614.00000000 34233972.00000000 6489.19335938   694595.37500000 553358.56250000 
0.12500    20874330.00000000 13438770.00000000 33487928.00000000 6311.45605469   675641.25000000 538181.75000000 
0.12600    20423262.00000000 13152628.00000000 32769100.00000000 6143.23242188   657521.87500000 523667.21875000 
0.12700    19988586.00000000 12876840.00000000 32076672.00000000 5983.94628906   640203.93750000 509789.37500000 
0.12800    19570152.00000000 12611146.00000000 31409660.00000000 5833.27441406   623659.68750000 496524.78125000 
0.12900    19167464.00000000 12355229.00000000 30767432.00000000 5690.84570312   607859.37500000 483853.90625000 
0.13000    18780110.00000000 12108951.00000000 30149620.00000000 5556.28222656   592781.37500000 471753.25000000 
0.13100    18407586.00000000 11871925.00000000 29555034.00000000 5429.08398438   578392.25000000 460197.90625000 
0.13200    18049468.00000000 11643988.00000000 28983444.00000000 5308.93945312   564664.87500000 449171.75000000 
0.13300    17705256.00000000 11424685.00000000 28434014.00000000 5195.44531250   551574.43750000 438654.06250000 
0.13400    17374602.00000000 11213872.00000000 27905756.00000000 5088.27197266   539091.00000000 428619.78125000 
0.13500    17057042.00000000 11011314.00000000 27398300.00000000 4987.03222656   527186.43750000 419044.06250000 
0.13600    16751920.00000000 10816602.00000000 26910758.00000000 4891.33984375   515839.75000000 409916.21875000 
0.13700    16459068.00000000 10629532.00000000 26442438.00000000 4800.87841797   505018.81250000 401205.84375000 
0.13800    16177812.00000000 10449791.00000000 25992844.00000000 4715.29248047   494698.84375000 392896.53125000 
0.13900    15907901.00000000 10277238.00000000 25561042.00000000 4634.30468750   484859.37500000 384968.78125000 
0.14000    15648801.00000000 10111424.00000000 25146360.00000000 4557.57128906   475470.37500000 377402.93750000 
0.14100    15400070.00000000 9952211.00000000 24748392.00000000 4484.79980469   466510.00000000 370179.12500000 
0.14200    15161254.00000000 9799175.00000000 24365972.00000000 4415.64062500   457951.81250000 363279.12500000 
0.14300    14932007.00000000 9652250.00000000 23998864.00000000 4349.84423828   449773.78125000 356684.87500000 
0.14400    14711840.00000000 9511000.00000000 23645972.00000000 4287.08740234   441950.46875000 350372.46875000 
0.14500    14500333.00000000 9375307.00000000 23307270.00000000 4227.19677734   434465.00000000 344333.21875000 
0.14600    14297143.00000000 9244844.00000000 22981372.00000000 4169.87060547   427294.75000000 338547.03125000 
0.14700    14101940.00000000 9119344.00000000 22668258.00000000 4114.87646484   420416.12500000 332994.09375000 
0.14800    13914017.00000000 8998613.00000000 22366818.00000000 4061.93750000   413807.68750000 327661.78125000 
0.14900    13733247.00000000 8882377.00000000 22076894.00000000 4010.83935547   407451.31250000 322533.53125000 
0.15000    13559209.00000000 8770372.00000000 21797574.00000000 3961.42846680   401331.09375000 317592.93750000 
0.15100    13391406.00000000 8662434.00000000 21528430.00000000 3913.46386719   395421.87500000 312824.81250000 
0.15200    13229757.00000000 8558347.00000000 21268896.00000000 3866.82080078   389715.50000000 308219.84375000 
0.15300    13073623.00000000 8457806.00000000 21018394.00000000 3821.21362305   384187.46875000 303761.53125000 
0.15400    12922735.00000000 8360614.00000000 20776116.00000000 3776.52197266   378820.84375000 299435.15625000 
0.15500    12776805.00000000 8266652.50000000 20541828.00000000 3732.61962891   373603.93750000 295229.53125000 
0.15600    12635471.00000000 8175575.00000000 20314898.00000000 3689.36865234   368519.62500000 291134.43750000 
0.15700    12498514.00000000 8087331.00000000 20094998.00000000 3646.61181641   363558.81250000 287138.90625000 
0.15800    12365417.00000000 8001611.00000000 19881268.00000000 3604.15966797   358700.75000000 283227.78125000 
0.15900    12236174.00000000 7918306.00000000 19673678.00000000 3562.02685547   353936.65625000 279395.62500000 
0.16000    12110192.00000000 7837126.50000000 19471422.00000000 3520.00610352   349250.09375000 275628.75000000 
0.16100    11987409.00000000 7758065.00000000 19274466.00000000 3478.08447266   344639.03125000 271924.93750000 
0.16200    11867564.00000000 7680853.00000000 19082030.00000000 3436.12646484   340082.28125000 268268.87500000 
0.16300    11750269.00000000 7605344.00000000 18893772.00000000 3394.06860352   335577.81250000 264655.53125000 
0.16400    11635382.00000000 7531384.00000000 18709330.00000000 3351.86010742   331113.78125000 261075.21875000 
0.16500    11522590.00000000 7458779.50000000 18528416.00000000 3309.43408203   326682.43750000 257525.64062500 
0.16600    11411815.00000000 7387520.00000000 18350686.00000000 3266.73022461   322273.59375000 253996.62500000 
0.16700    11302632.00000000 7317335.00000000 18175640.00000000 3223.70361328   317878.68750000 250480.03125000 
0.16800    11194957.00000000 7248131.50000000 18002958.00000000 3180.32348633   313493.59375000 246973.96875000 
0.16900    11088708.00000000 7179878.00000000 17832598.00000000 3136.63110352   309114.81250000 243477.00000000 
0.17000    10983521.00000000 7112335.00000000 17664102.00000000 3092.50610352   304728.93750000 239976.01562500 
