# SAXS profile: number of points = 501, q_min = 0, q_max = 0.5, delta_q = 0.001
#    q    intensity 
0.00000    162237232.00000000 101201696.00000000 256271744.00000000 101614.69531250 8120559.50000000 6413631.00000000 
0.00100    162212032.00000000 101185808.00000000 256230880.00000000 101593.14843750 8119048.50000000 6412404.00000000 
0.00200    162133728.00000000 101137344.00000000 256107632.00000000 101527.17187500 8114382.50000000 6408743.50000000 
0.00300    162004288.00000000 101056824.00000000 255902480.00000000 101417.37500000 8106665.00000000 6402657.00000000 
0.00400    161821904.00000000 100943968.00000000 255615152.00000000 101264.17968750 8095863.00000000 6394169.00000000 
0.00500    161587200.00000000 100799400.00000000 255245728.00000000 101066.79687500 8081986.00000000 6383251.00000000 
0.00600    161299696.00000000 100622512.00000000 254796272.00000000 100826.66406250 8065039.50000000 6369963.50000000 
0.00700    160960704.00000000 100413912.00000000 254264592.00000000 100543.68750000 8045113.50000000 6354274.00000000 
0.00800    160570752.00000000 100173496.00000000 253653440.00000000 100218.13281250 8022153.50000000 6336236.50000000 
0.00900    160130496.00000000 99903048.00000000 252962448.00000000 99850.10156250  7996192.50000000 6315826.00000000 
0.01000    159638608.00000000 99600912.00000000 252191440.00000000 99440.78906250  7967310.00000000 6293112.00000000 
0.01100    159098704.00000000 99268056.00000000 251343936.00000000 98989.95312500  7935487.00000000 6268103.00000000 
0.01200    158508480.00000000 98905080.00000000 250418128.00000000 98498.54687500  7900797.50000000 6240817.00000000 
0.01300    157871008.00000000 98512280.00000000 249416736.00000000 97967.00781250  7863264.00000000 6211322.50000000 
0.01400    157185216.00000000 98090312.00000000 248339184.00000000 97396.39843750  7822886.50000000 6179592.50000000 
0.01500    156451696.00000000 97637744.00000000 247188304.00000000 96786.84375000  7779830.50000000 6145708.00000000 
0.01600    155671008.00000000 97157344.00000000 245961696.00000000 96139.37500000  7734005.00000000 6109723.50000000 
0.01700    154844592.00000000 96648256.00000000 244665856.00000000 95455.61718750  7685543.00000000 6071587.50000000 
0.01800    153972512.00000000 96111432.00000000 243297936.00000000 94735.09375000  7634503.00000000 6031444.00000000 
0.01900    153057088.00000000 95547384.00000000 241861552.00000000 93979.89062500  7580907.50000000 5989293.50000000 
0.02000    152098384.00000000 94956616.00000000 240356000.00000000 93189.61718750  7524816.50000000 5945196.50000000 
0.02100    151097696.00000000 94340080.00000000 238784048.00000000 92366.03906250  7466325.00000000 5899211.00000000 
0.02200    150055520.00000000 93697936.00000000 237148064.00000000 91510.42968750  7405443.00000000 5851322.00000000 
0.02300    148971440.00000000 93030424.00000000 235447520.00000000 90623.31250000  7342307.50000000 5801658.00000000 
0.02400    147849744.00000000 92338744.00000000 233684752.00000000 89705.56250000  7276950.50000000 5750235.50000000 
0.02500    146690096.00000000 91623672.00000000 231863264.00000000 88758.61718750  7209403.50000000 5697149.00000000 
0.02600    145491632.00000000 90885568.00000000 229981408.00000000 87784.51562500  7139810.50000000 5642410.50000000 
0.02700    144257504.00000000 90124952.00000000 228044448.00000000 86782.84375000  7068209.50000000 5586080.50000000 
0.02800    142988832.00000000 89343088.00000000 226052048.00000000 85755.57812500  6994678.50000000 5528253.00000000 
0.02900    141686512.00000000 88539752.00000000 224007056.00000000 84703.56250000  6919302.50000000 5468964.50000000 
0.03000    140352160.00000000 87716656.00000000 221910496.00000000 83628.57812500  6842151.50000000 5408276.00000000 
0.03100    138986080.00000000 86874256.00000000 219764640.00000000 82531.43750000  6763336.00000000 5346261.00000000 
0.03200    137589568.00000000 86013208.00000000 217572128.00000000 81413.36718750  6682870.00000000 5282994.00000000 
0.03300    136165968.00000000 85134744.00000000 215334272.00000000 80276.03906250  6600945.00000000 5218520.00000000 
0.03400    134713456.00000000 84238904.00000000 213053888.00000000 79120.29687500  6517528.50000000 5152872.50000000 
0.03500    133235480.00000000 83326184.00000000 210731648.00000000 77947.78125000  6432793.00000000 5086207.00000000 
0.03600    131733096.00000000 82398632.00000000 208370080.00000000 76759.39062500  6346748.50000000 5018500.00000000 
0.03700    130207144.00000000 81456776.00000000 205971072.00000000 75556.34375000  6259544.50000000 4949889.00000000 
0.03800    128658640.00000000 80500752.00000000 203538704.00000000 74340.84375000  6171237.50000000 4880404.50000000 
0.03900    127089456.00000000 79532440.00000000 201072832.00000000 73113.16406250  6081976.50000000 4810088.50000000 
0.04000    125501184.00000000 78551304.00000000 198575872.00000000 71875.30468750  5991729.50000000 4739068.00000000 
0.04100    123895392.00000000 77558800.00000000 196050368.00000000 70628.24218750  5900661.00000000 4667407.50000000 
0.04200    122271728.00000000 76556424.00000000 193499120.00000000 69373.23437500  5808820.00000000 4595097.00000000 
0.04300    120633736.00000000 75543632.00000000 190923680.00000000 68111.56250000  5716310.00000000 4522304.50000000 
0.04400    118981568.00000000 74522624.00000000 188325280.00000000 66844.23437500  5623262.50000000 4449020.50000000 
0.04500    117316760.00000000 73493456.00000000 185707104.00000000 65573.48437500  5529678.50000000 4375338.50000000 
0.04600    115640488.00000000 72457120.00000000 183072544.00000000 64299.30859375  5435690.00000000 4301349.00000000 
0.04700    113955240.00000000 71415280.00000000 180420400.00000000 63023.71093750  5341426.00000000 4227093.00000000 
0.04800    112260744.00000000 70367672.00000000 177756736.00000000 61747.91796875  5246867.50000000 4152633.75000000 
0.04900    110559112.00000000 69315224.00000000 175078736.00000000 60472.92578125  5152169.50000000 4078035.75000000 
0.05000    108851744.00000000 68258496.00000000 172391088.00000000 59199.54296875  5057372.00000000 4003375.00000000 
0.05100    107139568.00000000 67198944.00000000 169698160.00000000 57929.28125000  4962557.00000000 3928693.00000000 
0.05200    105424296.00000000 66136748.00000000 166998992.00000000 56663.21484375  4867843.00000000 3854068.25000000 
0.05300    103707072.00000000 65073340.00000000 164296896.00000000 55402.62500000  4773257.00000000 3779544.50000000 
0.05400    101988984.00000000 64009232.00000000 161592432.00000000 54148.23828125  4678907.50000000 3705215.25000000 
0.05500    100271832.00000000 62945300.00000000 158888448.00000000 52900.99609375  4584867.00000000 3631090.25000000 
0.05600    98555616.00000000 61882016.00000000 156186976.00000000 51662.19531250  4491183.50000000 3557263.75000000 
0.05700    96842840.00000000 60820260.00000000 153489648.00000000 50432.97265625  4397940.50000000 3483757.75000000 
0.05800    95133400.00000000 59760804.00000000 150797856.00000000 49213.81640625  4305219.00000000 3410656.25000000 
0.05900    93429424.00000000 58704124.00000000 148114752.00000000 48005.78515625  4213044.50000000 3338001.25000000 
0.06000    91732184.00000000 57651332.00000000 145441472.00000000 46809.60937500  4121506.25000000 3265838.25000000 
0.06100    90042200.00000000 56602516.00000000 142778032.00000000 45626.59765625  4030678.50000000 3194191.25000000 
0.06200    88360184.00000000 55558916.00000000 140128688.00000000 44457.05468750  3940606.75000000 3123167.25000000 
0.06300    86688008.00000000 54520756.00000000 137493040.00000000 43301.82421875  3851353.25000000 3052777.75000000 
0.06400    85026000.00000000 53488808.00000000 134873136.00000000 42161.84375000  3762951.75000000 2983038.50000000 
0.06500    83375304.00000000 52463612.00000000 132272256.00000000 41037.56640625  3675490.00000000 2914023.50000000 
0.06600    81737616.00000000 51445868.00000000 129689800.00000000 39929.72656250  3588986.25000000 2845782.00000000 
0.06700    80112952.00000000 50436108.00000000 127127864.00000000 38839.01171875  3503506.25000000 2778330.75000000 
0.06800    78502296.00000000 49434808.00000000 124587928.00000000 37765.75390625  3419080.50000000 2711692.50000000 
0.06900    76906376.00000000 48442600.00000000 122071368.00000000 36710.43750000  3335784.00000000 2645942.00000000 
0.07000    75326320.00000000 47459944.00000000 119578536.00000000 35674.02343750  3253624.50000000 2581076.50000000 
0.07100    73762640.00000000 46486944.00000000 117112040.00000000 34656.23437500  3172646.50000000 2517139.75000000 
0.07200    72216888.00000000 45524480.00000000 114672400.00000000 33657.92187500  3092915.75000000 2454155.25000000 
0.07300    70688544.00000000 44573104.00000000 112260592.00000000 32679.70703125  3014409.75000000 2392162.50000000 
0.07400    69178720.00000000 43633004.00000000 109878032.00000000 31721.17382812  2937182.75000000 2331185.75000000 
0.07500    67688816.00000000 42704380.00000000 107524832.00000000 30783.12890625  2861303.75000000 2271208.50000000 
0.07600    66218224.00000000 41787812.00000000 105203344.00000000 29865.73046875  2786730.00000000 2212287.00000000 
0.07700    64768248.00000000 40883792.00000000 102913736.00000000 28969.16796875  2713538.75000000 2154427.75000000 
0.07800    63339052.00000000 39992720.00000000 100655312.00000000 28093.54492188  2641723.50000000 2097651.25000000 
0.07900    61931156.00000000 39114536.00000000 98432088.00000000 27238.97460938  2571305.00000000 2041982.75000000 
0.08000    60545028.00000000 38249368.00000000 96242000.00000000 26405.74609375  2502307.50000000 1987416.25000000 
0.08100    59181468.00000000 37397968.00000000 94086784.00000000 25593.72265625  2434754.50000000 1933983.00000000 
0.08200    57840152.00000000 36560544.00000000 91967088.00000000 24802.91015625  2368603.50000000 1881668.00000000 
0.08300    56522208.00000000 35736956.00000000 89882784.00000000 24033.43945312  2303931.25000000 1830491.50000000 
0.08400    55227244.00000000 34927464.00000000 87835416.00000000 23285.05468750  2240702.00000000 1780458.87500000 
0.08500    53955616.00000000 34132568.00000000 85825000.00000000 22558.07617188  2178927.25000000 1731567.87500000 
0.08600    52707900.00000000 33352176.00000000 83851440.00000000 21852.00585938  2118631.25000000 1683827.75000000 
0.08700    51484096.00000000 32586552.00000000 81915168.00000000 21166.98828125  2059803.87500000 1637244.75000000 
0.08800    50284560.00000000 31835750.00000000 80016672.00000000 20502.61132812  2002429.50000000 1591790.75000000 
0.08900    49109060.00000000 31099714.00000000 78156960.00000000 19858.93554688  1946503.50000000 1547492.75000000 
0.09000    47957868.00000000 30378766.00000000 76334104.00000000 19235.47656250  1892039.00000000 1504334.37500000 
0.09100    46831164.00000000 29672658.00000000 74550376.00000000 18632.06250000  1839014.75000000 1462304.50000000 
0.09200    45728768.00000000 28981702.00000000 72804912.00000000 18048.59765625  1787421.25000000 1421409.62500000 
0.09300    44650924.00000000 28305982.00000000 71098016.00000000 17484.75781250  1737256.87500000 1381621.62500000 
0.09400    43597700.00000000 27644954.00000000 69429184.00000000 16940.04492188  1688499.25000000 1342954.75000000 
0.09500    42568156.00000000 26999036.00000000 67798240.00000000 16414.28710938  1641126.87500000 1305373.87500000 
0.09600    41563296.00000000 26368296.00000000 66205848.00000000 15907.13769531  1595135.87500000 1268885.12500000 
0.09700    40582560.00000000 25752512.00000000 64651300.00000000 15418.21484375  1550528.25000000 1233469.00000000 
0.09800    39625756.00000000 25151492.00000000 63134828.00000000 14947.11621094  1507248.00000000 1199108.87500000 
0.09900    38693288.00000000 24565422.00000000 61656036.00000000 14493.42773438  1465288.75000000 1165791.37500000 
0.10000    37784252.00000000 23993854.00000000 60214108.00000000 14056.82812500  1424638.87500000 1133496.25000000 
0.10100    36898592.00000000 23437084.00000000 58809376.00000000 13636.75390625  1385267.50000000 1102213.62500000 
0.10200    36036316.00000000 22894552.00000000 57441604.00000000 13232.81445312  1347148.62500000 1071914.25000000 
0.10300    35197080.00000000 22366320.00000000 56109444.00000000 12844.78320312  1310261.25000000 1042592.56250000 
0.10400    34380532.00000000 21852320.00000000 54813804.00000000 12471.90625000  1274583.75000000 1014213.31250000 
0.10500    33586592.00000000 21352268.00000000 53553664.00000000 12113.98925781  1240088.12500000 986778.37500000 
0.10600    32814396.00000000 20866088.00000000 52328104.00000000 11770.23437500  1206743.87500000 960246.81250000 
0.10700    32064472.00000000 20393460.00000000 51137164.00000000 11440.51855469  1174531.50000000 934606.56250000 
0.10800    31335846.00000000 19934240.00000000 49980200.00000000 11124.25585938  1143414.12500000 909833.43750000 
0.10900    30628536.00000000 19488288.00000000 48856528.00000000 10821.00976562  1113370.37500000 885900.18750000 
0.11000    29941858.00000000 19055082.00000000 47766148.00000000 10530.28125000  1084360.87500000 862794.31250000 
0.11100    29275784.00000000 18634768.00000000 46707736.00000000 10251.48144531  1056367.37500000 840488.56250000 
0.11200    28629490.00000000 18227054.00000000 45680768.00000000 9984.24218750   1029354.93750000 818958.62500000 
0.11300    28003002.00000000 17831626.00000000 44685076.00000000 9728.20214844   1003294.56250000 798179.18750000 
0.11400    27395710.00000000 17448146.00000000 43719988.00000000 9482.74121094   978165.00000000 778135.87500000 
0.11500    26807134.00000000 17076492.00000000 42784264.00000000 9247.46484375   953918.50000000 758794.37500000 
0.11600    26237110.00000000 16716417.00000000 41878016.00000000 9021.96093750   930538.06250000 740139.50000000 
0.11700    25684830.00000000 16367629.00000000 41000296.00000000 8805.73046875   907995.37500000 722145.75000000 
0.11800    25150038.00000000 16029787.00000000 40149812.00000000 8598.26953125   886246.18750000 704785.81250000 
0.11900    24632392.00000000 15702691.00000000 39326632.00000000 8399.29687500   865272.81250000 688033.68750000 
0.12000    24131324.00000000 15385965.00000000 38529908.00000000 8208.20800781   845039.50000000 671874.18750000 
0.12100    23646550.00000000 15079526.00000000 37758736.00000000 8024.78271484   825534.37500000 656286.37500000 
0.12200    23177268.00000000 14782967.00000000 37012408.00000000 7848.48046875   806708.56250000 641244.75000000 
0.12300    22723338.00000000 14496090.00000000 36290480.00000000 7678.94335938   788534.93750000 626717.18750000 
0.12400    22284182.00000000 14218445.00000000 35592080.00000000 7515.80957031   770995.18750000 612694.93750000 
0.12500    21859154.00000000 13949912.00000000 34916124.00000000 7358.66259766   754056.62500000 599149.75000000 
0.12600    21448410.00000000 13690236.00000000 34262664.00000000 7207.26318359   737694.37500000 586067.93750000 
0.12700    21050736.00000000 13439046.00000000 33630568.00000000 7061.13623047   721878.12500000 573416.12500000 
0.12800    20666264.00000000 13196071.00000000 33019154.00000000 6919.93359375   706584.12500000 561182.81250000 
0.12900    20294150.00000000 12961113.00000000 32427714.00000000 6783.37304688   691791.12500000 549352.25000000 
0.13000    19934446.00000000 12733862.00000000 31855184.00000000 6651.26708984   677471.75000000 537893.56250000 
0.13100    19586060.00000000 12513875.00000000 31301878.00000000 6523.10107422   663596.18750000 526784.75000000 
0.13200    19248916.00000000 12301116.00000000 30766044.00000000 6398.70117188   650148.25000000 516030.18750000 
0.13300    18922750.00000000 12095243.00000000 30247612.00000000 6277.78710938   637098.62500000 505590.71875000 
0.13400    18606854.00000000 11896068.00000000 29745762.00000000 6160.17724609   624433.37500000 495456.18750000 
0.13500    18300956.00000000 11703194.00000000 29259746.00000000 6045.56005859   612128.31250000 485611.15625000 
0.13600    18004732.00000000 11516453.00000000 28789184.00000000 5933.65673828   600165.12500000 476040.28125000 
0.13700    17717544.00000000 11335535.00000000 28333322.00000000 5824.36474609   588518.87500000 466724.25000000 
0.13800    17439092.00000000 11160264.00000000 27891414.00000000 5717.41308594   577174.06250000 457654.81250000 
0.13900    17169156.00000000 10990462.00000000 27462908.00000000 5612.57519531   566113.06250000 448808.28125000 
0.14000    16907186.00000000 10825747.00000000 27047360.00000000 5509.79785156   555319.87500000 440179.21875000 
0.14100    16653007.00000000 10665882.00000000 26644062.00000000 5408.82861328   544782.87500000 431751.40625000 
0.14200    16405999.00000000 10510810.00000000 26252366.00000000 5309.52246094   534475.43750000 423515.65625000 
0.14300    16165923.00000000 10360141.00000000 25871930.00000000 5211.78857422   524388.68750000 415458.12500000 
0.14400    15932475.00000000 10213725.00000000 25502028.00000000 5115.44238281   514508.18750000 407564.43750000 
0.14500    15705508.00000000 10071402.00000000 25142366.00000000 5020.43847656   504823.21875000 399829.46875000 
0.14600    15484340.00000000 9932909.00000000 24792230.00000000 4926.64843750   495319.90625000 392244.15625000 
0.14700    15268915.00000000 9798199.00000000 24451504.00000000 4833.98144531   485990.03125000 384796.15625000 
0.14800    15058881.00000000 9666871.00000000 24119092.00000000 4742.35400391   476816.21875000 377477.50000000 
0.14900    14853923.00000000 9538829.00000000 23795038.00000000 4651.66552734   467790.78125000 370278.18750000 
0.15000    14653839.00000000 9413937.00000000 23478622.00000000 4561.92822266   458907.21875000 363192.87500000 
0.15100    14458340.00000000 9291944.00000000 23169824.00000000 4473.01074219   450157.90625000 356218.28125000 
0.15200    14267165.00000000 9172872.00000000 22867904.00000000 4384.99511719   441531.75000000 349345.71875000 
0.15300    14080182.00000000 9056315.00000000 22572604.00000000 4297.71875000   433023.12500000 342570.34375000 
0.15400    13896960.00000000 8942200.00000000 22283136.00000000 4211.21728516   424624.15625000 335880.87500000 
0.15500    13717358.00000000 8830600.00000000 21999832.00000000 4125.45556641   416332.25000000 329278.21875000 
0.15600    13541176.00000000 8721026.00000000 21721808.00000000 4040.48852539   408136.75000000 322757.06250000 
0.15700    13368289.00000000 8613650.00000000 21449348.00000000 3956.25341797   400040.21875000 316316.62500000 
0.15800    13198383.00000000 8508134.00000000 21181398.00000000 3872.70507812   392035.59375000 309944.78125000 
0.15900    13031287.00000000 8404533.00000000 20918238.00000000 3789.96923828   384115.71875000 303650.15625000 
0.16000    12866947.00000000 8302568.50000000 20659162.00000000 3707.99023438   376281.00000000 297421.15625000 
0.16100    12705300.00000000 8202331.00000000 20404414.00000000 3626.82788086   368532.75000000 291264.50000000 
0.16200    12545876.00000000 8103503.50000000 20153350.00000000 3546.47216797   360862.31250000 285170.53125000 
0.16300    12388649.00000000 8006128.50000000 19905886.00000000 3466.95092773   353272.25000000 279141.31250000 
0.16400    12233634.00000000 7910135.50000000 19661790.00000000 3388.31665039   345760.40625000 273174.21875000 
0.16500    12080643.00000000 7815362.50000000 19420778.00000000 3310.58496094   338326.21875000 267270.40625000 
0.16600    11929533.00000000 7721763.00000000 19182930.00000000 3233.80102539   330968.21875000 261431.15625000 
0.16700    11780112.00000000 7629244.00000000 18947692.00000000 3157.98315430   323687.09375000 255650.59375000 
0.16800    11632357.00000000 7537709.50000000 18715028.00000000 3083.16601562   316481.65625000 249931.06250000 
0.16900    11486311.00000000 7447231.00000000 18485100.00000000 3009.47119141   309355.37500000 244276.18750000 
0.17000    11341620.00000000 7357654.00000000 18257270.00000000 2936.83056641   302308.12500000 238683.73437500 
