# SAXS profile: number of points = 501, q_min = 0, q_max = 0.5, delta_q = 0.001
#    q    intensity 
0.00000    162237392.00000000 101201568.00000000 256272112.00000000 100948.25000000 8093888.00000000 6392544.00000000 
0.00100    162207584.00000000 101182616.00000000 256222656.00000000 100923.38281250 8092105.00000000 6391147.50000000 
0.00200    162115248.00000000 101124144.00000000 256074368.00000000 100848.89062500 8086719.50000000 6386899.00000000 
0.00300    161959120.00000000 101027744.00000000 255828720.00000000 100724.67187500 8077797.50000000 6379886.00000000 
0.00400    161738944.00000000 100892064.00000000 255483216.00000000 100551.30468750 8065368.00000000 6370092.50000000 
0.00500    161458096.00000000 100717912.00000000 255041760.00000000 100328.96093750 8049317.50000000 6357451.50000000 
0.00600    161114384.00000000 100506216.00000000 254502848.00000000 100057.32812500 8029810.50000000 6342088.00000000 
0.00700    160709936.00000000 100255648.00000000 253865408.00000000 99738.05468750  8006765.00000000 6324003.00000000 
0.00800    160244528.00000000 99968048.00000000 253134960.00000000 99370.30468750  7980340.50000000 6303182.50000000 
0.00900    159717392.00000000 99643648.00000000 252308960.00000000 98955.07031250  7950400.00000000 6279667.50000000 
0.01000    159132592.00000000 99282488.00000000 251389280.00000000 98493.54687500  7917144.50000000 6253503.50000000 
0.01100    158488368.00000000 98884440.00000000 250376528.00000000 97985.71093750  7880579.50000000 6224706.00000000 
0.01200    157787856.00000000 98450784.00000000 249274272.00000000 97432.14062500  7840675.00000000 6193334.00000000 
0.01300    157030448.00000000 97981928.00000000 248080688.00000000 96835.19531250  7797575.50000000 6159416.00000000 
0.01400    156214416.00000000 97478336.00000000 246798960.00000000 96193.71875000  7751312.00000000 6123004.50000000 
0.01500    155343520.00000000 96940088.00000000 245431168.00000000 95510.03906250  7701931.50000000 6084165.50000000 
0.01600    154419824.00000000 96369392.00000000 243978400.00000000 94784.32031250  7649549.50000000 6042916.50000000 
0.01700    153443696.00000000 95765040.00000000 242442800.00000000 94018.08593750  7594150.00000000 5999332.00000000 
0.01800    152415760.00000000 95129440.00000000 240825072.00000000 93212.73437500  7535867.00000000 5953477.50000000 
0.01900    151336320.00000000 94462944.00000000 239128656.00000000 92368.36718750  7474788.50000000 5905411.00000000 
0.02000    150209520.00000000 93766248.00000000 237355920.00000000 91487.14062500  7410932.00000000 5855175.50000000 
0.02100    149033584.00000000 93039096.00000000 235507536.00000000 90570.28906250  7344491.00000000 5802901.50000000 
0.02200    147812368.00000000 92284160.00000000 233587024.00000000 89618.48437500  7275424.00000000 5748551.50000000 
0.02300    146546896.00000000 91501496.00000000 231595232.00000000 88633.78125000  7203945.00000000 5692289.00000000 
0.02400    145236880.00000000 90691544.00000000 229535776.00000000 87617.21093750  7130049.00000000 5634145.50000000 
0.02500    143886672.00000000 89856600.00000000 227412528.00000000 86569.80468750  7053905.50000000 5574169.00000000 
0.02600    142494864.00000000 88996744.00000000 225225808.00000000 85493.39843750  6975534.00000000 5512528.00000000 
0.02700    141067376.00000000 88113024.00000000 222977712.00000000 84389.55468750  6895106.50000000 5449258.00000000 
0.02800    139602304.00000000 87206968.00000000 220673216.00000000 83259.78906250  6812725.50000000 5384364.50000000 
0.02900    138100448.00000000 86279168.00000000 218313008.00000000 82105.59375000  6728381.50000000 5318020.50000000 
0.03000    136567552.00000000 85330728.00000000 215901712.00000000 80928.10156250  6642328.50000000 5250259.50000000 
0.03100    135002880.00000000 84362512.00000000 213439808.00000000 79729.44531250  6554592.50000000 5181228.00000000 
0.03200    133408696.00000000 83376536.00000000 210932016.00000000 78510.71093750  6465303.00000000 5110902.00000000 
0.03300    131786408.00000000 82373168.00000000 208381184.00000000 77274.00000000  6374532.00000000 5039467.50000000 
0.03400    130139136.00000000 81353376.00000000 205788752.00000000 76019.76562500  6282435.50000000 4966967.50000000 
0.03500    128466680.00000000 80318712.00000000 203157584.00000000 74751.00000000  6189113.00000000 4893472.00000000 
0.03600    126771944.00000000 79270648.00000000 200492944.00000000 73468.93750000  6094648.00000000 4819110.00000000 
0.03700    125057752.00000000 78209472.00000000 197794000.00000000 72175.03906250  5999178.00000000 4743912.00000000 
0.03800    123324688.00000000 77136800.00000000 195067904.00000000 70870.02343750  5902801.50000000 4668025.00000000 
0.03900    121574864.00000000 76054032.00000000 192313904.00000000 69556.55468750  5805639.50000000 4591509.50000000 
0.04000    119810752.00000000 74961576.00000000 189537376.00000000 68236.13281250  5707771.50000000 4514442.00000000 
0.04100    118032000.00000000 73861032.00000000 186739408.00000000 66909.46093750  5609318.00000000 4436910.50000000 
0.04200    116243840.00000000 72753320.00000000 183924448.00000000 65579.14062500  5510386.50000000 4359012.50000000 
0.04300    114445584.00000000 71640736.00000000 181096448.00000000 64246.08984375  5411126.50000000 4280794.50000000 
0.04400    112639792.00000000 70522568.00000000 178253184.00000000 62911.83984375  5311586.00000000 4202386.50000000 
0.04500    110827744.00000000 69400920.00000000 175401200.00000000 61577.74609375  5211881.00000000 4123844.75000000 
0.04600    109012320.00000000 68276648.00000000 172543520.00000000 60245.46875000  5112113.00000000 4045244.00000000 
0.04700    107194360.00000000 67149744.00000000 169682704.00000000 58916.17578125  5012376.50000000 3966670.50000000 
0.04800    105375512.00000000 66023372.00000000 166819744.00000000 57591.88281250  4912773.50000000 3888185.50000000 
0.04900    103557792.00000000 64897100.00000000 163957600.00000000 56272.67968750  4813447.50000000 3809900.25000000 
0.05000    101742640.00000000 63772600.00000000 161099936.00000000 54960.51171875  4714405.00000000 3731861.00000000 
0.05100    99931752.00000000 62650468.00000000 158248256.00000000 53657.34375000  4615784.00000000 3654140.00000000 
0.05200    98126656.00000000 61531836.00000000 155406384.00000000 52363.23437500  4517682.50000000 3576802.50000000 
0.05300    96328928.00000000 60417504.00000000 152575632.00000000 51079.79296875  4420172.00000000 3499934.25000000 
0.05400    94539920.00000000 59308664.00000000 149759264.00000000 49808.33203125  4323303.00000000 3423590.50000000 
0.05500    92761256.00000000 58205892.00000000 146957408.00000000 48549.80859375  4227226.00000000 3347829.50000000 
0.05600    90994288.00000000 57110148.00000000 144174304.00000000 47305.17187500  4131944.00000000 3272709.75000000 
0.05700    89239856.00000000 56022348.00000000 141411328.00000000 46075.73437500  4037598.50000000 3198303.00000000 
0.05800    87499896.00000000 54942996.00000000 138670560.00000000 44861.60546875  3944205.50000000 3124656.75000000 
0.05900    85775656.00000000 53873236.00000000 135953168.00000000 43664.57421875  3851875.25000000 3051831.75000000 
0.06000    84067936.00000000 52813568.00000000 133263904.00000000 42484.96484375  3760630.75000000 2979856.00000000 
0.06100    82377808.00000000 51764876.00000000 130600712.00000000 41323.89843750  3670568.25000000 2908803.75000000 
0.06200    80706536.00000000 50727888.00000000 127967744.00000000 40181.74218750  3581732.50000000 2838712.50000000 
0.06300    79054960.00000000 49702892.00000000 125365352.00000000 39059.53125000  3494164.25000000 2769605.75000000 
0.06400    77424392.00000000 48690628.00000000 122795952.00000000 37957.55078125  3407918.75000000 2701571.50000000 
0.06500    75815792.00000000 47691836.00000000 120260800.00000000 36876.61328125  3323052.75000000 2634591.75000000 
0.06600    74229192.00000000 46707020.00000000 117760368.00000000 35816.77734375  3239625.25000000 2568723.50000000 
0.06700    72666624.00000000 45736112.00000000 115297304.00000000 34779.40625000  3157648.50000000 2503994.75000000 
0.06800    71128552.00000000 44780684.00000000 112872280.00000000 33763.98046875  3077169.00000000 2440459.00000000 
0.06900    69615064.00000000 43840216.00000000 110485312.00000000 32771.61328125  2998216.25000000 2378102.50000000 
0.07000    68127264.00000000 42915404.00000000 108139680.00000000 31802.14843750  2920817.75000000 2316979.75000000 
0.07100    66664692.00000000 42006784.00000000 105834352.00000000 30855.81250000  2845034.75000000 2257120.00000000 
0.07200    65229760.00000000 41114448.00000000 103570656.00000000 29933.18945312  2770815.50000000 2198477.75000000 
0.07300    63821472.00000000 40239004.00000000 101349768.00000000 29034.17968750  2698261.00000000 2141145.25000000 
0.07400    62440996.00000000 39380344.00000000 99171440.00000000 28158.87109375  2627341.75000000 2085098.25000000 
0.07500    61088340.00000000 38538572.00000000 97037496.00000000 27307.38671875  2558077.00000000 2030353.12500000 
0.07600    59763376.00000000 37714280.00000000 94947432.00000000 26479.83398438  2490475.00000000 1976922.12500000 
0.07700    58466980.00000000 36907732.00000000 92902144.00000000 25675.96289062  2424547.75000000 1924784.62500000 
0.07800    57199416.00000000 36118520.00000000 90901392.00000000 24896.20507812  2360288.25000000 1873987.87500000 
0.07900    55959968.00000000 35347012.00000000 88945680.00000000 24139.78906250  2297721.75000000 1824499.25000000 
0.08000    54750196.00000000 34593212.00000000 87035264.00000000 23407.11914062  2236850.00000000 1776317.75000000 
0.08100    53568696.00000000 33857456.00000000 85170544.00000000 22697.82421875  2177635.25000000 1729465.00000000 
0.08200    52415972.00000000 33139306.00000000 83350856.00000000 22011.54296875  2120075.75000000 1683914.37500000 
0.08300    51292556.00000000 32439030.00000000 81576392.00000000 21348.28710938  2064156.25000000 1639657.25000000 
0.08400    50197132.00000000 31756324.00000000 79846552.00000000 20707.35156250  2009888.75000000 1596694.87500000 
0.08500    49130788.00000000 31091394.00000000 78162792.00000000 20088.96679688  1957258.87500000 1555004.87500000 
0.08600    48092892.00000000 30443980.00000000 76523160.00000000 19492.35156250  1906217.25000000 1514589.37500000 
0.08700    47082772.00000000 29814006.00000000 74927352.00000000 18917.36914062  1856763.87500000 1475407.12500000 
0.08800    46100868.00000000 29201068.00000000 73375296.00000000 18363.46289062  1808898.87500000 1437466.37500000 
0.08900    45146380.00000000 28605266.00000000 71866840.00000000 17830.30664062  1762545.50000000 1400730.12500000 
0.09000    44219220.00000000 28026376.00000000 70401440.00000000 17317.36132812  1717718.12500000 1365196.37500000 
0.09100    43318688.00000000 27464108.00000000 68978712.00000000 16824.21289062  1674378.37500000 1330838.00000000 
0.09200    42445176.00000000 26918202.00000000 67597168.00000000 16350.42871094  1632500.75000000 1297609.25000000 
0.09300    41597396.00000000 26388396.00000000 66256336.00000000 15895.53613281  1592052.75000000 1265525.62500000 
0.09400    40775284.00000000 25874476.00000000 64955652.00000000 15458.79882812  1552997.12500000 1234530.87500000 
0.09500    39977756.00000000 25376076.00000000 63695080.00000000 15039.87304688  1515300.62500000 1204606.75000000 
0.09600    39205120.00000000 24892966.00000000 62473076.00000000 14638.00097656  1478938.50000000 1175736.00000000 
0.09700    38457024.00000000 24424762.00000000 61288788.00000000 14252.92382812  1443871.62500000 1147887.00000000 
0.09800    37732052.00000000 23970926.00000000 60141576.00000000 13883.87597656  1410058.50000000 1121033.75000000 
0.09900    37030128.00000000 23531610.00000000 59030792.00000000 13530.40722656  1377473.87500000 1095128.75000000 
0.10000    36350564.00000000 23106078.00000000 57955096.00000000 13191.87402344  1346069.00000000 1070173.62500000 
0.10100    35692648.00000000 22693946.00000000 56913644.00000000 12867.76953125  1315808.00000000 1046115.75000000 
0.10200    35056112.00000000 22295134.00000000 55905468.00000000 12557.37011719  1286654.87500000 1022930.06250000 
0.10300    34439976.00000000 21908888.00000000 54929712.00000000 12260.10937500  1258571.00000000 1000589.31250000 
0.10400    33843844.00000000 21535048.00000000 53985104.00000000 11975.67578125  1231507.62500000 979065.56250000 
0.10500    33266274.00000000 21173278.00000000 53071516.00000000 11703.37792969  1205457.75000000 958323.62500000 
0.10600    32707856.00000000 20822904.00000000 52186584.00000000 11442.42382812  1180329.75000000 938326.68750000 
0.10700    32167448.00000000 20483840.00000000 51330080.00000000 11192.56054688  1156134.62500000 919066.37500000 
0.10800    31644068.00000000 20155710.00000000 50500892.00000000 10953.09765625  1132801.37500000 900479.75000000 
0.10900    31137678.00000000 19837528.00000000 49697924.00000000 10723.41503906  1110315.50000000 882561.81250000 
0.11000    30646962.00000000 19529600.00000000 48920328.00000000 10503.20800781  1088612.00000000 865277.00000000 
0.11100    30171810.00000000 19230946.00000000 48166676.00000000 10291.79785156  1067683.12500000 848585.56250000 
0.11200    29711240.00000000 18941774.00000000 47436424.00000000 10088.62109375  1047462.56250000 832473.68750000 
0.11300    29264566.00000000 18661142.00000000 46728260.00000000 9893.34960938   1027930.25000000 816901.81250000 
0.11400    28831408.00000000 18388910.00000000 46041336.00000000 9705.31933594   1009055.81250000 801843.37500000 
0.11500    28411088.00000000 18124652.00000000 45374808.00000000 9524.27539062   990790.37500000 787280.31250000 
0.11600    28002948.00000000 17867956.00000000 44726988.00000000 9349.56445312   973102.75000000 773174.87500000 
0.11700    27606366.00000000 17618592.00000000 44098116.00000000 9180.85058594   955972.87500000 759502.93750000 
0.11800    27220558.00000000 17376086.00000000 43485920.00000000 9017.69042969   939340.56250000 746242.06250000 
0.11900    26845216.00000000 17139938.00000000 42890620.00000000 8859.66699219   923192.62500000 733361.87500000 
0.12000    26479498.00000000 16910038.00000000 42310436.00000000 8706.37597656   907500.37500000 720837.68750000 
0.12100    26123368.00000000 16685939.00000000 41745120.00000000 8557.51757812   892237.62500000 708663.81250000 
0.12200    25775548.00000000 16467164.00000000 41193284.00000000 8412.69726562   877365.25000000 696790.75000000 
0.12300    25436112.00000000 16253617.00000000 40654748.00000000 8271.57714844   862860.06250000 685219.43750000 
0.12400    25104236.00000000 16044869.00000000 40127920.00000000 8133.79052734   848689.56250000 673915.25000000 
0.12500    24779554.00000000 15840467.00000000 39612824.00000000 7999.07421875   834840.93750000 662866.62500000 
0.12600    24461512.00000000 15640355.00000000 39108372.00000000 7867.25244141   821275.06250000 652045.87500000 
0.12700    24149792.00000000 15444263.00000000 38613424.00000000 7737.82421875   807982.93750000 641443.93750000 
0.12800    23843674.00000000 15251614.00000000 38127648.00000000 7610.72705078   794938.06250000 631042.06250000 
0.12900    23542902.00000000 15062533.00000000 37650752.00000000 7485.73242188   782118.18750000 620821.75000000 
0.13000    23247146.00000000 14876514.00000000 37181572.00000000 7362.58691406   769509.50000000 610767.75000000 
0.13100    22956018.00000000 14693360.00000000 36719536.00000000 7241.00390625   757082.00000000 600866.43750000 
0.13200    22668988.00000000 14512796.00000000 36263924.00000000 7120.91992188   744833.75000000 591100.81250000 
0.13300    22385824.00000000 14334757.00000000 35815200.00000000 7002.16259766   732742.62500000 581468.12500000 
0.13400    22106242.00000000 14158938.00000000 35371496.00000000 6884.52246094   720789.12500000 571946.12500000 
0.13500    21829862.00000000 13985166.00000000 34933024.00000000 6767.93554688   708966.06250000 562532.87500000 
0.13600    21556468.00000000 13813140.00000000 34499440.00000000 6652.28857422   697261.06250000 553211.50000000 
0.13700    21285652.00000000 13642971.00000000 34069988.00000000 6537.36035156   685659.68750000 543974.56250000 
0.13800    21017178.00000000 13474250.00000000 33644320.00000000 6423.20996094   674150.68750000 534818.62500000 
0.13900    20751096.00000000 13306887.00000000 33222104.00000000 6309.68603516   662734.56250000 525734.06250000 
0.14000    20486928.00000000 13140923.00000000 32803082.00000000 6196.71777344   651391.62500000 516714.00000000 
0.14100    20224444.00000000 12975967.00000000 32387124.00000000 6084.31152344   640121.18750000 507749.21875000 
0.14200    19963616.00000000 12812065.00000000 31973462.00000000 5972.41064453   628912.62500000 498841.56250000 
0.14300    19704166.00000000 12649065.00000000 31562306.00000000 5860.97216797   617768.12500000 489981.00000000 
0.14400    19446206.00000000 12486863.00000000 31152920.00000000 5749.92187500   606673.00000000 481165.59375000 
0.14500    19189280.00000000 12325448.00000000 30745698.00000000 5639.33447266   595635.75000000 472394.40625000 
0.14600    18933572.00000000 12164760.00000000 30340036.00000000 5529.24609375   584652.75000000 463665.25000000 
0.14700    18678746.00000000 12004661.00000000 29936178.00000000 5419.59082031   573706.43750000 454976.37500000 
0.14800    18424806.00000000 11845100.00000000 29533650.00000000 5310.38183594   562811.62500000 446322.78125000 
0.14900    18171658.00000000 11686082.00000000 29132234.00000000 5201.66601562   551964.62500000 437708.00000000 
0.15000    17919440.00000000 11527491.00000000 28732288.00000000 5093.45751953   541152.75000000 429130.25000000 
0.15100    17667830.00000000 11369367.00000000 28333416.00000000 4985.84082031   530396.81250000 420591.50000000 
0.15200    17417082.00000000 11211791.00000000 27935786.00000000 4878.84326172   519687.15625000 412090.96875000 
0.15300    17167028.00000000 11054569.00000000 27539208.00000000 4772.49365234   509028.25000000 403633.25000000 
0.15400    16917574.00000000 10897806.00000000 27143606.00000000 4666.81542969   498416.93750000 395210.96875000 
0.15500    16669016.00000000 10741495.00000000 26749346.00000000 4561.91357422   487863.59375000 386837.46875000 
0.15600    16420933.00000000 10585498.00000000 26356058.00000000 4457.79345703   477364.59375000 378506.68750000 
0.15700    16173913.00000000 10430094.00000000 25964284.00000000 4354.58398438   466930.71875000 370226.78125000 
0.15800    15927528.00000000 10275044.00000000 25573312.00000000 4252.28271484   456556.59375000 361997.06250000 
0.15900    15681987.00000000 10120608.00000000 25183816.00000000 4150.95654297   446250.90625000 353822.03125000 
0.16000    15437375.00000000 9966666.00000000 24795826.00000000 4050.65869141   436020.50000000 345703.09375000 
0.16100    15193834.00000000 9813310.00000000 24409240.00000000 3951.52221680   425866.81250000 337647.59375000 
0.16200    14951186.00000000 9660480.00000000 24024222.00000000 3853.55834961   415792.81250000 329655.50000000 
0.16300    14709653.00000000 9508347.00000000 23640782.00000000 3756.81640625   405805.43750000 321727.78125000 
0.16400    14469315.00000000 9356887.00000000 23259354.00000000 3661.39550781   395907.56250000 313874.18750000 
0.16500    14230260.00000000 9206095.00000000 22879646.00000000 3567.27514648   386109.56250000 306096.15625000 
0.16600    13992437.00000000 9056202.00000000 22502000.00000000 3474.61450195   376406.68750000 298395.84375000 
0.16700    13756052.00000000 8907134.00000000 22126446.00000000 3383.37646484   366809.68750000 290776.62500000 
0.16800    13521190.00000000 8758777.00000000 21753368.00000000 3293.68432617   357318.96875000 283244.90625000 
0.16900    13287863.00000000 8611527.00000000 21382744.00000000 3205.56396484   347949.28125000 275802.68750000 
0.17000    13056234.00000000 8465233.00000000 21014486.00000000 3119.05200195   338695.09375000 268454.65625000 
