# SAXS profile: number of points = 501, q_min = 0, q_max = 0.5, delta_q = 0.001
#    q    intensity 
0.00000    162236528.00000000 101202000.00000000 256271728.00000000 103437.83593750 8193091.00000000 6470862.00000000 
0.00100    162201888.00000000 101179336.00000000 256214592.00000000 103409.70312500 8191061.00000000 6469258.00000000 
0.00200    162094032.00000000 101112080.00000000 256042448.00000000 103326.03125000 8184897.50000000 6464442.00000000 
0.00300    161915008.00000000 101000184.00000000 255758608.00000000 103185.31250000 8174714.50000000 6456456.00000000 
0.00400    161660400.00000000 100843264.00000000 255358288.00000000 102990.09375000 8160501.00000000 6445264.50000000 
0.00500    161333488.00000000 100641896.00000000 254846928.00000000 102738.89843750 8142225.00000000 6430915.00000000 
0.00600    160935056.00000000 100397016.00000000 254221056.00000000 102433.30468750 8119960.50000000 6413408.50000000 
0.00700    160466656.00000000 100108000.00000000 253487280.00000000 102073.73437500 8093728.50000000 6392812.00000000 
0.00800    159925120.00000000 99776296.00000000 252640432.00000000 101659.43750000 8063585.00000000 6369118.50000000 
0.00900    159315616.00000000 99402272.00000000 251686464.00000000 101192.70312500 8029519.50000000 6342397.50000000 
0.01000    158638144.00000000 98985432.00000000 250623744.00000000 100673.98437500 7991714.00000000 6312706.00000000 
0.01100    157895216.00000000 98528120.00000000 249456464.00000000 100104.49218750 7950120.50000000 6280014.00000000 
0.01200    157087072.00000000 98028400.00000000 248184576.00000000 99483.53125000  7904873.00000000 6244462.00000000 
0.01300    156211792.00000000 97489280.00000000 246809712.00000000 98814.28906250  7855987.00000000 6206057.50000000 
0.01400    155271120.00000000 96910432.00000000 245335920.00000000 98096.21093750  7803576.00000000 6164876.50000000 
0.01500    154269424.00000000 96293056.00000000 243763472.00000000 97332.03125000  7747706.00000000 6120952.00000000 
0.01600    153207760.00000000 95638296.00000000 242094448.00000000 96521.83593750  7688476.00000000 6074442.50000000 
0.01700    152085792.00000000 94946864.00000000 240334112.00000000 95667.96875000  7626013.00000000 6025334.50000000 
0.01800    150906256.00000000 94219584.00000000 238481424.00000000 94771.10937500  7560338.00000000 5973745.50000000 
0.01900    149670960.00000000 93458488.00000000 236542368.00000000 93833.00000000  7491625.00000000 5919742.00000000 
0.02000    148381296.00000000 92663464.00000000 234517088.00000000 92855.10156250  7419990.00000000 5863420.00000000 
0.02100    147040256.00000000 91836176.00000000 232409392.00000000 91839.53125000  7345489.00000000 5804827.50000000 
0.02200    145646768.00000000 90977584.00000000 230222672.00000000 90787.45312500  7268251.00000000 5744140.50000000 
0.02300    144207456.00000000 90090000.00000000 227961264.00000000 89700.50781250  7188383.50000000 5681379.00000000 
0.02400    142720320.00000000 89172784.00000000 225627104.00000000 88580.86718750  7106057.50000000 5616629.00000000 
0.02500    141190176.00000000 88228448.00000000 223220816.00000000 87430.30468750  7021397.50000000 5550056.50000000 
0.02600    139616976.00000000 87258112.00000000 220748016.00000000 86250.02343750  6934430.00000000 5481705.50000000 
0.02700    138003888.00000000 86262728.00000000 218215552.00000000 85042.84375000  6845411.00000000 5411723.00000000 
0.02800    136353808.00000000 85243264.00000000 215622144.00000000 83809.24218750  6754406.50000000 5340102.00000000 
0.02900    134668032.00000000 84203024.00000000 212973008.00000000 82552.83593750  6661570.50000000 5267089.50000000 
0.03000    132948520.00000000 83141712.00000000 210272112.00000000 81273.92187500  6566987.00000000 5192710.00000000 
0.03100    131199072.00000000 82060848.00000000 207521648.00000000 79976.04687500  6470847.50000000 5117088.00000000 
0.03200    129420816.00000000 80962448.00000000 204726032.00000000 78659.60156250  6373259.50000000 5040353.00000000 
0.03300    127616512.00000000 79848120.00000000 201890464.00000000 77327.72656250  6274387.50000000 4962529.00000000 
0.03400    125788168.00000000 78718088.00000000 199014688.00000000 75981.08593750  6174352.00000000 4883797.50000000 
0.03500    123938544.00000000 77574400.00000000 196106992.00000000 74622.99218750  6073258.00000000 4804245.00000000 
0.03600    122070008.00000000 76418904.00000000 193166592.00000000 73254.33593750  5971288.50000000 4723999.00000000 
0.03700    120183928.00000000 75253256.00000000 190201424.00000000 71877.26562500  5868561.00000000 4643135.50000000 
0.03800    118283720.00000000 74078328.00000000 187212000.00000000 70493.50000000  5765221.50000000 4561746.00000000 
0.03900    116371448.00000000 72895176.00000000 184204512.00000000 69105.78125000  5661332.50000000 4480008.50000000 
0.04000    114449632.00000000 71706176.00000000 181181344.00000000 67714.75781250  5557129.00000000 4397929.50000000 
0.04100    112519376.00000000 70511792.00000000 178143472.00000000 66322.75000000  5452654.00000000 4315696.00000000 
0.04200    110584040.00000000 69313448.00000000 175097408.00000000 64931.02734375  5348062.50000000 4233319.00000000 
0.04300    108645416.00000000 68112632.00000000 172045792.00000000 63542.38671875  5243489.50000000 4150932.00000000 
0.04400    106706272.00000000 66911016.00000000 168992560.00000000 62157.02343750  5139030.50000000 4068640.00000000 
0.04500    104767736.00000000 65709848.00000000 165940384.00000000 60777.84375000  5034866.00000000 3986560.50000000 
0.04600    102831536.00000000 64510332.00000000 162892688.00000000 59405.66406250  4931011.50000000 3904736.50000000 
0.04700    100901456.00000000 63313268.00000000 159852432.00000000 58042.26562500  4827659.00000000 3823284.25000000 
0.04800    98978696.00000000 62120680.00000000 156824560.00000000 56688.64843750  4724902.00000000 3742266.75000000 
0.04900    97064384.00000000 60933116.00000000 153808608.00000000 55347.21875000  4622804.50000000 3661793.00000000 
0.05000    95161512.00000000 59752016.00000000 150810448.00000000 54018.07812500  4521551.50000000 3581927.50000000 
0.05100    93271160.00000000 58578748.00000000 147830992.00000000 52703.44531250  4421106.50000000 3502724.25000000 
0.05200    91394728.00000000 57413692.00000000 144874080.00000000 51403.71093750  4321663.00000000 3424301.00000000 
0.05300    89535080.00000000 56258552.00000000 141941136.00000000 50121.00390625  4223324.50000000 3346686.00000000 
0.05400    87692416.00000000 55113636.00000000 139037824.00000000 48855.70312500  4126078.00000000 3269981.25000000 
0.05500    85870096.00000000 53980392.00000000 136163408.00000000 47609.14062500  4030071.00000000 3194240.00000000 
0.05600    84067640.00000000 52860032.00000000 133321680.00000000 46381.82812500  3935381.00000000 3119483.00000000 
0.05700    82287536.00000000 51752572.00000000 130513984.00000000 45175.27734375  3842071.25000000 3045829.25000000 
0.05800    80530448.00000000 50659708.00000000 127741912.00000000 43989.67578125  3750194.50000000 2973270.50000000 
0.05900    78798392.00000000 49581468.00000000 125008680.00000000 42826.17187500  3659808.50000000 2901889.50000000 
0.06000    77091448.00000000 48518952.00000000 122315240.00000000 41685.49609375  3570952.50000000 2831722.50000000 
0.06100    75411816.00000000 47472732.00000000 119663856.00000000 40568.01562500  3483730.00000000 2762810.50000000 
0.06200    73760448.00000000 46443948.00000000 117056360.00000000 39473.87109375  3398176.75000000 2695193.50000000 
0.06300    72137696.00000000 45432428.00000000 114493680.00000000 38404.48046875  3314282.25000000 2628923.25000000 
0.06400    70544640.00000000 44438696.00000000 111977856.00000000 37359.44140625  3232118.00000000 2563971.75000000 
0.06500    68982024.00000000 43464176.00000000 109508944.00000000 36339.44140625  3151728.50000000 2500428.25000000 
0.06600    67450120.00000000 42508488.00000000 107088936.00000000 35344.89062500  3073128.25000000 2438276.50000000 
0.06700    65949816.00000000 41572452.00000000 104719096.00000000 34375.30078125  2996352.75000000 2377531.00000000 
0.06800    64482384.00000000 40655808.00000000 102399376.00000000 33431.43750000  2921397.00000000 2318259.00000000 
0.06900    63047808.00000000 39759680.00000000 100131352.00000000 32513.39453125  2848292.25000000 2260403.75000000 
0.07000    61646164.00000000 38883912.00000000 97914536.00000000 31620.63281250  2777023.50000000 2204017.75000000 
0.07100    60277644.00000000 38028292.00000000 95750784.00000000 30753.90429688  2707657.50000000 2149084.25000000 
0.07200    58942576.00000000 37193580.00000000 93640200.00000000 29912.30468750  2640127.25000000 2095632.37500000 
0.07300    57642088.00000000 36379692.00000000 91581968.00000000 29096.55468750  2574478.50000000 2043672.50000000 
0.07400    56375228.00000000 35587112.00000000 89577800.00000000 28305.80273438  2510675.00000000 1993115.37500000 
0.07500    55142228.00000000 34815216.00000000 87626088.00000000 27539.75781250  2448711.50000000 1944038.87500000 
0.07600    53942684.00000000 34064204.00000000 85727768.00000000 26798.33007812  2388591.00000000 1896399.75000000 
0.07700    52777640.00000000 33334302.00000000 83884016.00000000 26081.50781250  2330296.00000000 1850187.50000000 
0.07800    51646036.00000000 32625130.00000000 82092056.00000000 25388.25976562  2273793.25000000 1805412.12500000 
0.07900    50547848.00000000 31936810.00000000 80352496.00000000 24718.80664062  2219047.50000000 1762013.75000000 
0.08000    49482960.00000000 31268880.00000000 78665608.00000000 24072.22265625  2166061.50000000 1719997.75000000 
0.08100    48450752.00000000 30621568.00000000 77031384.00000000 23448.21093750  2114800.50000000 1679342.87500000 
0.08200    47450796.00000000 29994542.00000000 75447672.00000000 22846.43554688  2065227.87500000 1640012.25000000 
0.08300    46483068.00000000 29387266.00000000 73914120.00000000 22266.03515625  2017293.25000000 1602004.25000000 
0.08400    45546524.00000000 28799506.00000000 72430320.00000000 21706.60546875  1971006.75000000 1565266.87500000 
0.08500    44641260.00000000 28231324.00000000 70995392.00000000 21167.58203125  1926298.87500000 1529769.25000000 
0.08600    43766412.00000000 27682032.00000000 69609352.00000000 20648.41992188  1883135.37500000 1495502.62500000 
0.08700    42921544.00000000 27151520.00000000 68269384.00000000 20148.14257812  1841456.62500000 1462429.12500000 
0.08800    42105488.00000000 26639006.00000000 66976632.00000000 19666.52343750  1801245.87500000 1430512.12500000 
0.08900    41318596.00000000 26144524.00000000 65728412.00000000 19202.73828125  1762463.50000000 1399708.12500000 
0.09000    40558716.00000000 25667522.00000000 64524380.00000000 18756.06640625  1725042.87500000 1369987.25000000 
0.09100    39826236.00000000 25207340.00000000 63363156.00000000 18326.09570312  1688955.37500000 1341328.00000000 
0.09200    39120092.00000000 24763838.00000000 62243648.00000000 17911.73437500  1654145.62500000 1313676.62500000 
0.09300    38439820.00000000 24336294.00000000 61164928.00000000 17512.75585938  1620562.00000000 1286998.62500000 
0.09400    37784084.00000000 23924348.00000000 60125448.00000000 17128.32226562  1588167.87500000 1261270.50000000 
0.09500    37151956.00000000 23527608.00000000 59123696.00000000 16757.60351562  1556912.12500000 1236437.87500000 
0.09600    36542908.00000000 23145288.00000000 58159032.00000000 16400.21679688  1526738.25000000 1212467.37500000 
0.09700    35956460.00000000 22777234.00000000 57229256.00000000 16055.45996094  1497614.62500000 1189337.37500000 
0.09800    35391664.00000000 22422592.00000000 56333716.00000000 15722.41210938  1469486.75000000 1166988.50000000 
0.09900    34846968.00000000 22081132.00000000 55471140.00000000 15400.75000000  1442305.50000000 1145397.37500000 
0.10000    34322104.00000000 21751966.00000000 54640028.00000000 15089.74707031  1416018.00000000 1124513.75000000 
0.10100    33816312.00000000 21434962.00000000 53838668.00000000 14788.80761719  1390595.00000000 1104312.12500000 
0.10200    33328482.00000000 21129490.00000000 53066876.00000000 14497.35058594  1365972.25000000 1084758.75000000 
0.10300    32857922.00000000 20834742.00000000 52321620.00000000 14214.78515625  1342119.75000000 1065810.87500000 
0.10400    32403526.00000000 20550614.00000000 51602852.00000000 13940.51660156  1318980.00000000 1047443.68750000 
0.10500    31965020.00000000 20276352.00000000 50909204.00000000 13674.23925781  1296533.87500000 1029625.87500000 
0.10600    31540508.00000000 20011306.00000000 50238580.00000000 13415.14160156  1274709.62500000 1012296.68750000 
0.10700    31130556.00000000 19755220.00000000 49590272.00000000 13162.76660156  1253480.12500000 995452.31250000 
0.10800    30733412.00000000 19507558.00000000 48962980.00000000 12916.66601562  1232814.62500000 979049.37500000 
0.10900    30348830.00000000 19267892.00000000 48355344.00000000 12676.50781250  1212665.50000000 963063.12500000 
0.11000    29975462.00000000 19035570.00000000 47766624.00000000 12441.82812500  1192996.12500000 947463.68750000 
0.11100    29613130.00000000 18810128.00000000 47194716.00000000 12212.18359375  1173783.25000000 932228.25000000 
0.11200    29260906.00000000 18591106.00000000 46639324.00000000 11987.13281250  1154968.62500000 917312.12500000 
0.11300    28917906.00000000 18378272.00000000 46098696.00000000 11766.39257812  1136545.87500000 902712.43750000 
0.11400    28583772.00000000 18171134.00000000 45572368.00000000 11549.76074219  1118480.62500000 888397.93750000 
0.11500    28257408.00000000 17969140.00000000 45058596.00000000 11336.68847656  1100739.62500000 874332.93750000 
0.11600    27938728.00000000 17771898.00000000 44557148.00000000 11126.93164062  1083286.25000000 860507.87500000 
0.11700    27626890.00000000 17579076.00000000 44066488.00000000 10920.37402344  1066117.00000000 846910.81250000 
0.11800    27320932.00000000 17390200.00000000 43585508.00000000 10716.66601562  1049190.87500000 833506.81250000 
0.11900    27020774.00000000 17205138.00000000 43113856.00000000 10515.48242188  1032485.12500000 820283.62500000 
0.12000    26725476.00000000 17023214.00000000 42650444.00000000 10316.82910156  1015983.25000000 807218.56250000 
0.12100    26435232.00000000 16844384.00000000 42194388.00000000 10120.51855469  999685.25000000 794315.81250000 
0.12200    26148882.00000000 16668140.00000000 41745040.00000000 9926.23339844   983545.12500000 781542.62500000 
0.12300    25866396.00000000 16494322.00000000 41301396.00000000 9733.99902344   967557.87500000 768886.62500000 
0.12400    25586936.00000000 16322590.00000000 40863172.00000000 9543.53320312   951712.81250000 756352.25000000 
0.12500    25310186.00000000 16152661.00000000 40429532.00000000 9354.82324219   935998.62500000 743913.75000000 
0.12600    25036246.00000000 15984498.00000000 39999768.00000000 9167.89355469   920395.81250000 731568.18750000 
0.12700    24764022.00000000 15817530.00000000 39573760.00000000 8982.63769531   904907.31250000 719307.50000000 
0.12800    24493938.00000000 15651779.00000000 39150032.00000000 8798.86816406   889511.43750000 707122.81250000 
0.12900    24225246.00000000 15487012.00000000 38728972.00000000 8616.74511719   874209.25000000 695012.12500000 
0.13000    23957846.00000000 15323048.00000000 38310056.00000000 8436.07812500   858992.56250000 682963.68750000 
0.13100    23691268.00000000 15159578.00000000 37892324.00000000 8256.91113281   843852.37500000 670980.68750000 
0.13200    23425648.00000000 14996618.00000000 37475956.00000000 8079.39062500   828793.18750000 659055.81250000 
0.13300    23160538.00000000 14834100.00000000 37060744.00000000 7903.35156250   813809.31250000 647191.62500000 
0.13400    22895818.00000000 14671502.00000000 36645808.00000000 7728.91992188   798896.81250000 635377.87500000 
0.13500    22631500.00000000 14509142.00000000 36231236.00000000 7556.11328125   784055.81250000 623628.62500000 
0.13600    22367260.00000000 14346901.00000000 35816744.00000000 7384.97460938   769291.81250000 611924.62500000 
0.13700    22103070.00000000 14184496.00000000 35402344.00000000 7215.55615234   754601.00000000 600284.12500000 
0.13800    21838626.00000000 14021900.00000000 34987368.00000000 7047.88867188   739989.12500000 588700.75000000 
0.13900    21574184.00000000 13859206.00000000 34572616.00000000 6882.06152344   725459.50000000 577175.68750000 
0.14000    21309722.00000000 13696261.00000000 34157112.00000000 6718.16503906   711018.00000000 565713.93750000 
0.14100    21044968.00000000 13533137.00000000 33741164.00000000 6556.29638672   696655.43750000 554321.93750000 
0.14200    20779904.00000000 13369541.00000000 33324622.00000000 6396.38867188   682384.87500000 542994.50000000 
0.14300    20514738.00000000 13205737.00000000 32907508.00000000 6238.59472656   668220.06250000 531739.56250000 
0.14400    20249192.00000000 13041670.00000000 32489952.00000000 6083.06494141   654147.43750000 520568.46875000 
0.14500    19983686.00000000 12877296.00000000 32072054.00000000 5929.75146484   640190.50000000 509473.00000000 
0.14600    19718012.00000000 12712662.00000000 31653390.00000000 5778.78857422   626347.43750000 498466.93750000 
0.14700    19452278.00000000 12547894.00000000 31234716.00000000 5630.27685547   612618.93750000 487552.00000000 
0.14800    19186496.00000000 12382852.00000000 30815708.00000000 5484.21191406   599019.81250000 476731.62500000 
0.14900    18920686.00000000 12217562.00000000 30396420.00000000 5340.69580078   585553.18750000 466009.50000000 
0.15000    18655034.00000000 12052248.00000000 29977108.00000000 5199.80615234   572228.43750000 455397.87500000 
0.15100    18389714.00000000 11886937.00000000 29558066.00000000 5061.56347656   559040.56250000 444894.18750000 
0.15200    18124652.00000000 11721489.00000000 29139038.00000000 4926.09765625   546007.00000000 434505.15625000 
0.15300    17860062.00000000 11556203.00000000 28720598.00000000 4793.33203125   533134.50000000 424238.78125000 
0.15400    17595996.00000000 11390904.00000000 28302670.00000000 4663.43359375   520416.75000000 414098.68750000 
0.15500    17332416.00000000 11225972.00000000 27885640.00000000 4536.35205078   507871.84375000 404085.00000000 
0.15600    17069784.00000000 11061167.00000000 27469224.00000000 4412.16406250   495502.34375000 394206.53125000 
0.15700    16807962.00000000 10896727.00000000 27054258.00000000 4290.91796875   483313.15625000 384471.46875000 
0.15800    16547115.00000000 10732618.00000000 26640340.00000000 4172.58105469   471305.87500000 374872.65625000 
0.15900    16287466.00000000 10569142.00000000 26228168.00000000 4057.23413086   459490.43750000 365423.65625000 
0.16000    16028840.00000000 10406058.00000000 25817196.00000000 3944.81445312   447862.15625000 356126.37500000 
0.16100    15771770.00000000 10243777.00000000 25408662.00000000 3835.41479492   436438.28125000 346984.06250000 
0.16200    15516133.00000000 10082103.00000000 25001868.00000000 3728.96875000   425211.50000000 337996.28125000 
0.16300    15262055.00000000 9921188.00000000 24597460.00000000 3625.43139648   414187.43750000 329167.59375000 
0.16400    15009775.00000000 9761209.00000000 24195496.00000000 3524.88500977   403371.03125000 320499.68750000 
0.16500    14759088.00000000 9602171.00000000 23796118.00000000 3427.25610352   392761.50000000 311997.71875000 
0.16600    14510544.00000000 9444075.00000000 23399584.00000000 3332.52441406   382372.46875000 303660.15625000 
0.16700    14263881.00000000 9287103.00000000 23006010.00000000 3240.65014648   372185.87500000 295492.50000000 
0.16800    14019328.00000000 9131338.00000000 22615400.00000000 3151.58471680   362218.43750000 287486.21875000 
0.16900    13777256.00000000 8976777.00000000 22228438.00000000 3065.33911133   352464.21875000 279658.21875000 
0.17000    13537241.00000000 8823430.00000000 21844776.00000000 2981.84814453   342924.09375000 271995.84375000 
