# SAXS profile: number of points = 501, q_min = 0, q_max = 0.5, delta_q = 0.001
#    q    intensity 
0.00000    162229056.00000000 101202576.00000000 256269600.00000000 108970.93750000 8409398.00000000 6641704.00000000 
0.00100    162188720.00000000 101172600.00000000 256195440.00000000 108929.48437500 8406560.00000000 6639481.50000000 
0.00200    162055744.00000000 101085664.00000000 255974672.00000000 108805.24218750 8397989.00000000 6632779.50000000 
0.00300    161826752.00000000 100941280.00000000 255605936.00000000 108598.87500000 8383843.00000000 6621666.00000000 
0.00400    161491824.00000000 100739312.00000000 255091456.00000000 108309.97656250 8364072.50000000 6606115.00000000 
0.00500    161066128.00000000 100477576.00000000 254426000.00000000 107940.89843750 8338690.00000000 6586202.00000000 
0.00600    160548192.00000000 100162800.00000000 253622144.00000000 107491.78906250 8307864.50000000 6562024.50000000 
0.00700    159937392.00000000 99792824.00000000 252674384.00000000 106964.28125000 8271505.50000000 6533547.50000000 
0.00800    159244592.00000000 99367080.00000000 251585744.00000000 106359.01562500 8229988.00000000 6500890.00000000 
0.00900    158464288.00000000 98887560.00000000 250360096.00000000 105678.83593750 8183109.00000000 6464160.00000000 
0.01000    157597840.00000000 98353464.00000000 248997312.00000000 104925.42968750 8131219.50000000 6423426.50000000 
0.01100    156642752.00000000 97768360.00000000 247505824.00000000 104100.95312500 8074349.50000000 6378736.50000000 
0.01200    155607616.00000000 97132144.00000000 245883520.00000000 103207.26562500 8012655.00000000 6330310.00000000 
0.01300    154495072.00000000 96448280.00000000 244136960.00000000 102246.76562500 7946323.00000000 6278257.00000000 
0.01400    153302816.00000000 95716192.00000000 242269536.00000000 101223.00781250 7875429.00000000 6222599.00000000 
0.01500    152035312.00000000 94938864.00000000 240284176.00000000 100138.03125000 7800235.00000000 6163551.00000000 
0.01600    150697648.00000000 94116424.00000000 238186832.00000000 98994.51562500  7720933.00000000 6101284.00000000 
0.01700    149289840.00000000 93251176.00000000 235978224.00000000 97797.37500000  7637695.50000000 6035852.00000000 
0.01800    147815664.00000000 92345728.00000000 233668736.00000000 96546.91406250  7550668.50000000 5967510.00000000 
0.01900    146280560.00000000 91401288.00000000 231258160.00000000 95248.03125000  7460099.50000000 5896392.00000000 
0.02000    144683664.00000000 90419688.00000000 228753248.00000000 93904.98437500  7366204.00000000 5822615.50000000 
0.02100    143031072.00000000 89402040.00000000 226160128.00000000 92520.18750000  7269242.00000000 5746420.00000000 
0.02200    141324304.00000000 88351536.00000000 223483440.00000000 91096.12500000  7169408.50000000 5667915.00000000 
0.02300    139568496.00000000 87270512.00000000 220727376.00000000 89638.25781250  7066856.00000000 5587349.50000000 
0.02400    137765648.00000000 86160088.00000000 217898848.00000000 88149.15625000  6961886.50000000 5504864.50000000 
0.02500    135920848.00000000 85022600.00000000 215000128.00000000 86631.42187500  6854708.50000000 5420535.00000000 
0.02600    134037528.00000000 83861704.00000000 212043504.00000000 85089.93750000  6745538.50000000 5334764.00000000 
0.02700    132118288.00000000 82677728.00000000 209028000.00000000 83527.51562500  6634678.00000000 5247487.00000000 
0.02800    130165608.00000000 81473056.00000000 205960768.00000000 81948.37500000  6522254.50000000 5159104.00000000 
0.02900    128185224.00000000 80251576.00000000 202849968.00000000 80355.03906250  6408561.50000000 5069646.50000000 
0.03000    126179992.00000000 79014352.00000000 199697584.00000000 78751.30468750  6293780.00000000 4979362.50000000 
0.03100    124153224.00000000 77762104.00000000 196511248.00000000 77141.21875000  6178181.00000000 4888393.50000000 
0.03200    122108080.00000000 76498936.00000000 193295808.00000000 75526.15625000  6061941.50000000 4796900.00000000 
0.03300    120048096.00000000 75225080.00000000 190056592.00000000 73911.26562500  5945264.00000000 4705034.00000000 
0.03400    117977384.00000000 73943608.00000000 186799056.00000000 72297.84375000  5828356.50000000 4612982.50000000 
0.03500    115898984.00000000 72656752.00000000 183528016.00000000 70689.07031250  5711454.50000000 4520900.00000000 
0.03600    113814856.00000000 71366448.00000000 180247424.00000000 69088.63281250  5594718.00000000 4428940.50000000 
0.03700    111730192.00000000 70075320.00000000 176966272.00000000 67497.96093750  5478336.00000000 4337213.00000000 
0.03800    109646976.00000000 68784336.00000000 173686032.00000000 65920.63281250  5362453.50000000 4245887.50000000 
0.03900    107569264.00000000 67494896.00000000 170411344.00000000 64357.59765625  5247318.50000000 4155098.00000000 
0.04000    105497312.00000000 66208668.00000000 167146880.00000000 62812.55859375  5133042.00000000 4065014.00000000 
0.04100    103435440.00000000 64928988.00000000 163899664.00000000 61286.71484375  5019757.00000000 3975705.50000000 
0.04200    101386752.00000000 63656372.00000000 160667552.00000000 59782.27343750  4907663.00000000 3887273.00000000 
0.04300    99352464.00000000 62391920.00000000 157461600.00000000 58301.16015625  4796897.00000000 3799858.00000000 
0.04400    97336256.00000000 61138532.00000000 154281872.00000000 56844.19531250  4687531.50000000 3713540.25000000 
0.04500    95340504.00000000 59896728.00000000 151132608.00000000 55413.78515625  4579743.50000000 3628461.50000000 
0.04600    93365712.00000000 58667360.00000000 148017088.00000000 54009.96093750  4473568.00000000 3544615.50000000 
0.04700    91415992.00000000 57452544.00000000 144941184.00000000 52634.94531250  4369097.50000000 3462158.25000000 
0.04800    89491560.00000000 56253608.00000000 141903280.00000000 51289.34765625  4266496.00000000 3381144.00000000 
0.04900    87594408.00000000 55071116.00000000 138907280.00000000 49973.83593750  4165774.00000000 3301554.50000000 
0.05000    85725808.00000000 53906128.00000000 135958048.00000000 48689.01171875  4067062.25000000 3223568.25000000 
0.05100    83889600.00000000 52759476.00000000 133054608.00000000 47435.50390625  3970371.75000000 3147136.25000000 
0.05200    82084008.00000000 51632768.00000000 130201512.00000000 46213.77343750  3875765.50000000 3072369.00000000 
0.05300    80312184.00000000 50525884.00000000 127399520.00000000 45024.05468750  3783307.00000000 2999230.75000000 
0.05400    78573928.00000000 49439608.00000000 124652920.00000000 43866.59765625  3692983.75000000 2927835.50000000 
0.05500    76871136.00000000 48375432.00000000 121959848.00000000 42740.94140625  3604858.75000000 2858103.00000000 
0.05600    75204328.00000000 47332848.00000000 119323704.00000000 41647.57812500  3518943.25000000 2790140.75000000 
0.05700    73574272.00000000 46312984.00000000 116744872.00000000 40585.60937500  3435252.25000000 2723911.50000000 
0.05800    71981552.00000000 45315940.00000000 114224048.00000000 39555.39453125  3353739.25000000 2659428.00000000 
0.05900    70426384.00000000 44342060.00000000 111762528.00000000 38556.63281250  3274481.00000000 2596664.00000000 
0.06000    68908912.00000000 43391452.00000000 109360312.00000000 37587.76562500  3197413.00000000 2535664.25000000 
0.06100    67429488.00000000 42464716.00000000 107019736.00000000 36649.71093750  3122500.25000000 2476382.25000000 
0.06200    65989672.00000000 41562068.00000000 104739320.00000000 35740.89453125  3049799.75000000 2418789.25000000 
0.06300    64587068.00000000 40683268.00000000 102518296.00000000 34860.96484375  2979212.25000000 2362892.00000000 
0.06400    63223064.00000000 39828500.00000000 100358960.00000000 34009.23046875  2910730.25000000 2308629.25000000 
0.06500    61897356.00000000 38997080.00000000 98259848.00000000 33184.58984375  2844293.25000000 2256057.25000000 
0.06600    60609684.00000000 38189480.00000000 96220448.00000000 32386.54101562  2779944.50000000 2205069.25000000 
0.06700    59359268.00000000 37405968.00000000 94239696.00000000 31614.25781250  2717520.75000000 2155627.50000000 
0.06800    58146984.00000000 36645320.00000000 92319648.00000000 30866.80273438  2657071.00000000 2107743.00000000 
0.06900    56971124.00000000 35907492.00000000 90456592.00000000 30143.67968750  2598508.75000000 2061378.12500000 
0.07000    55831548.00000000 35193260.00000000 88652088.00000000 29443.60742188  2541817.00000000 2016425.12500000 
0.07100    54727188.00000000 34500956.00000000 86903104.00000000 28765.69140625  2486881.00000000 1972935.75000000 
0.07200    53658280.00000000 33831000.00000000 85211072.00000000 28109.35546875  2433683.50000000 1930797.62500000 
0.07300    52623556.00000000 33183616.00000000 83573144.00000000 27473.56835938  2382176.00000000 1889996.62500000 
0.07400    51622812.00000000 32556960.00000000 81988728.00000000 26857.38476562  2332301.50000000 1850484.50000000 
0.07500    50655208.00000000 31951194.00000000 80457392.00000000 26259.83203125  2283964.00000000 1812225.87500000 
0.07600    49718988.00000000 31365596.00000000 78977232.00000000 25680.65429688  2237158.25000000 1775143.87500000 
0.07700    48814840.00000000 30799954.00000000 77545752.00000000 25118.65429688  2191790.25000000 1739253.12500000 
0.07800    47940524.00000000 30253726.00000000 76164408.00000000 24572.92578125  2147863.00000000 1704451.62500000 
0.07900    47096572.00000000 29726348.00000000 74829264.00000000 24043.09765625  2105252.75000000 1670736.12500000 
0.08000    46280780.00000000 29217280.00000000 73540240.00000000 23528.36914062  2063946.25000000 1638031.12500000 
0.08100    45493188.00000000 28725662.00000000 72296424.00000000 23027.87695312  2023874.37500000 1606317.00000000 
0.08200    44732264.00000000 28251890.00000000 71094552.00000000 22540.97460938  1984973.87500000 1575538.75000000 
0.08300    43997008.00000000 27794238.00000000 69934680.00000000 22067.08007812  1947217.37500000 1545679.62500000 
0.08400    43287356.00000000 27352910.00000000 68815896.00000000 21605.59570312  1910547.00000000 1516674.62500000 
0.08500    42602348.00000000 26926986.00000000 67734832.00000000 21156.00390625  1874912.75000000 1488492.37500000 
0.08600    41939820.00000000 26516066.00000000 66691288.00000000 20717.86914062  1840264.87500000 1461100.25000000 
0.08700    41299968.00000000 26119258.00000000 65683252.00000000 20290.52539062  1806571.75000000 1434455.50000000 
0.08800    40682208.00000000 25736454.00000000 64709884.00000000 19873.75781250  1773771.87500000 1408523.62500000 
0.08900    40083880.00000000 25366396.00000000 63769396.00000000 19466.92773438  1741822.37500000 1383279.75000000 
0.09000    39505912.00000000 25009402.00000000 62859532.00000000 19069.69140625  1710709.37500000 1358687.12500000 
0.09100    38946436.00000000 24664262.00000000 61980836.00000000 18681.46679688  1680364.62500000 1334721.37500000 
0.09200    38404760.00000000 24330650.00000000 61130060.00000000 18302.20703125  1650781.12500000 1311331.37500000 
0.09300    37880588.00000000 24007840.00000000 60307436.00000000 17931.52734375  1621885.50000000 1288514.12500000 
0.09400    37372268.00000000 23695478.00000000 59510188.00000000 17569.04882812  1593689.50000000 1266221.50000000 
0.09500    36879788.00000000 23392930.00000000 58738032.00000000 17214.53125000  1566139.50000000 1244453.37500000 
0.09600    36401620.00000000 23099714.00000000 57988820.00000000 16867.72851562  1539195.62500000 1223168.75000000 
0.09700    35937736.00000000 22815330.00000000 57261860.00000000 16528.49218750  1512837.75000000 1202357.50000000 
0.09800    35486744.00000000 22539470.00000000 56556228.00000000 16196.18750000  1487055.00000000 1181989.62500000 
0.09900    35048260.00000000 22271078.00000000 55870072.00000000 15871.14355469  1461803.87500000 1162039.37500000 
0.10000    34621628.00000000 22010572.00000000 55202444.00000000 15552.85839844  1437044.75000000 1142488.62500000 
0.10100    34205704.00000000 21756720.00000000 54551860.00000000 15241.01367188  1412799.87500000 1123326.50000000 
0.10200    33800120.00000000 21509372.00000000 53918488.00000000 14935.70019531  1389017.50000000 1104530.62500000 
0.10300    33404278.00000000 21268080.00000000 53299892.00000000 14636.68359375  1365687.00000000 1086076.62500000 
0.10400    33017346.00000000 21032478.00000000 52695520.00000000 14343.66308594  1342775.25000000 1067977.62500000 
0.10500    32639024.00000000 20802228.00000000 52104708.00000000 14056.58593750  1320280.87500000 1050196.37500000 
0.10600    32268628.00000000 20576440.00000000 51525888.00000000 13775.19628906  1298172.25000000 1032701.93750000 
0.10700    31905062.00000000 20355330.00000000 50958596.00000000 13499.44726562  1276455.12500000 1015514.75000000 
0.10800    31548418.00000000 20138280.00000000 50402236.00000000 13229.11914062  1255065.75000000 998599.68750000 
0.10900    31198176.00000000 19925146.00000000 49855112.00000000 12963.96484375  1234044.50000000 981968.81250000 
0.11000    30853472.00000000 19715446.00000000 49316852.00000000 12703.96679688  1213338.62500000 965580.12500000 
0.11100    30514012.00000000 19508702.00000000 48786600.00000000 12448.92968750  1192955.00000000 949446.18750000 
0.11200    30179378.00000000 19304844.00000000 48264256.00000000 12198.68847656  1172868.50000000 933542.93750000 
0.11300    29849152.00000000 19103536.00000000 47747408.00000000 11953.00683594  1153071.50000000 917865.25000000 
0.11400    29522810.00000000 18904404.00000000 47238004.00000000 11711.93164062  1133577.00000000 902409.62500000 
0.11500    29200078.00000000 18707292.00000000 46732896.00000000 11474.97265625  1114315.87500000 887148.81250000 
0.11600    28880348.00000000 18512060.00000000 46233128.00000000 11242.35253906  1095321.50000000 872094.37500000 
0.11700    28563672.00000000 18318430.00000000 45737268.00000000 11013.81347656  1076584.37500000 857235.43750000 
0.11800    28249426.00000000 18125740.00000000 45244908.00000000 10789.04296875  1058065.25000000 842548.37500000 
0.11900    27937258.00000000 17934408.00000000 44756436.00000000 10567.94042969  1039776.75000000 828043.87500000 
0.12000    27627130.00000000 17744114.00000000 44269736.00000000 10350.49023438  1021709.31250000 813707.56250000 
0.12100    27318716.00000000 17554436.00000000 43785832.00000000 10136.48925781  1003849.68750000 799533.56250000 
0.12200    27011570.00000000 17365530.00000000 43303664.00000000 9925.79199219   986188.81250000 785515.62500000 
0.12300    26705706.00000000 17177034.00000000 42823648.00000000 9718.27636719   968724.31250000 771647.93750000 
0.12400    26400838.00000000 16988938.00000000 42344212.00000000 9513.78613281   951436.75000000 757928.62500000 
0.12500    26096830.00000000 16800938.00000000 41866148.00000000 9312.24707031   934331.31250000 744343.06250000 
0.12600    25793506.00000000 16613233.00000000 41388720.00000000 9113.55566406   917413.37500000 730905.31250000 
0.12700    25490434.00000000 16425490.00000000 40911144.00000000 8917.57031250   900649.12500000 717592.18750000 
0.12800    25188114.00000000 16237793.00000000 40434312.00000000 8724.25683594   884052.06250000 704405.37500000 
0.12900    24885814.00000000 16049885.00000000 39957564.00000000 8533.48242188   867621.93750000 691350.68750000 
0.13000    24583766.00000000 15861850.00000000 39481220.00000000 8345.16113281   851343.43750000 678418.37500000 
0.13100    24282068.00000000 15673642.00000000 39004280.00000000 8159.24707031   835230.62500000 665603.87500000 
0.13200    23980128.00000000 15485207.00000000 38527140.00000000 7975.70507812   819248.87500000 652911.50000000 
0.13300    23678490.00000000 15296523.00000000 38050416.00000000 7794.48046875   803433.00000000 640337.93750000 
0.13400    23376908.00000000 15107736.00000000 37572752.00000000 7615.43164062   787753.00000000 627870.93750000 
0.13500    23075066.00000000 14918594.00000000 37094768.00000000 7438.79589844   772225.68750000 615531.62500000 
0.13600    22773608.00000000 14729324.00000000 36617076.00000000 7264.30419922   756842.18750000 603295.18750000 
0.13700    22472092.00000000 14539718.00000000 36139156.00000000 7092.02685547   741602.43750000 591187.00000000 
0.13800    22170726.00000000 14350148.00000000 35660544.00000000 6921.94384766   726513.81250000 579182.56250000 
0.13900    21869458.00000000 14160252.00000000 35182568.00000000 6754.22265625   711580.43750000 567302.87500000 
0.14000    21568406.00000000 13970495.00000000 34704208.00000000 6588.70117188   696780.56250000 555543.06250000 
0.14100    21267710.00000000 13780580.00000000 34226592.00000000 6425.53857422   682148.06250000 543895.31250000 
0.14200    20967634.00000000 13590829.00000000 33749364.00000000 6264.68408203   667660.68750000 532379.18750000 
0.14300    20667846.00000000 13401166.00000000 33272224.00000000 6106.20654297   653339.93750000 520977.06250000 
0.14400    20368802.00000000 13211567.00000000 32796194.00000000 5950.17089844   639167.12500000 509710.81250000 
0.14500    20070210.00000000 13022337.00000000 32321022.00000000 5796.70068359   625165.00000000 498568.62500000 
0.14600    19772636.00000000 12833475.00000000 31847076.00000000 5645.70849609   611335.93750000 487555.62500000 
0.14700    19476126.00000000 12645156.00000000 31374162.00000000 5497.37109375   597671.81250000 476684.06250000 
0.14800    19180774.00000000 12457195.00000000 30903168.00000000 5351.72998047   584176.06250000 465942.53125000 
0.14900    18886506.00000000 12269908.00000000 30433558.00000000 5208.81494141   570868.43750000 455344.28125000 
0.15000    18593868.00000000 12083396.00000000 29966078.00000000 5068.75537109   557738.68750000 444890.84375000 
0.15100    18302466.00000000 11897672.00000000 29501274.00000000 4931.56689453   544801.50000000 434579.59375000 
0.15200    18013206.00000000 11712870.00000000 29038642.00000000 4797.38671875   532059.12500000 424427.09375000 
0.15300    17725364.00000000 11529091.00000000 28578710.00000000 4666.18310547   519507.28125000 414422.40625000 
0.15400    17439538.00000000 11346386.00000000 28121866.00000000 4538.03857422   507156.81250000 404577.37500000 
0.15500    17156074.00000000 11164846.00000000 27668246.00000000 4413.07714844   495007.56250000 394889.31250000 
0.15600    16874408.00000000 10984683.00000000 27217800.00000000 4291.25488281   483063.87500000 385362.31250000 
0.15700    16595501.00000000 10805897.00000000 26771236.00000000 4172.74414062   471334.71875000 376004.18750000 
0.15800    16318932.00000000 10628555.00000000 26328364.00000000 4057.40576172   459817.31250000 366806.53125000 
0.15900    16045135.00000000 10452858.00000000 25889684.00000000 3945.48925781   448517.31250000 357788.21875000 
0.16000    15773914.00000000 10278722.00000000 25454932.00000000 3836.82104492   437432.68750000 348929.75000000 
0.16100    15505715.00000000 10106345.00000000 25025098.00000000 3731.55297852   426573.71875000 340253.00000000 
0.16200    15240467.00000000 9935844.00000000 24600024.00000000 3629.58959961   415932.50000000 331748.40625000 
0.16300    14978322.00000000 9767122.00000000 24179276.00000000 3530.99511719   405518.87500000 323415.21875000 
0.16400    14719412.00000000 9600328.00000000 23763894.00000000 3435.74975586   395325.65625000 315263.37500000 
0.16500    14463734.00000000 9435601.00000000 23353468.00000000 3343.81542969   385362.84375000 307286.75000000 
0.16600    14211427.00000000 9272864.00000000 22948356.00000000 3255.18774414   375622.87500000 299484.71875000 
0.16700    13962523.00000000 9112315.00000000 22548382.00000000 3169.80102539   366101.31250000 291861.06250000 
0.16800    13717170.00000000 8953848.00000000 22154124.00000000 3087.58154297   356811.03125000 284411.28125000 
0.16900    13475296.00000000 8797698.00000000 21765310.00000000 3008.62036133   347743.00000000 277139.12500000 
0.17000    13237031.00000000 8643537.00000000 21382526.00000000 2932.68334961   338891.00000000 270037.12500000 
