# SAXS profile: number of points = 501, q_min = 0, q_max = 0.5, delta_q = 0.001
#    q    intensity 
0.00000    162235792.00000000 101201720.00000000 256270480.00000000 111354.32812500 8500886.00000000 6713907.50000000 
0.00100    162197520.00000000 101177304.00000000 256207856.00000000 111320.52343750 8498511.00000000 6712091.50000000 
0.00200    162082032.00000000 101104176.00000000 256022496.00000000 111218.48437500 8491397.00000000 6706541.00000000 
0.00300    161885616.00000000 100983120.00000000 255712848.00000000 111048.04687500 8479676.00000000 6697324.00000000 
0.00400    161609168.00000000 100812848.00000000 255278464.00000000 110811.08593750 8463265.00000000 6684440.50000000 
0.00500    161253552.00000000 100594224.00000000 254722400.00000000 110506.60156250 8442188.00000000 6667894.00000000 
0.00600    160819264.00000000 100327104.00000000 254040944.00000000 110135.87500000 8416546.00000000 6647774.50000000 
0.00700    160309776.00000000 100013856.00000000 253242256.00000000 109699.10937500 8386285.50000000 6624043.50000000 
0.00800    159719568.00000000 99653304.00000000 252324320.00000000 109197.78906250 8351582.50000000 6596789.00000000 
0.00900    159056736.00000000 99247016.00000000 251285792.00000000 108632.25000000 8312408.00000000 6566063.00000000 
0.01000    158319344.00000000 98795832.00000000 250131504.00000000 108004.10937500 8268886.00000000 6531887.00000000 
0.01100    157512336.00000000 98298736.00000000 248863264.00000000 107314.44531250 8221030.00000000 6494401.50000000 
0.01200    156633168.00000000 97757680.00000000 247482160.00000000 106564.36718750 8169006.50000000 6453483.00000000 
0.01300    155682288.00000000 97172736.00000000 245990288.00000000 105755.60156250 8112851.00000000 6409383.00000000 
0.01400    154660688.00000000 96545056.00000000 244391088.00000000 104889.10156250 8052685.50000000 6362172.50000000 
0.01500    153573888.00000000 95876408.00000000 242686048.00000000 103967.30468750 7988589.50000000 6311833.50000000 
0.01600    152421488.00000000 95168000.00000000 240879328.00000000 102991.36718750 7920668.50000000 6258543.00000000 
0.01700    151206544.00000000 94420536.00000000 238971248.00000000 101963.64062500 7849101.50000000 6202301.50000000 
0.01800    149927792.00000000 93634736.00000000 236967184.00000000 100885.29687500 7773950.50000000 6143323.50000000 
0.01900    148588960.00000000 92812496.00000000 234869552.00000000 99758.76562500  7695389.00000000 6081614.00000000 
0.02000    147194064.00000000 91954272.00000000 232680048.00000000 98585.68750000  7613495.00000000 6017260.50000000 
0.02100    145742992.00000000 91061968.00000000 230405264.00000000 97369.39062500  7528430.50000000 5950482.00000000 
0.02200    144238880.00000000 90136584.00000000 228045792.00000000 96110.72656250  7440400.50000000 5881307.50000000 
0.02300    142684192.00000000 89179976.00000000 225606080.00000000 94812.79687500  7349454.00000000 5809905.00000000 
0.02400    141080016.00000000 88193360.00000000 223088816.00000000 93477.21093750  7255720.50000000 5736296.50000000 
0.02500    139429984.00000000 87178016.00000000 220500080.00000000 92107.41406250  7159524.50000000 5660700.00000000 
0.02600    137736688.00000000 86135624.00000000 217842624.00000000 90704.63281250  7060860.50000000 5583184.00000000 
0.02700    136001536.00000000 85067632.00000000 215121824.00000000 89272.05468750  6959930.50000000 5503898.00000000 
0.02800    134228032.00000000 83974896.00000000 212337440.00000000 87811.57812500  6856923.00000000 5422950.00000000 
0.02900    132418688.00000000 82860256.00000000 209497728.00000000 86325.53906250  6751974.00000000 5340483.00000000 
0.03000    130576224.00000000 81724536.00000000 206603904.00000000 84817.14062500  6645268.50000000 5256623.00000000 
0.03100    128701784.00000000 80570392.00000000 203661760.00000000 83288.64843750  6536932.00000000 5171463.00000000 
0.03200    126799608.00000000 79398296.00000000 200675424.00000000 81742.21875000  6427183.00000000 5085177.00000000 
0.03300    124872592.00000000 78210560.00000000 197648448.00000000 80180.63281250  6316141.50000000 4997898.00000000 
0.03400    122921640.00000000 77008000.00000000 194586784.00000000 78605.91406250  6203995.00000000 4909716.00000000 
0.03500    120951232.00000000 75792528.00000000 191490608.00000000 77021.41406250  6090872.50000000 4820782.50000000 
0.03600    118962696.00000000 74565448.00000000 188366496.00000000 75428.70312500  5977007.50000000 4731209.00000000 
0.03700    116959856.00000000 73329768.00000000 185219760.00000000 73829.83593750  5862500.50000000 4641126.00000000 
0.03800    114944280.00000000 72086624.00000000 182052912.00000000 72228.40625000  5747531.00000000 4550691.00000000 
0.03900    112919032.00000000 70836816.00000000 178871936.00000000 70626.28906250  5632256.00000000 4460028.50000000 
0.04000    110886512.00000000 69582632.00000000 175677136.00000000 69024.68750000  5516820.00000000 4369183.50000000 
0.04100    108850176.00000000 68324552.00000000 172476240.00000000 67426.70312500  5401357.50000000 4278347.50000000 
0.04200    106811048.00000000 67064420.00000000 169270400.00000000 65834.68750000  5286079.50000000 4187605.50000000 
0.04300    104772296.00000000 65804360.00000000 166065424.00000000 64250.09765625  5171088.50000000 4097068.00000000 
0.04400    102736512.00000000 64545848.00000000 162863280.00000000 62675.43359375  5056519.50000000 4006861.75000000 
0.04500    100705856.00000000 63290212.00000000 159669600.00000000 61112.53515625  4942538.00000000 3917088.00000000 
0.04600    98682744.00000000 62038476.00000000 156486016.00000000 59562.92187500  4829211.50000000 3827875.50000000 
0.04700    96668488.00000000 60792736.00000000 153318560.00000000 58028.78906250  4716759.50000000 3739285.00000000 
0.04800    94667192.00000000 59553516.00000000 150168224.00000000 56511.48828125  4605261.50000000 3651444.00000000 
0.04900    92679304.00000000 58322636.00000000 147040576.00000000 55013.21093750  4494831.50000000 3564406.50000000 
0.05000    90706960.00000000 57101128.00000000 143935680.00000000 53534.92187500  4385588.50000000 3478323.75000000 
0.05100    88753304.00000000 55890348.00000000 140858704.00000000 52078.29687500  4277612.00000000 3393237.50000000 
0.05200    86818816.00000000 54691316.00000000 137812192.00000000 50644.99609375  4171075.75000000 3309210.00000000 
0.05300    84905800.00000000 53505272.00000000 134799456.00000000 49235.54687500  4066029.00000000 3226371.75000000 
0.05400    83016672.00000000 52333340.00000000 131824176.00000000 47851.71484375  3962547.00000000 3144779.25000000 
0.05500    81151488.00000000 51176196.00000000 128886512.00000000 46494.66406250  3860769.75000000 3064471.75000000 
0.05600    79313824.00000000 50034620.00000000 125989680.00000000 45164.72656250  3760721.00000000 2985534.25000000 
0.05700    77503376.00000000 48910276.00000000 123135536.00000000 43863.47265625  3662512.50000000 2908022.50000000 
0.05800    75722320.00000000 47803764.00000000 120328336.00000000 42591.24609375  3566202.25000000 2831969.75000000 
0.05900    73971552.00000000 46715524.00000000 117567192.00000000 41349.08984375  3471841.00000000 2757470.75000000 
0.06000    72252392.00000000 45646256.00000000 114856312.00000000 40137.57812500  3379474.00000000 2684518.50000000 
0.06100    70566496.00000000 44597344.00000000 112196072.00000000 38957.10546875  3289170.75000000 2613187.75000000 
0.06200    68914312.00000000 43568744.00000000 109587816.00000000 37807.88671875  3200992.25000000 2543516.50000000 
0.06300    67297264.00000000 42561232.00000000 107034392.00000000 36690.54296875  3114956.75000000 2475500.75000000 
0.06400    65714160.00000000 41575172.00000000 104536368.00000000 35605.26562500  3031089.75000000 2409173.50000000 
0.06500    64168780.00000000 40611652.00000000 102095008.00000000 34552.51171875  2949404.75000000 2344591.00000000 
0.06600    62659380.00000000 39670576.00000000 99711480.00000000 33531.65234375  2869954.25000000 2281751.25000000 
0.06700    61187576.00000000 38751804.00000000 97385792.00000000 32543.27148438  2792751.75000000 2220642.75000000 
0.06800    59753272.00000000 37856372.00000000 95119128.00000000 31587.13085938  2717767.00000000 2161299.25000000 
0.06900    58357476.00000000 36984236.00000000 92911936.00000000 30663.32226562  2645053.25000000 2103721.50000000 
0.07000    56999768.00000000 36135600.00000000 90765096.00000000 29770.97265625  2574563.25000000 2047923.50000000 
0.07100    55680884.00000000 35310660.00000000 88678768.00000000 28910.36914062  2506338.50000000 1993847.25000000 
0.07200    54400160.00000000 34509248.00000000 86652296.00000000 28080.85351562  2440303.25000000 1941529.37500000 
0.07300    53158132.00000000 33731968.00000000 84687280.00000000 27282.29296875  2376520.50000000 1890957.25000000 
0.07400    51955296.00000000 32977930.00000000 82781760.00000000 26513.86132812  2314920.25000000 1842110.50000000 
0.07500    50790224.00000000 32247842.00000000 80937736.00000000 25775.13867188  2255479.00000000 1794957.75000000 
0.07600    49663692.00000000 31540934.00000000 79152432.00000000 25065.60156250  2198180.25000000 1749489.12500000 
0.07700    48574628.00000000 30857540.00000000 77427728.00000000 24384.51562500  2142991.25000000 1705673.25000000 
0.07800    47523700.00000000 30197550.00000000 75761392.00000000 23731.28906250  2089849.75000000 1663490.75000000 
0.07900    46509760.00000000 29560360.00000000 74153672.00000000 23104.98437500  2038776.50000000 1622912.25000000 
0.08000    45532356.00000000 28945774.00000000 72603312.00000000 22505.28515625  1989657.75000000 1583882.37500000 
0.08100    44591016.00000000 28353482.00000000 71109712.00000000 21930.98828125  1942500.87500000 1546395.25000000 
0.08200    43685188.00000000 27783312.00000000 69671928.00000000 21381.19726562  1897229.12500000 1510406.00000000 
0.08300    42813640.00000000 27234510.00000000 68289424.00000000 20855.36328125  1853802.62500000 1475849.87500000 
0.08400    41977016.00000000 26707058.00000000 66960004.00000000 20352.63476562  1812147.75000000 1442713.75000000 
0.08500    41172984.00000000 26200030.00000000 65683564.00000000 19871.71093750  1772254.12500000 1410943.37500000 
0.08600    40402052.00000000 25713442.00000000 64457632.00000000 19412.22460938  1734017.75000000 1380507.25000000 
0.08700    39662428.00000000 25246420.00000000 63282268.00000000 18972.83789062  1697411.00000000 1351352.00000000 
0.08800    38953972.00000000 24798672.00000000 62156008.00000000 18552.74609375  1662358.87500000 1323408.37500000 
0.08900    38275324.00000000 24369696.00000000 61076356.00000000 18151.29882812  1628799.00000000 1296669.62500000 
0.09000    37625484.00000000 23958632.00000000 60042612.00000000 17767.29492188  1596686.00000000 1271059.25000000 
0.09100    37003612.00000000 23565252.00000000 59053416.00000000 17399.72656250  1565946.50000000 1246543.62500000 
0.09200    36408912.00000000 23188592.00000000 58106548.00000000 17047.85937500  1536511.25000000 1223065.25000000 
0.09300    35840112.00000000 22828302.00000000 57200844.00000000 16710.90039062  1508330.87500000 1200580.62500000 
0.09400    35296264.00000000 22483596.00000000 56335180.00000000 16387.70703125  1481329.87500000 1179028.00000000 
0.09500    34776532.00000000 22153928.00000000 55506840.00000000 16077.67773438  1455460.00000000 1158365.12500000 
0.09600    34279436.00000000 21838784.00000000 54715144.00000000 15779.70214844  1430647.37500000 1138563.12500000 
0.09700    33804128.00000000 21537352.00000000 53958032.00000000 15493.08593750  1406847.50000000 1119548.50000000 
0.09800    33349340.00000000 21249002.00000000 53233920.00000000 15217.00195312  1383970.75000000 1101289.50000000 
0.09900    32914996.00000000 20973430.00000000 52541448.00000000 14950.67187500  1361990.62500000 1083728.12500000 
0.10000    32498970.00000000 20709518.00000000 51879068.00000000 14693.29003906  1340821.50000000 1066819.87500000 
0.10100    32100722.00000000 20456578.00000000 51244324.00000000 14444.11621094  1320412.87500000 1050529.62500000 
0.10200    31719082.00000000 20214386.00000000 50636228.00000000 14202.41601562  1300729.87500000 1034800.75000000 
0.10300    31353074.00000000 19982170.00000000 50053076.00000000 13967.68457031  1281683.62500000 1019598.25000000 
0.10400    31001824.00000000 19759378.00000000 49493068.00000000 13739.09179688  1263243.75000000 1004884.12500000 
0.10500    30664048.00000000 19545314.00000000 48955108.00000000 13516.09179688  1245372.75000000 990604.25000000 
0.10600    30338824.00000000 19339122.00000000 48437416.00000000 13298.15332031  1227982.37500000 976730.06250000 
0.10700    30025232.00000000 19140660.00000000 47938136.00000000 13084.63183594  1211052.62500000 963228.56250000 
0.10800    29722506.00000000 18949078.00000000 47456496.00000000 12875.05175781  1194538.50000000 950060.75000000 
0.10900    29429716.00000000 18763830.00000000 46990720.00000000 12669.00488281  1178385.00000000 937178.18750000 
0.11000    29145578.00000000 18584456.00000000 46538800.00000000 12466.00097656  1162554.12500000 924563.75000000 
0.11100    28869652.00000000 18410308.00000000 46100700.00000000 12265.64160156  1147012.50000000 912185.81250000 
0.11200    28600988.00000000 18241000.00000000 45674332.00000000 12067.48925781  1131719.75000000 900012.75000000 
0.11300    28339170.00000000 18075996.00000000 45258180.00000000 11871.32031250  1116641.37500000 888010.50000000 
0.11400    28082796.00000000 17914882.00000000 44851476.00000000 11676.70019531  1101760.00000000 876167.68750000 
0.11500    27831624.00000000 17756948.00000000 44453248.00000000 11483.48535156  1087020.87500000 864444.00000000 
0.11600    27584712.00000000 17602100.00000000 44061996.00000000 11291.34765625  1072406.50000000 852833.06250000 
0.11700    27341158.00000000 17449588.00000000 43676784.00000000 11100.16406250  1057894.62500000 841302.06250000 
0.11800    27101106.00000000 17299138.00000000 43296508.00000000 10909.60156250  1043455.81250000 829838.56250000 
0.11900    26863100.00000000 17150618.00000000 42920188.00000000 10719.51464844  1029073.93750000 818420.50000000 
0.12000    26627064.00000000 17003318.00000000 42547500.00000000 10530.01367188  1014722.18750000 807037.37500000 
0.12100    26392648.00000000 16857064.00000000 42177144.00000000 10340.90234375  1000398.81250000 795681.12500000 
0.12200    26158750.00000000 16711588.00000000 41807796.00000000 10151.91894531  986078.12500000 784324.50000000 
0.12300    25925470.00000000 16566429.00000000 41440132.00000000 9963.25585938   971757.18750000 772971.93750000 
0.12400    25692100.00000000 16421351.00000000 41072240.00000000 9774.75488281   957412.93750000 761603.25000000 
0.12500    25458496.00000000 16276340.00000000 40703900.00000000 9586.53613281   943039.18750000 750219.31250000 
0.12600    25224186.00000000 16130965.00000000 40334764.00000000 9398.53417969   928636.25000000 738813.93750000 
0.12700    24988656.00000000 15985056.00000000 39963832.00000000 9210.75390625   914191.62500000 727374.25000000 
0.12800    24752068.00000000 15838456.00000000 39591520.00000000 9023.33496094   899702.37500000 715909.06250000 
0.12900    24513778.00000000 15690930.00000000 39216560.00000000 8836.30859375   885169.50000000 704406.50000000 
0.13000    24273816.00000000 15542505.00000000 38838904.00000000 8649.74316406   870601.25000000 692872.75000000 
0.13100    24031888.00000000 15392888.00000000 38458216.00000000 8463.79101562   855977.25000000 681298.93750000 
0.13200    23787796.00000000 15241903.00000000 38074236.00000000 8278.63574219   841322.18750000 669699.18750000 
0.13300    23541586.00000000 15089677.00000000 37686904.00000000 8094.20996094   826626.75000000 658064.25000000 
0.13400    23293122.00000000 14936017.00000000 37296200.00000000 7910.77539062   811893.00000000 646405.81250000 
0.13500    23042274.00000000 14780904.00000000 36901464.00000000 7728.42724609   797144.43750000 634722.37500000 
0.13600    22789066.00000000 14624313.00000000 36502964.00000000 7547.28955078   782364.50000000 623023.56250000 
0.13700    22533292.00000000 14466147.00000000 36100796.00000000 7367.56250000   767577.06250000 611315.00000000 
0.13800    22275192.00000000 14306460.00000000 35694392.00000000 7189.34716797   752783.93750000 599597.37500000 
0.13900    22014824.00000000 14145259.00000000 35284724.00000000 7012.81005859   737996.56250000 587883.37500000 
0.14000    21752064.00000000 13982655.00000000 34871276.00000000 6838.14599609   723229.12500000 576178.50000000 
0.14100    21487012.00000000 13818484.00000000 34454092.00000000 6665.45605469   708483.93750000 564495.12500000 
0.14200    21219970.00000000 13652895.00000000 34033280.00000000 6494.88964844   693772.31250000 552835.50000000 
0.14300    20950812.00000000 13486042.00000000 33609676.00000000 6326.58935547   679113.06250000 541211.43750000 
0.14400    20679596.00000000 13317759.00000000 33182208.00000000 6160.74169922   664507.06250000 529622.37500000 
0.14500    20406786.00000000 13148394.00000000 32752248.00000000 5997.44433594   649980.50000000 518091.34375000 
0.14600    20132608.00000000 12977795.00000000 32319468.00000000 5836.88964844   635529.31250000 506624.96875000 
0.14700    19856680.00000000 12806257.00000000 31884644.00000000 5679.11425781   621183.81250000 495224.50000000 
0.14800    19579540.00000000 12633772.00000000 31447204.00000000 5524.27734375   606932.81250000 483906.87500000 
0.14900    19301410.00000000 12460497.00000000 31007916.00000000 5372.46386719   592799.00000000 472676.37500000 
0.15000    19022370.00000000 12286464.00000000 30567216.00000000 5223.88427734   578801.62500000 461539.90625000 
0.15100    18742624.00000000 12111896.00000000 30125064.00000000 5078.50830078   564936.06250000 450510.75000000 
0.15200    18462424.00000000 11936835.00000000 29682046.00000000 4936.49121094   551223.12500000 439600.00000000 
0.15300    18181942.00000000 11761507.00000000 29238640.00000000 4797.86669922   537675.56250000 428807.62500000 
0.15400    17901396.00000000 11585860.00000000 28794424.00000000 4662.69042969   524292.56250000 418148.56250000 
0.15500    17621122.00000000 11410256.00000000 28350562.00000000 4531.09326172   511092.71875000 407627.18750000 
0.15600    17341052.00000000 11234667.00000000 27907142.00000000 4403.10058594   498084.15625000 397251.12500000 
0.15700    17061700.00000000 11059294.00000000 27464224.00000000 4278.70947266   485275.78125000 387029.68750000 
0.15800    16783314.00000000 10884138.00000000 27022554.00000000 4157.97021484   472674.78125000 376966.28125000 
0.15900    16505712.00000000 10709590.00000000 26582166.00000000 4040.90991211   460283.43750000 367070.12500000 
0.16000    16229441.00000000 10535525.00000000 26143512.00000000 3927.49438477   448114.50000000 357342.34375000 
0.16100    15954638.00000000 10362254.00000000 25707066.00000000 3817.82617188   436180.31250000 347796.65625000 
0.16200    15681495.00000000 10189724.00000000 25272900.00000000 3711.78100586   424472.84375000 338425.28125000 
0.16300    15410182.00000000 10018146.00000000 24841302.00000000 3609.38330078   413008.62500000 329242.06250000 
0.16400    15140925.00000000 9847765.00000000 24412722.00000000 3510.62329102   401786.00000000 320250.50000000 
0.16500    14873879.00000000 9678537.00000000 23987516.00000000 3415.40551758   390811.40625000 311449.31250000 
0.16600    14609327.00000000 9510685.00000000 23565742.00000000 3323.77343750   380089.09375000 302842.31250000 
0.16700    14347241.00000000 9344104.00000000 23147978.00000000 3235.58496094   369614.96875000 294434.90625000 
0.16800    14087876.00000000 9179180.00000000 22734096.00000000 3150.82958984   359398.59375000 286222.56250000 
0.16900    13831399.00000000 9015796.00000000 22324748.00000000 3069.45385742   349436.84375000 278214.12500000 
0.17000    13578118.00000000 8854287.00000000 21920042.00000000 2991.36840820   339733.65625000 270404.31250000 
