# SAXS profile: number of points = 501, q_min = 0, q_max = 0.5, delta_q = 0.001
#    q    intensity 
0.00000    162230400.00000000 101202040.00000000 256270720.00000000 103987.37500000 8214802.00000000 6488046.50000000 
0.00100    162199472.00000000 101179464.00000000 256213168.00000000 103955.76562500 8212630.50000000 6486294.00000000 
0.00200    162097008.00000000 101113352.00000000 256045840.00000000 103859.93750000 8206017.50000000 6481169.50000000 
0.00300    161921120.00000000 101002272.00000000 255763920.00000000 103701.47656250 8195077.00000000 6472534.00000000 
0.00400    161666448.00000000 100847440.00000000 255367296.00000000 103480.16406250 8179724.50000000 6460532.00000000 
0.00500    161339904.00000000 100649192.00000000 254859776.00000000 103195.96093750 8160112.00000000 6445082.50000000 
0.00600    160946752.00000000 100406104.00000000 254240224.00000000 102850.23437500 8136136.50000000 6426297.00000000 
0.00700    160476608.00000000 100121192.00000000 253513776.00000000 102443.40625000 8108001.50000000 6404180.00000000 
0.00800    159938688.00000000 99793960.00000000 252677232.00000000 101977.15625000 8075589.50000000 6378778.50000000 
0.00900    159337648.00000000 99425432.00000000 251732288.00000000 101451.00000000 8039116.00000000 6350150.50000000 
0.01000    158668320.00000000 99014552.00000000 250681280.00000000 100866.18750000 7998602.50000000 6318295.50000000 
0.01100    157933776.00000000 98562256.00000000 249527408.00000000 100226.49218750 7954073.50000000 6283370.00000000 
0.01200    157128752.00000000 98069520.00000000 248270336.00000000 99530.52343750  7905715.50000000 6245383.50000000 
0.01300    156260944.00000000 97537872.00000000 246913280.00000000 98780.76562500  7853539.50000000 6204393.50000000 
0.01400    155332688.00000000 96967592.00000000 245455872.00000000 97978.85937500  7797655.50000000 6160530.50000000 
0.01500    154342240.00000000 96360288.00000000 243904208.00000000 97126.21875000  7738242.00000000 6113842.50000000 
0.01600    153291488.00000000 95716328.00000000 242260784.00000000 96225.75781250  7675326.50000000 6064458.00000000 
0.01700    152183792.00000000 95035512.00000000 240524096.00000000 95278.00781250  7609062.50000000 6012364.00000000 
0.01800    151020032.00000000 94320832.00000000 238700112.00000000 94285.26562500  7539522.00000000 5957798.50000000 
0.01900    149801248.00000000 93573368.00000000 236788880.00000000 93250.16406250  7466935.00000000 5900734.50000000 
0.02000    148529952.00000000 92792856.00000000 234798512.00000000 92174.60156250  7391334.50000000 5841362.50000000 
0.02100    147209504.00000000 91981024.00000000 232725968.00000000 91060.47656250  7312943.00000000 5779770.50000000 
0.02200    145838336.00000000 91138824.00000000 230576208.00000000 89909.66406250  7231855.00000000 5716050.50000000 
0.02300    144423056.00000000 90267928.00000000 228354848.00000000 88725.08593750  7148170.00000000 5650301.50000000 
0.02400    142960688.00000000 89369528.00000000 226063808.00000000 87508.33593750  7062138.50000000 5582666.00000000 
0.02500    141458016.00000000 88444928.00000000 223705696.00000000 86263.26562500  6973797.00000000 5513271.00000000 
0.02600    139914864.00000000 87494656.00000000 221284464.00000000 84990.13281250  6883386.50000000 5442179.00000000 
0.02700    138333008.00000000 86521368.00000000 218803200.00000000 83693.42968750  6791024.00000000 5369565.50000000 
0.02800    136715248.00000000 85525728.00000000 216265552.00000000 82372.81250000  6696859.00000000 5295530.00000000 
0.02900    135066800.00000000 84509152.00000000 213674528.00000000 81033.50000000  6601048.00000000 5220149.50000000 
0.03000    133384048.00000000 83472800.00000000 211036144.00000000 79676.97656250  6503713.50000000 5143620.50000000 
0.03100    131674136.00000000 82418800.00000000 208348976.00000000 78303.96875000  6405074.50000000 5066035.00000000 
0.03200    129937672.00000000 81347672.00000000 205620064.00000000 76918.10937500  6305195.50000000 4987462.50000000 
0.03300    128177056.00000000 80261352.00000000 202855344.00000000 75521.80468750  6204286.00000000 4908073.50000000 
0.03400    126394080.00000000 79161640.00000000 200054880.00000000 74117.50000000  6102516.50000000 4827990.00000000 
0.03500    124590920.00000000 78048928.00000000 197221088.00000000 72706.78906250  6000015.00000000 4747274.00000000 
0.03600    122771304.00000000 76925600.00000000 194359808.00000000 71292.19531250  5896819.50000000 4666122.50000000 
0.03700    120936168.00000000 75790488.00000000 191473792.00000000 69874.64843750  5793257.50000000 4584556.50000000 
0.03800    119087752.00000000 74646904.00000000 188566976.00000000 68457.92968750  5689317.00000000 4502736.00000000 
0.03900    117229504.00000000 73497680.00000000 185643040.00000000 67043.14062500  5585190.50000000 4420732.50000000 
0.04000    115361320.00000000 72341952.00000000 182705072.00000000 65631.96875000  5481052.50000000 4338683.50000000 
0.04100    113486872.00000000 71181496.00000000 179755328.00000000 64225.94531250  5376888.50000000 4256657.00000000 
0.04200    111608264.00000000 70017784.00000000 176797040.00000000 62827.93750000  5273023.50000000 4174767.25000000 
0.04300    109726752.00000000 68851816.00000000 173835008.00000000 61439.11718750  5169394.00000000 4093110.75000000 
0.04400    107845112.00000000 67685272.00000000 170870880.00000000 60060.84375000  5066263.00000000 4011790.00000000 
0.04500    105964656.00000000 66517856.00000000 167908496.00000000 58694.43359375  4963586.50000000 3930872.00000000 
0.04600    104087704.00000000 65352624.00000000 164949552.00000000 57341.78125000  4861569.50000000 3850447.75000000 
0.04700    102214776.00000000 64189932.00000000 161998544.00000000 56003.91406250  4760343.00000000 3770587.25000000 
0.04800    100349064.00000000 63030856.00000000 159058752.00000000 54682.24609375  4659906.50000000 3691352.25000000 
0.04900    98491568.00000000 61875972.00000000 156129792.00000000 53378.15234375  4560414.50000000 3612846.00000000 
0.05000    96643872.00000000 60727404.00000000 153216352.00000000 52091.89453125  4461883.00000000 3535108.75000000 
0.05100    94808096.00000000 59585192.00000000 150319328.00000000 50825.24609375  4364484.00000000 3458222.75000000 
0.05200    92985440.00000000 58450420.00000000 147443072.00000000 49578.69140625  4268213.00000000 3382212.00000000 
0.05300    91177216.00000000 57324144.00000000 144588544.00000000 48352.64843750  4173143.75000000 3307156.75000000 
0.05400    89384280.00000000 56206844.00000000 141758000.00000000 47148.22656250  4079409.75000000 3233123.25000000 
0.05500    87608928.00000000 55099828.00000000 138954288.00000000 45965.91406250  3986978.75000000 3160102.50000000 
0.05600    85850664.00000000 54003600.00000000 136177968.00000000 44806.71875000  3895945.00000000 3088183.25000000 
0.05700    84113240.00000000 52919420.00000000 133433152.00000000 43670.55859375  3806364.50000000 3017385.25000000 
0.05800    82395160.00000000 51846956.00000000 130718512.00000000 42558.00390625  3718239.50000000 2947722.75000000 
0.05900    80698776.00000000 50787628.00000000 128036816.00000000 41468.71484375  3631650.50000000 2879272.50000000 
0.06000    79024672.00000000 49741644.00000000 125389496.00000000 40403.60937500  3546575.50000000 2811985.50000000 
0.06100    77373696.00000000 48709788.00000000 122779624.00000000 39362.34765625  3463086.00000000 2745968.00000000 
0.06200    75746896.00000000 47691804.00000000 120206072.00000000 38345.54296875  3381203.50000000 2681187.50000000 
0.06300    74144648.00000000 46689428.00000000 117670776.00000000 37352.94531250  3300924.25000000 2617659.00000000 
0.06400    72567272.00000000 45702252.00000000 115174816.00000000 36383.77734375  3222261.25000000 2555398.50000000 
0.06500    71015680.00000000 44730736.00000000 112720272.00000000 35438.78125000  3145194.75000000 2494414.00000000 
0.06600    69490200.00000000 43775540.00000000 110305760.00000000 34517.87890625  3069822.50000000 2434706.50000000 
0.06700    67992616.00000000 42836912.00000000 107933824.00000000 33620.31250000  2996048.75000000 2376303.00000000 
0.06800    66521600.00000000 41914840.00000000 105604688.00000000 32745.70312500  2923895.25000000 2319174.00000000 
0.06900    65077728.00000000 41009624.00000000 103319248.00000000 31894.36914062  2853388.75000000 2263328.50000000 
0.07000    63661664.00000000 40122184.00000000 101076632.00000000 31065.29101562  2784512.75000000 2208731.25000000 
0.07100    62273968.00000000 39251372.00000000 98877864.00000000 30258.90625000  2717230.50000000 2155443.25000000 
0.07200    60914212.00000000 38398788.00000000 96724568.00000000 29473.66992188  2651529.75000000 2103370.25000000 
0.07300    59583484.00000000 37563560.00000000 94615456.00000000 28710.30273438  2587418.00000000 2052552.25000000 
0.07400    58280720.00000000 36745372.00000000 92551528.00000000 27967.54101562  2524872.50000000 2002971.00000000 
0.07500    57006404.00000000 35945904.00000000 90532504.00000000 27245.20898438  2463856.50000000 1954601.87500000 
0.07600    55760132.00000000 35163796.00000000 88557472.00000000 26542.82421875  2404369.50000000 1907422.87500000 
0.07700    54542716.00000000 34399516.00000000 86627872.00000000 25859.84570312  2346347.00000000 1861446.62500000 
0.07800    53353596.00000000 33652896.00000000 84743656.00000000 25195.70507812  2289825.75000000 1816605.25000000 
0.07900    52192572.00000000 32924424.00000000 82903784.00000000 24550.04687500  2234702.00000000 1772897.00000000 
0.08000    51059752.00000000 32212930.00000000 81108016.00000000 23922.08203125  2181031.25000000 1730329.12500000 
0.08100    49954580.00000000 31519240.00000000 79356864.00000000 23311.66601562  2128745.25000000 1688845.00000000 
0.08200    48876840.00000000 30842858.00000000 77648704.00000000 22717.88476562  2077810.75000000 1648450.37500000 
0.08300    47826296.00000000 30183616.00000000 75984968.00000000 22140.47070312  2028192.12500000 1609091.25000000 
0.08400    46802956.00000000 29541594.00000000 74363136.00000000 21578.89257812  1979892.00000000 1570771.50000000 
0.08500    45806292.00000000 28916350.00000000 72784488.00000000 21032.65625000  1932852.25000000 1533457.25000000 
0.08600    44836108.00000000 28308188.00000000 71247400.00000000 20501.26171875  1887053.12500000 1497131.37500000 
0.08700    43891812.00000000 27716274.00000000 69751872.00000000 19984.23242188  1842466.87500000 1461763.87500000 
0.08800    42973596.00000000 27140766.00000000 68297776.00000000 19481.05273438  1799069.12500000 1427349.12500000 
0.08900    42080608.00000000 26581346.00000000 66884288.00000000 18991.35742188  1756832.12500000 1393838.00000000 
0.09000    41212384.00000000 26037762.00000000 65510296.00000000 18515.02343750  1715701.25000000 1361225.87500000 
0.09100    40368384.00000000 25509842.00000000 64175528.00000000 18051.12890625  1675676.87500000 1329487.87500000 
0.09200    39549164.00000000 24997224.00000000 62878928.00000000 17599.45898438  1636714.00000000 1298599.00000000 
0.09300    38753600.00000000 24499680.00000000 61620488.00000000 17159.93554688  1598799.75000000 1268546.87500000 
0.09400    37980920.00000000 24017036.00000000 60398904.00000000 16731.70312500  1561914.00000000 1239293.87500000 
0.09500    37230876.00000000 23548754.00000000 59213720.00000000 16314.81347656  1526001.12500000 1210830.12500000 
0.09600    36503956.00000000 23094754.00000000 58064184.00000000 15908.93261719  1491053.87500000 1183147.62500000 
0.09700    35797824.00000000 22654796.00000000 56949736.00000000 15513.66699219  1457068.12500000 1156217.12500000 
0.09800    35114100.00000000 22228576.00000000 55869384.00000000 15128.75000000  1423997.50000000 1130012.50000000 
0.09900    34450792.00000000 21815764.00000000 54822656.00000000 14754.01660156  1391826.12500000 1104524.62500000 
0.10000    33807736.00000000 21415856.00000000 53807836.00000000 14388.99511719  1360523.25000000 1079732.75000000 
0.10100    33185278.00000000 21028600.00000000 52825872.00000000 14033.70800781  1330079.25000000 1055623.62500000 
0.10200    32581858.00000000 20654156.00000000 51875096.00000000 13687.80078125  1300469.00000000 1032181.37500000 
0.10300    31997792.00000000 20291510.00000000 50954140.00000000 13351.08300781  1271659.37500000 1009383.87500000 
0.10400    31431988.00000000 19940720.00000000 50063004.00000000 13023.43164062  1243664.37500000 987218.12500000 
0.10500    30884452.00000000 19601324.00000000 49200440.00000000 12704.64843750  1216437.62500000 965679.37500000 
0.10600    30354306.00000000 19273462.00000000 48366312.00000000 12394.47753906  1189969.12500000 944727.68750000 
0.10700    29841308.00000000 18956310.00000000 47559432.00000000 12092.78515625  1164238.50000000 924374.68750000 
0.10800    29345042.00000000 18649784.00000000 46779152.00000000 11799.53320312  1139225.75000000 904601.12500000 
0.10900    28864688.00000000 18353332.00000000 46024440.00000000 11514.56250000  1114927.37500000 885387.50000000 
0.11000    28400140.00000000 18066886.00000000 45294376.00000000 11237.46679688  1091320.00000000 866722.62500000 
0.11100    27950710.00000000 17790114.00000000 44588944.00000000 10968.38281250  1068374.37500000 848587.37500000 
0.11200    27515996.00000000 17522506.00000000 43906736.00000000 10707.03906250  1046098.50000000 830980.37500000 
0.11300    27095750.00000000 17264000.00000000 43247012.00000000 10453.41699219  1024463.18750000 813890.87500000 
0.11400    26688952.00000000 17014074.00000000 42609248.00000000 10207.33789062  1003463.87500000 797294.43750000 
0.11500    26295548.00000000 16772696.00000000 41992756.00000000 9968.68945312   983071.50000000 781187.50000000 
0.11600    25914868.00000000 16539298.00000000 41396480.00000000 9737.25390625   963277.75000000 765550.68750000 
0.11700    25546942.00000000 16313640.00000000 40819408.00000000 9512.92773438   944075.12500000 750389.81250000 
0.11800    25190700.00000000 16095459.00000000 40261444.00000000 9295.51562500   925433.00000000 735662.31250000 
0.11900    24845722.00000000 15884368.00000000 39721484.00000000 9085.05468750   907346.68750000 721385.25000000 
0.12000    24511766.00000000 15680176.00000000 39199184.00000000 8881.33007812   889801.56250000 707523.06250000 
0.12100    24188782.00000000 15482519.00000000 38693544.00000000 8684.06933594   872777.37500000 694088.56250000 
0.12200    23875458.00000000 15291125.00000000 38203800.00000000 8493.24707031   856261.68750000 681050.56250000 
0.12300    23571876.00000000 15105824.00000000 37729248.00000000 8308.71679688   840249.93750000 668409.50000000 
0.12400    23277778.00000000 14926062.00000000 37268704.00000000 8130.21533203   824712.93750000 656142.68750000 
0.12500    22992256.00000000 14751591.00000000 36822120.00000000 7957.65673828   809639.00000000 644241.93750000 
0.12600    22715350.00000000 14582632.00000000 36389256.00000000 7790.91259766   795015.68750000 632693.18750000 
0.12700    22446040.00000000 14418230.00000000 35968484.00000000 7629.73828125   780823.50000000 621486.93750000 
0.12800    22184602.00000000 14258543.00000000 35559660.00000000 7473.84326172   767053.06250000 610612.93750000 
0.12900    21930144.00000000 14103043.00000000 35161572.00000000 7323.23486328   753678.18750000 600053.75000000 
0.13000    21682472.00000000 13951700.00000000 34774416.00000000 7177.62890625   740691.56250000 589796.43750000 
0.13100    21441022.00000000 13804073.00000000 34396800.00000000 7036.85742188   728076.25000000 579827.62500000 
0.13200    21205718.00000000 13660158.00000000 34028132.00000000 6900.73486328   715814.43750000 570141.93750000 
0.13300    20975940.00000000 13519370.00000000 33668460.00000000 6768.97705078   703894.62500000 560713.50000000 
0.13400    20751200.00000000 13381739.00000000 33316550.00000000 6641.54492188   692294.50000000 551551.25000000 
0.13500    20531466.00000000 13246869.00000000 32972208.00000000 6518.02636719   681000.31250000 542614.68750000 
0.13600    20315980.00000000 13114660.00000000 32634530.00000000 6398.36669922   669994.37500000 533914.12500000 
0.13700    20104880.00000000 12984855.00000000 32303108.00000000 6282.36425781   659263.25000000 525424.12500000 
0.13800    19897302.00000000 12857073.00000000 31977430.00000000 6169.74218750   648789.37500000 517132.53125000 
0.13900    19693264.00000000 12731290.00000000 31656914.00000000 6060.36083984   638565.25000000 509033.81250000 
0.14000    19492504.00000000 12607278.00000000 31341260.00000000 5953.98583984   628562.81250000 501111.34375000 
0.14100    19294316.00000000 12484849.00000000 31029570.00000000 5850.40234375   618772.12500000 493352.43750000 
0.14200    19098770.00000000 12363751.00000000 30721606.00000000 5749.41210938   609176.43750000 485748.93750000 
0.14300    18905388.00000000 12243739.00000000 30417202.00000000 5650.86669922   599774.56250000 478284.62500000 
0.14400    18713822.00000000 12124796.00000000 30115202.00000000 5554.58544922   590519.56250000 470948.84375000 
0.14500    18524190.00000000 12006795.00000000 29815912.00000000 5460.34912109   581434.62500000 463735.12500000 
0.14600    18335868.00000000 11889378.00000000 29518556.00000000 5368.03222656   572487.87500000 456624.75000000 
0.14700    18148870.00000000 11772606.00000000 29222960.00000000 5277.45068359   563668.62500000 449620.68750000 
0.14800    17962802.00000000 11656185.00000000 28928384.00000000 5188.41259766   554958.68750000 442696.25000000 
0.14900    17777508.00000000 11540068.00000000 28634942.00000000 5100.74267578   546354.25000000 435849.43750000 
0.15000    17592694.00000000 11424044.00000000 28342032.00000000 5014.34667969   537845.12500000 429076.90625000 
0.15100    17408104.00000000 11308080.00000000 28049528.00000000 4929.13134766   529407.75000000 422365.53125000 
0.15200    17224102.00000000 11192035.00000000 27757266.00000000 4844.92724609   521052.06250000 415701.40625000 
0.15300    17039960.00000000 11075884.00000000 27464750.00000000 4761.58593750   512754.62500000 409089.50000000 
0.15400    16855658.00000000 10959483.00000000 27171752.00000000 4679.10839844   504505.06250000 402515.87500000 
0.15500    16671231.00000000 10842798.00000000 26878214.00000000 4597.29833984   496305.53125000 395969.68750000 
0.15600    16486387.00000000 10725641.00000000 26584070.00000000 4516.06787109   488136.03125000 389451.56250000 
0.15700    16301118.00000000 10608100.00000000 26288856.00000000 4435.44238281   480005.15625000 382957.06250000 
0.15800    16115276.00000000 10489997.00000000 25992738.00000000 4355.22460938   471890.78125000 376478.59375000 
0.15900    15928843.00000000 10371374.00000000 25695254.00000000 4275.49023438   463798.87500000 370010.18750000 
0.16000    15741617.00000000 10252246.00000000 25396690.00000000 4196.08593750   455721.87500000 363551.96875000 
0.16100    15553859.00000000 10132561.00000000 25096804.00000000 4117.11474609   447662.09375000 357104.53125000 
0.16200    15365264.00000000 10012163.00000000 24795440.00000000 4038.43945312   439606.59375000 350657.00000000 
0.16300    15175899.00000000 9891208.00000000 24492720.00000000 3960.05346680   431556.68750000 344216.21875000 
0.16400    14985883.00000000 9769571.00000000 24188482.00000000 3882.01269531   423510.06250000 337774.28125000 
0.16500    14794849.00000000 9647487.00000000 23883036.00000000 3804.27661133   415472.43750000 331333.09375000 
0.16600    14603228.00000000 9524687.00000000 23576378.00000000 3726.92407227   407437.15625000 324894.50000000 
0.16700    14410784.00000000 9401284.00000000 23268260.00000000 3649.84277344   399405.40625000 318456.90625000 
0.16800    14217600.00000000 9277412.00000000 22958776.00000000 3573.15649414   391381.18750000 312020.78125000 
0.16900    14023932.00000000 9153015.00000000 22648568.00000000 3496.95214844   383365.65625000 305591.78125000 
0.17000    13829522.00000000 9028191.00000000 22336826.00000000 3421.15380859   375360.53125000 299170.43750000 
