# SAXS profile: number of points = 501, q_min = 0, q_max = 0.5, delta_q = 0.001
#    q    intensity 
0.00000    162232864.00000000 101201560.00000000 256271088.00000000 98828.06250000  8008438.00000000 6325060.00000000 
0.00100    162202976.00000000 101181264.00000000 256218848.00000000 98800.21875000  8006493.00000000 6323521.50000000 
0.00200    162109296.00000000 101121120.00000000 256065488.00000000 98717.25781250  8000599.00000000 6318903.50000000 
0.00300    161949600.00000000 101020640.00000000 255808704.00000000 98579.85156250  7990828.50000000 6311267.50000000 
0.00400    161719552.00000000 100880040.00000000 255449808.00000000 98386.71093750  7977237.50000000 6300578.00000000 
0.00500    161422432.00000000 100700256.00000000 254990928.00000000 98139.61718750  7959708.50000000 6286836.00000000 
0.00600    161061760.00000000 100479448.00000000 254424768.00000000 97837.77343750  7938363.00000000 6270090.00000000 
0.00700    160637840.00000000 100219952.00000000 253765024.00000000 97483.79687500  7913254.00000000 6250402.50000000 
0.00800    160147264.00000000 99922304.00000000 253003040.00000000 97076.64062500  7884336.50000000 6227756.50000000 
0.00900    159596528.00000000 99586960.00000000 252142496.00000000 96616.79687500  7851815.00000000 6202221.00000000 
0.01000    158985504.00000000 99213728.00000000 251185888.00000000 96106.53906250  7815599.00000000 6173769.00000000 
0.01100    158315072.00000000 98801256.00000000 250133616.00000000 95545.96875000  7775783.00000000 6142565.00000000 
0.01200    157583360.00000000 98352512.00000000 248985920.00000000 94936.39843750  7732459.50000000 6108610.50000000 
0.01300    156789520.00000000 97867344.00000000 247746656.00000000 94278.59375000  7685715.00000000 6071898.00000000 
0.01400    155939968.00000000 97346984.00000000 246417296.00000000 93574.33593750  7635567.00000000 6032625.00000000 
0.01500    155032672.00000000 96792104.00000000 244996992.00000000 92825.15625000  7582180.50000000 5990721.00000000 
0.01600    154071888.00000000 96202944.00000000 243492816.00000000 92031.31250000  7525582.00000000 5946347.50000000 
0.01700    153055984.00000000 95581040.00000000 241902672.00000000 91195.43750000  7465862.50000000 5899482.00000000 
0.01800    151987952.00000000 94926144.00000000 240230624.00000000 90317.76562500  7403169.00000000 5850274.50000000 
0.01900    150867904.00000000 94240144.00000000 238476176.00000000 89401.76562500  7337569.50000000 5798774.50000000 
0.02000    149698496.00000000 93523832.00000000 236646304.00000000 88447.46093750  7269133.00000000 5745098.00000000 
0.02100    148481440.00000000 92777944.00000000 234739840.00000000 87456.74218750  7198090.50000000 5689318.50000000 
0.02200    147219120.00000000 92003776.00000000 232761936.00000000 86431.86718750  7124452.50000000 5631491.50000000 
0.02300    145910704.00000000 91200816.00000000 230712608.00000000 85374.36718750  7048330.00000000 5571733.50000000 
0.02400    144559424.00000000 90372776.00000000 228597472.00000000 84286.37500000  6969854.50000000 5510149.50000000 
0.02500    143167824.00000000 89519024.00000000 226416528.00000000 83168.96875000  6889193.50000000 5446804.00000000 
0.02600    141737392.00000000 88640544.00000000 224174640.00000000 82025.13281250  6806413.00000000 5381833.50000000 
0.02700    140270448.00000000 87739040.00000000 221874080.00000000 80855.77343750  6721673.00000000 5315289.50000000 
0.02800    138765504.00000000 86815840.00000000 219517248.00000000 79663.27343750  6635086.50000000 5247254.50000000 
0.02900    137228944.00000000 85870840.00000000 217107760.00000000 78449.92187500  6546786.50000000 5177909.50000000 
0.03000    135661376.00000000 84907040.00000000 214650080.00000000 77216.92187500  6456907.50000000 5107280.00000000 
0.03100    134063768.00000000 83924504.00000000 212143568.00000000 75965.90625000  6365567.50000000 5035520.50000000 
0.03200    132438016.00000000 82925152.00000000 209594336.00000000 74700.16406250  6272908.50000000 4962701.50000000 
0.03300    130788160.00000000 81908952.00000000 207003664.00000000 73421.07812500  6179019.50000000 4888894.50000000 
0.03400    129113328.00000000 80878624.00000000 204376320.00000000 72130.31250000  6084057.50000000 4814223.50000000 
0.03500    127417856.00000000 79834392.00000000 201715040.00000000 70829.39843750  5988186.50000000 4738830.00000000 
0.03600    125702592.00000000 78778824.00000000 199023024.00000000 69521.14843750  5891479.00000000 4662799.50000000 
0.03700    123969408.00000000 77710880.00000000 196301824.00000000 68206.55468750  5794055.50000000 4586192.00000000 
0.03800    122220984.00000000 76633400.00000000 193556480.00000000 66888.53125000  5696080.50000000 4509140.00000000 
0.03900    120458592.00000000 75546936.00000000 190788688.00000000 65567.77343750  5597630.50000000 4431669.00000000 
0.04000    118684360.00000000 74451960.00000000 188000928.00000000 64245.78125000  5498912.00000000 4353954.00000000 
0.04100    116901136.00000000 73350880.00000000 185198128.00000000 62925.30078125  5399961.00000000 4276085.00000000 
0.04200    115109312.00000000 72243776.00000000 182381360.00000000 61607.58593750  5300881.50000000 4198087.50000000 
0.04300    113311400.00000000 71133568.00000000 179557024.00000000 60294.06640625  5201805.00000000 4120111.25000000 
0.04400    111509704.00000000 70019608.00000000 176723024.00000000 58986.17968750  5102943.50000000 4042221.00000000 
0.04500    109705624.00000000 68904352.00000000 173884992.00000000 57686.05468750  5004283.00000000 3964498.00000000 
0.04600    107900672.00000000 67787640.00000000 171043568.00000000 56394.19140625  4905928.50000000 3887024.75000000 
0.04700    106096936.00000000 66670316.00000000 168205872.00000000 55112.59375000  4808017.00000000 3809880.50000000 
0.04800    104295072.00000000 65554788.00000000 165370320.00000000 53842.49218750  4710633.50000000 3733133.00000000 
0.04900    102498568.00000000 64441180.00000000 162539696.00000000 52585.18359375  4613876.00000000 3656859.25000000 
0.05000    100707304.00000000 63330560.00000000 159720080.00000000 51341.41406250  4517869.50000000 3581138.50000000 
0.05100    98923464.00000000 62224100.00000000 156909360.00000000 50112.55859375  4422635.50000000 3506044.50000000 
0.05200    97148096.00000000 61122820.00000000 154113248.00000000 48899.57812500  4328275.50000000 3431606.00000000 
0.05300    95383736.00000000 60027220.00000000 151332608.00000000 47703.67578125  4234882.50000000 3357903.75000000 
0.05400    93630304.00000000 58937760.00000000 148568064.00000000 46525.41015625  4142494.00000000 3284993.50000000 
0.05500    91889912.00000000 57856028.00000000 145824704.00000000 45365.98437500  4051226.75000000 3212948.25000000 
0.05600    90163544.00000000 56782472.00000000 143102256.00000000 44225.86328125  3961091.00000000 3141772.25000000 
0.05700    88453288.00000000 55718204.00000000 140404416.00000000 43105.66796875  3872191.75000000 3071555.50000000 
0.05800    86758680.00000000 54663092.00000000 137729456.00000000 42006.33203125  3784535.50000000 3002321.75000000 
0.05900    85081536.00000000 53618844.00000000 135081792.00000000 40927.74218750  3698204.75000000 2934087.50000000 
0.06000    83423704.00000000 52585632.00000000 132463920.00000000 39871.47265625  3613257.75000000 2866971.00000000 
0.06100    81785088.00000000 51563436.00000000 129876160.00000000 38836.91796875  3529687.00000000 2800896.00000000 
0.06200    80166656.00000000 50554004.00000000 127319040.00000000 37824.57421875  3447566.75000000 2735971.50000000 
0.06300    78570312.00000000 49556480.00000000 124795400.00000000 36835.44140625  3366963.25000000 2672177.00000000 
0.06400    76994104.00000000 48572816.00000000 122304888.00000000 35868.75390625  3287817.25000000 2609555.50000000 
0.06500    75441584.00000000 47602500.00000000 119850416.00000000 34925.47265625  3210206.25000000 2548172.00000000 
0.06600    73912000.00000000 46646608.00000000 117431512.00000000 34005.16406250  3134162.00000000 2487975.00000000 
0.06700    72407216.00000000 45704688.00000000 115049768.00000000 33108.46484375  3059672.75000000 2429003.50000000 
0.06800    70926296.00000000 44777528.00000000 112706368.00000000 32234.42382812  2986770.25000000 2371247.00000000 
0.06900    69470232.00000000 43865624.00000000 110401136.00000000 31383.39453125  2915464.00000000 2314777.50000000 
0.07000    68038352.00000000 42969028.00000000 108135568.00000000 30555.92382812  2845733.25000000 2259518.50000000 
0.07100    66633488.00000000 42088208.00000000 105910344.00000000 29750.95117188  2777614.75000000 2205532.75000000 
0.07200    65254044.00000000 41222464.00000000 103725248.00000000 28968.63867188  2711073.00000000 2152776.00000000 
0.07300    63901152.00000000 40373428.00000000 101582280.00000000 28209.00781250  2646140.25000000 2101300.75000000 
0.07400    62574332.00000000 39540900.00000000 99479480.00000000 27471.06445312  2582799.00000000 2051064.62500000 
0.07500    61274080.00000000 38724024.00000000 97418376.00000000 26755.19335938  2521030.75000000 2002070.87500000 
0.07600    60000636.00000000 37923776.00000000 95399328.00000000 26060.65234375  2460839.50000000 1954290.62500000 
0.07700    58753928.00000000 37140092.00000000 93422160.00000000 25387.06250000  2402181.00000000 1907740.37500000 
0.07800    57533756.00000000 36372776.00000000 91486800.00000000 24734.22070312  2345051.75000000 1862396.62500000 
0.07900    56340340.00000000 35621688.00000000 89593864.00000000 24101.57617188  2289464.50000000 1818266.00000000 
0.08000    55173796.00000000 34887360.00000000 87742392.00000000 23488.57812500  2235369.00000000 1775287.50000000 
0.08100    54033740.00000000 34169548.00000000 85932696.00000000 22894.91601562  2182736.75000000 1733479.00000000 
0.08200    52919792.00000000 33468178.00000000 84163968.00000000 22319.94531250  2131537.00000000 1692814.12500000 
0.08300    51832172.00000000 32782854.00000000 82437696.00000000 21763.30664062  2081764.25000000 1653261.87500000 
0.08400    50770544.00000000 32113752.00000000 80752248.00000000 21224.07812500  2033398.75000000 1614823.25000000 
0.08500    49734776.00000000 31460500.00000000 79107088.00000000 20702.50390625  1986378.25000000 1577453.37500000 
0.08600    48724484.00000000 30823438.00000000 77502032.00000000 20197.33593750  1940699.12500000 1541139.12500000 
0.08700    47739024.00000000 30201946.00000000 75937464.00000000 19708.20703125  1896323.62500000 1505857.50000000 
0.08800    46778620.00000000 29596056.00000000 74411128.00000000 19234.81640625  1853206.37500000 1471578.25000000 
0.08900    45842424.00000000 29005434.00000000 72924240.00000000 18776.28710938  1811326.62500000 1438287.62500000 
0.09000    44931120.00000000 28430210.00000000 71475568.00000000 18332.38671875  1770670.12500000 1405940.87500000 
0.09100    44043120.00000000 27869660.00000000 70064536.00000000 17902.29492188  1731180.75000000 1374528.87500000 
0.09200    43178200.00000000 27323922.00000000 68689784.00000000 17485.61132812  1692828.12500000 1344032.00000000 
0.09300    42336340.00000000 26792548.00000000 67352032.00000000 17081.99218750  1655578.25000000 1314402.00000000 
0.09400    41516844.00000000 26275302.00000000 66050256.00000000 16690.50781250  1619392.87500000 1285619.75000000 
0.09500    40719232.00000000 25771914.00000000 64782496.00000000 16310.97851562  1584248.00000000 1257666.37500000 
0.09600    39943280.00000000 25282194.00000000 63550204.00000000 15942.82031250  1550110.75000000 1230518.25000000 
0.09700    39188656.00000000 24805658.00000000 62350368.00000000 15585.58496094  1516941.75000000 1204137.50000000 
0.09800    38454304.00000000 24342368.00000000 61183748.00000000 15238.75195312  1484721.25000000 1178497.87500000 
0.09900    37740224.00000000 23891710.00000000 60049244.00000000 14901.94140625  1453390.25000000 1153579.37500000 
0.10000    37045812.00000000 23453720.00000000 58945584.00000000 14574.49707031  1422940.25000000 1129351.75000000 
0.10100    36370148.00000000 23027686.00000000 57872668.00000000 14256.14355469  1393324.87500000 1105809.87500000 
0.10200    35713032.00000000 22613386.00000000 56828984.00000000 13946.51562500  1364528.12500000 1082907.00000000 
0.10300    35074576.00000000 22210844.00000000 55814888.00000000 13645.22656250  1336509.12500000 1060629.50000000 
0.10400    34453060.00000000 21819472.00000000 54828252.00000000 13351.85253906  1309238.87500000 1038948.93750000 
0.10500    33849272.00000000 21438844.00000000 53869616.00000000 13066.02148438  1282695.62500000 1017846.68750000 
0.10600    33261550.00000000 21069008.00000000 52936740.00000000 12787.33496094  1256835.62500000 997291.50000000 
0.10700    32689968.00000000 20709332.00000000 52030076.00000000 12515.64746094  1231662.12500000 977276.12500000 
0.10800    32134088.00000000 20359568.00000000 51147692.00000000 12250.46386719  1207103.25000000 957775.93750000 
0.10900    31593290.00000000 20019536.00000000 50290236.00000000 11991.50000000  1183173.50000000 938766.06250000 
0.11000    31067076.00000000 19688842.00000000 49455592.00000000 11738.58496094  1159848.50000000 920228.12500000 
0.11100    30554860.00000000 19367226.00000000 48643720.00000000 11491.43066406  1137071.12500000 902146.81250000 
0.11200    30056490.00000000 19054296.00000000 47853852.00000000 11249.89843750  1114858.37500000 884496.25000000 
0.11300    29571108.00000000 18749872.00000000 47084716.00000000 11013.57031250  1093147.00000000 867266.56250000 
0.11400    29098640.00000000 18453504.00000000 46336296.00000000 10782.43945312  1071955.37500000 850435.81250000 
0.11500    28638314.00000000 18165128.00000000 45607476.00000000 10556.02539062  1051242.12500000 833995.56250000 
0.11600    28189870.00000000 17884304.00000000 44897476.00000000 10334.35839844  1030990.87500000 817928.06250000 
0.11700    27752764.00000000 17610728.00000000 44205940.00000000 10117.28417969  1011191.62500000 802211.56250000 
0.11800    27326468.00000000 17344270.00000000 43531676.00000000 9904.51855469   991813.68750000 786840.93750000 
0.11900    26910938.00000000 17084514.00000000 42874572.00000000 9695.98730469   972843.62500000 771801.18750000 
0.12000    26505312.00000000 16831152.00000000 42233300.00000000 9491.64355469   954274.62500000 757071.06250000 
0.12100    26109800.00000000 16584246.00000000 41607860.00000000 9291.28125000   936087.81250000 742652.18750000 
0.12200    25723184.00000000 16343216.00000000 40997232.00000000 9094.69628906   918274.75000000 728524.25000000 
0.12300    25345826.00000000 16108015.00000000 40401360.00000000 8901.85351562   900810.31250000 714679.37500000 
0.12400    24977106.00000000 15878175.00000000 39818920.00000000 8712.77148438   883682.56250000 701102.93750000 
0.12500    24616612.00000000 15653696.00000000 39249704.00000000 8527.21386719   866887.68750000 687795.00000000 
0.12600    24263984.00000000 15434229.00000000 38693448.00000000 8345.21093750   850420.50000000 674739.81250000 
0.12700    23918946.00000000 15219790.00000000 38149104.00000000 8166.57714844   834252.50000000 661925.12500000 
0.12800    23581264.00000000 15009702.00000000 37616136.00000000 7991.30957031   818385.31250000 649348.87500000 
0.12900    23250464.00000000 14804115.00000000 37094208.00000000 7819.36669922   802805.06250000 637001.56250000 
0.13000    22926366.00000000 14602704.00000000 36583044.00000000 7650.66113281   787503.93750000 624881.50000000 
0.13100    22608532.00000000 14405317.00000000 36082088.00000000 7485.06982422   772471.68750000 612961.25000000 
0.13200    22296674.00000000 14211758.00000000 35590644.00000000 7322.68701172   757705.81250000 601257.87500000 
0.13300    21990802.00000000 14021923.00000000 35108308.00000000 7163.33007812   743182.18750000 589755.93750000 
0.13400    21690284.00000000 13835512.00000000 34635008.00000000 7007.13964844   728920.81250000 578449.87500000 
0.13500    21395304.00000000 13652401.00000000 34169896.00000000 6853.82226562   714899.31250000 567329.81250000 
0.13600    21105234.00000000 13472424.00000000 33712872.00000000 6703.52783203   701106.31250000 556402.37500000 
0.13700    20819886.00000000 13295489.00000000 33263382.00000000 6556.11376953   687545.37500000 545649.62500000 
0.13800    20539224.00000000 13121376.00000000 32820848.00000000 6411.54248047   674206.50000000 535077.06250000 
0.13900    20262864.00000000 12950054.00000000 32385606.00000000 6269.84814453   661085.06250000 524667.75000000 
0.14000    19990628.00000000 12781143.00000000 31956836.00000000 6130.96972656   648174.87500000 514431.34375000 
0.14100    19722524.00000000 12614749.00000000 31534084.00000000 5994.86572266   635471.43750000 504353.78125000 
0.14200    19458170.00000000 12450613.00000000 31117438.00000000 5861.40380859   622967.75000000 494435.68750000 
0.14300    19197454.00000000 12288787.00000000 30706252.00000000 5730.67382812   610666.37500000 484676.68750000 
0.14400    18940036.00000000 12128928.00000000 30300644.00000000 5602.51806641   598557.25000000 475060.90625000 
0.14500    18686004.00000000 11971227.00000000 29900008.00000000 5477.03417969   586633.50000000 465599.15625000 
0.14600    18434948.00000000 11815238.00000000 29504144.00000000 5354.11376953   574895.25000000 456285.06250000 
0.14700    18187186.00000000 11661085.00000000 29113118.00000000 5233.65625000   563339.56250000 447108.84375000 
0.14800    17941906.00000000 11508592.00000000 28726444.00000000 5115.72265625   551958.18750000 438070.06250000 
0.14900    17699644.00000000 11357694.00000000 28343620.00000000 5000.19287109   540754.31250000 429167.37500000 
0.15000    17459802.00000000 11208421.00000000 27965088.00000000 4887.06445312   529722.43750000 420395.43750000 
0.15100    17222494.00000000 11060489.00000000 27590250.00000000 4776.30126953   518853.12500000 411761.34375000 
0.15200    16987708.00000000 10914108.00000000 27219462.00000000 4667.81298828   508150.62500000 403252.09375000 
0.15300    16755036.00000000 10768902.00000000 26851570.00000000 4561.63281250   497604.68750000 394868.50000000 
0.15400    16524632.00000000 10624979.00000000 26487246.00000000 4457.60400391   487216.40625000 386608.34375000 
0.15500    16296348.00000000 10482293.00000000 26126240.00000000 4355.78955078   476984.25000000 378466.18750000 
0.15600    16069973.00000000 10340747.00000000 25768002.00000000 4256.11718750   466901.71875000 370446.31250000 
0.15700    15845705.00000000 10200388.00000000 25413194.00000000 4158.48486328   456975.40625000 362543.34375000 
0.15800    15623117.00000000 10060950.00000000 25060672.00000000 4062.90039062   447189.18750000 354755.40625000 
0.15900    15402452.00000000 9922669.00000000 24711184.00000000 3969.33374023   437551.18750000 347077.56250000 
0.16000    15183523.00000000 9785252.00000000 24364226.00000000 3877.70214844   428048.56250000 339512.28125000 
0.16100    14966415.00000000 9648883.00000000 24020012.00000000 3788.06958008   418695.00000000 332060.25000000 
0.16200    14750899.00000000 9513430.00000000 23678476.00000000 3700.25537109   409470.78125000 324713.25000000 
0.16300    14537042.00000000 9378968.00000000 23339014.00000000 3614.23583984   400388.28125000 317472.21875000 
0.16400    14324703.00000000 9245332.00000000 23002196.00000000 3530.04150391   391437.06250000 310335.12500000 
0.16500    14114129.00000000 9112650.00000000 22667802.00000000 3447.63110352   382615.90625000 303301.25000000 
0.16600    13905016.00000000 8980734.00000000 22335480.00000000 3366.94458008   373926.71875000 296374.34375000 
0.16700    13697385.00000000 8849753.00000000 22005614.00000000 3287.92114258   365366.56250000 289545.68750000 
0.16800    13491320.00000000 8719630.00000000 21677988.00000000 3210.55566406   356928.90625000 282813.71875000 
0.16900    13286842.00000000 8590335.00000000 21352764.00000000 3134.84326172   348622.78125000 276186.56250000 
0.17000    13083790.00000000 8461834.00000000 21029882.00000000 3060.68969727   340440.59375000 269655.00000000 
