# SAXS profile: number of points = 501, q_min = 0, q_max = 0.5, delta_q = 0.001
#    q    intensity 
0.00000    162238496.00000000 101202256.00000000 256271072.00000000 110770.87500000 8478532.00000000 6696322.50000000 
0.00100    162204288.00000000 101180896.00000000 256217040.00000000 110740.19531250 8476460.00000000 6694691.50000000 
0.00200    162101920.00000000 101117216.00000000 256054928.00000000 110648.83593750 8470194.00000000 6689815.00000000 
0.00300    161931216.00000000 101011296.00000000 255784832.00000000 110497.14843750 8459803.00000000 6681636.00000000 
0.00400    161689936.00000000 100863328.00000000 255407328.00000000 110284.57031250 8445322.00000000 6670278.00000000 
0.00500    161380400.00000000 100673040.00000000 254923008.00000000 110012.05468750 8426692.00000000 6655675.00000000 
0.00600    161002352.00000000 100440904.00000000 254331008.00000000 109679.45312500 8403978.00000000 6637839.00000000 
0.00700    160555952.00000000 100167968.00000000 253633456.00000000 109288.79687500 8377208.00000000 6616844.00000000 
0.00800    160043568.00000000 99853376.00000000 252831072.00000000 108838.89843750 8346454.50000000 6592710.00000000 
0.00900    159463504.00000000 99498952.00000000 251926992.00000000 108331.64062500 8311732.50000000 6565496.50000000 
0.01000    158820736.00000000 99104064.00000000 250918160.00000000 107767.74218750 8273087.50000000 6535159.50000000 
0.01100    158113072.00000000 98670016.00000000 249808784.00000000 107147.39843750 8230622.00000000 6501843.50000000 
0.01200    157343792.00000000 98197008.00000000 248600832.00000000 106472.66406250 8184331.50000000 6465547.50000000 
0.01300    156510320.00000000 97684216.00000000 247293248.00000000 105744.29687500 8134333.00000000 6426342.00000000 
0.01400    155614064.00000000 97135104.00000000 245891168.00000000 104963.14062500 8080754.50000000 6384294.50000000 
0.01500    154658880.00000000 96548496.00000000 244394000.00000000 104130.72656250 8023582.50000000 6339402.50000000 
0.01600    153644672.00000000 95925144.00000000 242803904.00000000 103248.42187500 7962907.50000000 6291803.00000000 
0.01700    152574240.00000000 95266904.00000000 241124224.00000000 102317.72656250 7898854.50000000 6241541.00000000 
0.01800    151445344.00000000 94574480.00000000 239356080.00000000 101340.48437500 7831531.50000000 6188698.50000000 
0.01900    150263216.00000000 93847944.00000000 237502944.00000000 100317.14062500 7761020.00000000 6133362.00000000 
0.02000    149026768.00000000 93089120.00000000 235565024.00000000 99250.77343750  7687410.50000000 6075563.50000000 
0.02100    147740608.00000000 92298240.00000000 233547984.00000000 98142.47656250  7610809.50000000 6015470.50000000 
0.02200    146403664.00000000 91476576.00000000 231451792.00000000 96993.37500000  7531318.00000000 5953083.50000000 
0.02300    145018288.00000000 90624928.00000000 229279776.00000000 95806.03906250  7449127.00000000 5888536.50000000 
0.02400    143587536.00000000 89745440.00000000 227035552.00000000 94582.17968750  7364257.50000000 5821899.00000000 
0.02500    142111600.00000000 88838160.00000000 224721680.00000000 93323.15625000  7276841.00000000 5753282.50000000 
0.02600    140593072.00000000 87904640.00000000 222339632.00000000 92032.05468750  7187057.50000000 5682809.50000000 
0.02700    139034624.00000000 86945240.00000000 219893792.00000000 90709.85937500  7095020.00000000 5610508.00000000 
0.02800    137436128.00000000 85963072.00000000 217388064.00000000 89358.50781250  7000812.00000000 5536527.00000000 
0.02900    135801968.00000000 84957296.00000000 214823680.00000000 87980.93750000  6904579.50000000 5460925.00000000 
0.03000    134132640.00000000 83929896.00000000 212204656.00000000 86578.64843750  6806482.00000000 5383872.00000000 
0.03100    132430384.00000000 82882680.00000000 209534784.00000000 85153.14062500  6706623.50000000 5305430.00000000 
0.03200    130698376.00000000 81815792.00000000 206815040.00000000 83707.46875000  6605139.50000000 5225710.50000000 
0.03300    128937288.00000000 80731368.00000000 204051808.00000000 82243.19531250  6502196.00000000 5144834.00000000 
0.03400    127149088.00000000 79630416.00000000 201246096.00000000 80762.53125000  6397868.00000000 5062866.00000000 
0.03500    125336992.00000000 78514216.00000000 198400432.00000000 79266.99218750  6292363.50000000 4979921.00000000 
0.03600    123503536.00000000 77384720.00000000 195521552.00000000 77759.52343750  6185769.00000000 4896132.50000000 
0.03700    121648992.00000000 76241280.00000000 192610064.00000000 76241.82812500  6078195.00000000 4811594.50000000 
0.03800    119776760.00000000 75087216.00000000 189669248.00000000 74715.94531250  5969820.00000000 4726375.00000000 
0.03900    117888832.00000000 73922888.00000000 186704720.00000000 73183.43750000  5860795.00000000 4640648.00000000 
0.04000    115986136.00000000 72749976.00000000 183716256.00000000 71647.35937500  5751184.50000000 4554468.00000000 
0.04100    114072824.00000000 71569632.00000000 180709712.00000000 70108.00000000  5641169.50000000 4467959.00000000 
0.04200    112149312.00000000 70383392.00000000 177689504.00000000 68568.84375000  5530862.50000000 4381188.50000000 
0.04300    110219248.00000000 69191784.00000000 174655120.00000000 67031.14843750  5420429.50000000 4294263.50000000 
0.04400    108283136.00000000 67996160.00000000 171613232.00000000 65496.78125000  5309936.50000000 4207315.00000000 
0.04500    106342976.00000000 66797624.00000000 168563680.00000000 63967.50390625  5199500.00000000 4120430.75000000 
0.04600    104402160.00000000 65598524.00000000 165512368.00000000 62445.04296875  5089323.00000000 4033662.25000000 
0.04700    102461224.00000000 64398976.00000000 162460240.00000000 60931.21484375  4979418.50000000 3947168.25000000 
0.04800    100522784.00000000 63200848.00000000 159411392.00000000 59427.80468750  4869971.50000000 3860980.25000000 
0.04900    98588704.00000000 62004724.00000000 156370032.00000000 57936.27343750  4761111.50000000 3775233.75000000 
0.05000    96660720.00000000 60811964.00000000 153337088.00000000 56458.02343750  4652840.00000000 3689977.50000000 
0.05100    94740168.00000000 59623680.00000000 150315488.00000000 54994.52343750  4545389.50000000 3605287.75000000 
0.05200    92829720.00000000 58440872.00000000 147308544.00000000 53547.40625000  4438770.00000000 3521305.00000000 
0.05300    90930592.00000000 57264888.00000000 144318992.00000000 52117.59375000  4333125.00000000 3438040.75000000 
0.05400    89044264.00000000 56096096.00000000 141349712.00000000 50706.83593750  4228534.50000000 3355570.00000000 
0.05500    87172392.00000000 54936268.00000000 138402336.00000000 49316.26953125  4125085.00000000 3274032.25000000 
0.05600    85316864.00000000 53785784.00000000 135479408.00000000 47946.84765625  4022866.50000000 3193405.50000000 
0.05700    83478992.00000000 52645940.00000000 132585816.00000000 46599.68750000  3921958.25000000 3113812.75000000 
0.05800    81659544.00000000 51517124.00000000 129719480.00000000 45275.48828125  3822439.50000000 3035316.50000000 
0.05900    79861056.00000000 50400204.00000000 126884920.00000000 43975.97265625  3724392.25000000 2957923.75000000 
0.06000    78083472.00000000 49296720.00000000 124083808.00000000 42701.11718750  3627874.25000000 2881718.00000000 
0.06100    76329576.00000000 48206996.00000000 121318464.00000000 41452.21875000  3532963.50000000 2806772.50000000 
0.06200    74599624.00000000 47131536.00000000 118589496.00000000 40229.69921875  3439673.50000000 2733122.75000000 
0.06300    72894464.00000000 46071336.00000000 115901000.00000000 39034.41015625  3348099.50000000 2660781.25000000 
0.06400    71216192.00000000 45026700.00000000 113252672.00000000 37866.80859375  3258267.50000000 2589820.25000000 
0.06500    69564888.00000000 43998856.00000000 110646536.00000000 36727.19921875  3170275.50000000 2520260.25000000 
0.06600    67941048.00000000 42988132.00000000 108084128.00000000 35616.53125000  3084117.25000000 2452142.00000000 
0.06700    66346772.00000000 41994812.00000000 105567192.00000000 34534.50390625  2999834.50000000 2385493.50000000 
0.06800    64782116.00000000 41019364.00000000 103095936.00000000 33481.65625000  2917472.00000000 2320352.50000000 
0.06900    63248196.00000000 40062612.00000000 100672752.00000000 32458.25585938  2837047.75000000 2256691.25000000 
0.07000    61744960.00000000 39124640.00000000 98297384.00000000 31464.30468750  2758588.75000000 2194590.75000000 
0.07100    60273360.00000000 38205864.00000000 95972056.00000000 30500.08398438  2682120.00000000 2134045.50000000 
0.07200    58834036.00000000 37306700.00000000 93696336.00000000 29565.39843750  2607642.75000000 2075049.12500000 
0.07300    57427500.00000000 36427588.00000000 91471928.00000000 28660.15039062  2535158.75000000 2017647.75000000 
0.07400    56053764.00000000 35568316.00000000 89299608.00000000 27784.47460938  2464723.50000000 1961814.37500000 
0.07500    54713236.00000000 34729820.00000000 87178400.00000000 26938.07226562  2396285.00000000 1907552.37500000 
0.07600    53406672.00000000 33911388.00000000 85110080.00000000 26120.54882812  2329859.75000000 1854892.50000000 
0.07700    52133392.00000000 33113566.00000000 83094184.00000000 25331.94726562  2265454.50000000 1803789.87500000 
0.07800    50893884.00000000 32336554.00000000 81131424.00000000 24571.53906250  2203060.00000000 1754260.75000000 
0.07900    49688388.00000000 31580466.00000000 79221856.00000000 23839.22460938  2142635.25000000 1706288.87500000 
0.08000    48517004.00000000 30845096.00000000 77365104.00000000 23134.33984375  2084188.37500000 1659877.75000000 
0.08100    47379308.00000000 30130716.00000000 75562472.00000000 22456.88867188  2027701.50000000 1614994.62500000 
0.08200    46275316.00000000 29436868.00000000 73811464.00000000 21805.83789062  1973151.50000000 1571627.50000000 
0.08300    45205108.00000000 28763744.00000000 72113608.00000000 21180.99023438  1920498.87500000 1529772.75000000 
0.08400    44168064.00000000 28111068.00000000 70467880.00000000 20581.56835938  1869736.37500000 1489378.62500000 
0.08500    43164032.00000000 27478948.00000000 68874640.00000000 20007.06835938  1820815.00000000 1450449.25000000 
0.08600    42193148.00000000 26866964.00000000 67332528.00000000 19456.61523438  1773715.37500000 1412944.87500000 
0.08700    41254352.00000000 26275104.00000000 65841896.00000000 18929.89843750  1728375.87500000 1376850.50000000 
0.08800    40347568.00000000 25702940.00000000 64401252.00000000 18425.99218750  1684804.62500000 1342127.25000000 
0.08900    39472584.00000000 25150378.00000000 63010296.00000000 17944.28710938  1642918.25000000 1308736.00000000 
0.09000    38628848.00000000 24617154.00000000 61668308.00000000 17483.97070312  1602700.25000000 1276663.25000000 
0.09100    37815308.00000000 24102866.00000000 60374556.00000000 17044.22851562  1564082.50000000 1245871.50000000 
0.09200    37031944.00000000 23607112.00000000 59127912.00000000 16624.46875000  1527062.50000000 1216298.37500000 
0.09300    36277908.00000000 23129708.00000000 57928132.00000000 16223.95898438  1491548.12500000 1187952.12500000 
0.09400    35552820.00000000 22670046.00000000 56773540.00000000 15841.62500000  1457517.87500000 1160769.50000000 
0.09500    34855568.00000000 22228024.00000000 55663016.00000000 15477.04589844  1424919.87500000 1134715.12500000 
0.09600    34185984.00000000 21803210.00000000 54595824.00000000 15129.06347656  1393702.87500000 1109753.75000000 
0.09700    33543184.00000000 21395012.00000000 53571260.00000000 14797.26757812  1363808.87500000 1085858.00000000 
0.09800    32926152.00000000 21003190.00000000 52587668.00000000 14480.64550781  1335201.12500000 1062962.37500000 
0.09900    32334676.00000000 20627182.00000000 51644592.00000000 14178.65722656  1307821.50000000 1041050.68750000 
0.10000    31767522.00000000 20266420.00000000 50739756.00000000 13890.12597656  1281622.00000000 1020076.37500000 
0.10100    31224152.00000000 19920512.00000000 49872696.00000000 13614.64843750  1256549.00000000 999988.56250000 
0.10200    30703902.00000000 19589006.00000000 49041736.00000000 13351.30664062  1232553.75000000 980758.87500000 
0.10300    30205606.00000000 19271472.00000000 48246128.00000000 13099.38964844  1209576.00000000 962345.31250000 
0.10400    29728574.00000000 18967454.00000000 47484300.00000000 12858.26953125  1187577.75000000 944716.25000000 
0.10500    29272426.00000000 18676486.00000000 46755500.00000000 12627.22070312  1166498.62500000 927814.50000000 
0.10600    28835470.00000000 18397702.00000000 46057292.00000000 12405.36035156  1146293.12500000 911607.50000000 
0.10700    28417858.00000000 18130956.00000000 45389836.00000000 12192.27343750  1126908.50000000 896061.93750000 
0.10800    28018080.00000000 17875890.00000000 44750756.00000000 11987.08300781  1108310.12500000 881140.50000000 
0.10900    27635504.00000000 17631404.00000000 44139016.00000000 11789.46093750  1090424.62500000 866802.81250000 
0.11000    27269444.00000000 17397550.00000000 43553476.00000000 11598.47753906  1073240.00000000 853006.12500000 
0.11100    26918682.00000000 17173562.00000000 42993144.00000000 11413.77832031  1056677.25000000 839727.12500000 
0.11200    26582982.00000000 16958954.00000000 42456180.00000000 11234.75781250  1040711.75000000 826924.06250000 
0.11300    26261160.00000000 16753399.00000000 41941572.00000000 11060.77246094  1025291.87500000 814559.37500000 
0.11400    25952456.00000000 16556291.00000000 41447876.00000000 10891.48730469  1010389.93750000 802605.81250000 
0.11500    25656198.00000000 16367184.00000000 40974588.00000000 10726.28808594  995943.18750000 791035.43750000 
0.11600    25371550.00000000 16185526.00000000 40519788.00000000 10564.71484375  981931.25000000 779801.68750000 
0.11700    25097918.00000000 16010959.00000000 40082416.00000000 10406.48730469  968311.68750000 768897.81250000 
0.11800    24834292.00000000 15842883.00000000 39661620.00000000 10251.01367188  955039.68750000 758272.68750000 
0.11900    24580056.00000000 15681074.00000000 39255864.00000000 10098.08691406  942094.93750000 747912.93750000 
0.12000    24334614.00000000 15524770.00000000 38864112.00000000 9947.18066406   929428.31250000 737788.68750000 
0.12100    24097384.00000000 15374019.00000000 38485780.00000000 9798.24609375   917027.50000000 727877.12500000 
0.12200    23867394.00000000 15227899.00000000 38119396.00000000 9650.70117188   904849.43750000 718148.43750000 
0.12300    23644214.00000000 15086382.00000000 37763632.00000000 9504.52050781   892871.00000000 708590.56250000 
0.12400    23427034.00000000 14948840.00000000 37417888.00000000 9359.20019531   881062.50000000 699176.37500000 
0.12500    23215428.00000000 14815019.00000000 37081460.00000000 9214.68457031   869408.62500000 689882.68750000 
0.12600    23008850.00000000 14684621.00000000 36753004.00000000 9070.86132812   857879.62500000 680702.50000000 
0.12700    22806642.00000000 14557131.00000000 36432032.00000000 8927.39941406   846453.00000000 671608.81250000 
0.12800    22608268.00000000 14432159.00000000 36117168.00000000 8784.26562500   835105.56250000 662586.75000000 
0.12900    22413298.00000000 14309603.00000000 35808048.00000000 8641.21484375   823836.43750000 653628.06250000 
0.13000    22221228.00000000 14189070.00000000 35503504.00000000 8498.27636719   812612.62500000 644709.31250000 
0.13100    22031320.00000000 14070259.00000000 35203368.00000000 8355.24707031   801430.43750000 635832.06250000 
0.13200    21843552.00000000 13952924.00000000 34906328.00000000 8212.19531250   790264.25000000 626974.56250000 
0.13300    21657596.00000000 13836704.00000000 34612224.00000000 8068.97998047   779112.50000000 618133.75000000 
0.13400    21472712.00000000 13721405.00000000 34320304.00000000 7925.58935547   767963.12500000 609296.31250000 
0.13500    21288524.00000000 13606886.00000000 34029768.00000000 7782.06005859   756805.50000000 600462.00000000 
0.13600    21104944.00000000 13492751.00000000 33740196.00000000 7638.34863281   745634.81250000 591614.31250000 
0.13700    20921642.00000000 13378866.00000000 33451334.00000000 7494.52880859   734441.18750000 582757.06250000 
0.13800    20737946.00000000 13265162.00000000 33162274.00000000 7350.56396484   723223.87500000 573880.06250000 
0.13900    20554242.00000000 13151420.00000000 32873100.00000000 7206.58544922   711977.75000000 564984.68750000 
0.14000    20369892.00000000 13037283.00000000 32582944.00000000 7062.57958984   700699.18750000 556071.87500000 
0.14100    20184702.00000000 12922779.00000000 32291672.00000000 6918.72314453   689395.62500000 547131.31250000 
0.14200    19998382.00000000 12807820.00000000 31998890.00000000 6774.97705078   678049.31250000 538169.12500000 
0.14300    19811212.00000000 12692157.00000000 31704592.00000000 6631.50488281   666680.06250000 529183.62500000 
0.14400    19622416.00000000 12575772.00000000 31408076.00000000 6488.33593750   655273.62500000 520165.71875000 
0.14500    19432322.00000000 12458502.00000000 31109582.00000000 6345.69140625   643846.18750000 511139.59375000 
0.14600    19240754.00000000 12340324.00000000 30808506.00000000 6203.56494141   632393.56250000 502091.43750000 
0.14700    19047388.00000000 12221192.00000000 30504960.00000000 6062.15185547   620926.87500000 493028.18750000 
0.14800    18852402.00000000 12101000.00000000 30198784.00000000 5921.46777344   609431.00000000 483953.03125000 
0.14900    18655654.00000000 11979698.00000000 29889618.00000000 5781.70947266   597937.62500000 474868.62500000 
0.15000    18456876.00000000 11857261.00000000 29577840.00000000 5642.96826172   586436.81250000 465782.40625000 
0.15100    18256514.00000000 11733653.00000000 29263072.00000000 5505.35058594   574947.56250000 456695.06250000 
0.15200    18054382.00000000 11609061.00000000 28945444.00000000 5369.08203125   563460.81250000 447618.75000000 
0.15300    17850412.00000000 11483135.00000000 28624910.00000000 5234.11621094   551993.43750000 438554.75000000 
0.15400    17644472.00000000 11356079.00000000 28301386.00000000 5100.65185547   540554.56250000 429506.34375000 
0.15500    17436938.00000000 11227853.00000000 27975032.00000000 4968.82080078   529149.25000000 420481.21875000 
0.15600    17227624.00000000 11098554.00000000 27646036.00000000 4838.71728516   517784.37500000 411489.09375000 
0.15700    17016762.00000000 10968177.00000000 27314442.00000000 4710.49804688   506472.06250000 402536.09375000 
0.15800    16804354.00000000 10836706.00000000 26980124.00000000 4584.14990234   495210.15625000 393621.28125000 
0.15900    16590371.00000000 10704260.00000000 26643480.00000000 4459.87646484   484023.87500000 384756.96875000 
0.16000    16375007.00000000 10570805.00000000 26304236.00000000 4337.76806641   472906.15625000 375950.31250000 
0.16100    16158550.00000000 10436513.00000000 25963324.00000000 4217.86914062   461877.34375000 367209.43750000 
0.16200    15940798.00000000 10301386.00000000 25620102.00000000 4100.30957031   450937.90625000 358534.06250000 
0.16300    15722024.00000000 10165390.00000000 25275140.00000000 3985.07128906   440096.18750000 349936.81250000 
0.16400    15502346.00000000 10028752.00000000 24928660.00000000 3872.36694336   429365.43750000 341418.15625000 
0.16500    15281893.00000000 9891552.00000000 24580704.00000000 3762.15893555   418749.75000000 332989.46875000 
0.16600    15060706.00000000 9753774.00000000 24231416.00000000 3654.56591797   408256.50000000 324653.12500000 
0.16700    14839015.00000000 9615457.00000000 23881048.00000000 3549.58959961   397891.87500000 316413.59375000 
0.16800    14616905.00000000 9476755.00000000 23530096.00000000 3447.27294922   387662.12500000 308283.62500000 
0.16900    14394638.00000000 9337786.00000000 23178568.00000000 3347.72216797   377582.25000000 300260.50000000 
0.17000    14172191.00000000 9198591.00000000 22826602.00000000 3250.89038086   367648.18750000 292354.03125000 
