# SAXS profile: number of points = 501, q_min = 0, q_max = 0.5, delta_q = 0.001
#    q    intensity 
0.00000    162232240.00000000 101202392.00000000 256269920.00000000 104113.04687500 8219760.50000000 6491922.50000000 
0.00100    162202448.00000000 101181904.00000000 256219200.00000000 104082.53125000 8217724.00000000 6490357.00000000 
0.00200    162110624.00000000 101121912.00000000 256067536.00000000 103993.13281250 8211724.00000000 6485604.00000000 
0.00300    161953600.00000000 101021712.00000000 255811696.00000000 103843.93750000 8201595.00000000 6477685.50000000 
0.00400    161727776.00000000 100882696.00000000 255456736.00000000 103636.20312500 8187544.00000000 6466628.00000000 
0.00500    161434528.00000000 100703320.00000000 255001232.00000000 103369.57812500 8169490.50000000 6452452.50000000 
0.00600    161075136.00000000 100483072.00000000 254440496.00000000 103044.37500000 8147474.50000000 6435209.00000000 
0.00700    160654368.00000000 100225744.00000000 253785328.00000000 102661.99218750 8121612.50000000 6414870.50000000 
0.00800    160167264.00000000 99930464.00000000 253030432.00000000 102222.57812500 8091841.00000000 6391475.00000000 
0.00900    159621824.00000000 99597640.00000000 252179392.00000000 101727.98437500 8058257.00000000 6365140.50000000 
0.01000    159019808.00000000 99226616.00000000 251228496.00000000 101178.38281250 8020935.00000000 6335811.50000000 
0.01100    158357280.00000000 98817920.00000000 250185616.00000000 100575.08593750 7979918.00000000 6303616.00000000 
0.01200    157633600.00000000 98371120.00000000 249049360.00000000 99919.30468750  7935308.50000000 6268569.50000000 
0.01300    156847552.00000000 97889560.00000000 247820960.00000000 99211.60937500  7887155.00000000 6230739.50000000 
0.01400    156006464.00000000 97372640.00000000 246503136.00000000 98454.35937500  7835511.50000000 6190181.50000000 
0.01500    155110944.00000000 96821592.00000000 245095936.00000000 97649.04687500  7780559.50000000 6147002.00000000 
0.01600    154159296.00000000 96237208.00000000 243604896.00000000 96797.64843750  7722321.50000000 6101252.00000000 
0.01700    153153904.00000000 95619160.00000000 242029632.00000000 95900.54687500  7660907.00000000 6052997.00000000 
0.01800    152098048.00000000 94969536.00000000 240371776.00000000 94960.00781250  7596408.50000000 6002331.50000000 
0.01900    150990400.00000000 94288664.00000000 238635952.00000000 93978.28906250  7528987.50000000 5949362.00000000 
0.02000    149833904.00000000 93577608.00000000 236821440.00000000 92956.46093750  7458633.50000000 5894098.00000000 
0.02100    148632400.00000000 92837704.00000000 234935328.00000000 91897.37500000  7385640.50000000 5836713.50000000 
0.02200    147382864.00000000 92069032.00000000 232975248.00000000 90801.57031250  7309981.00000000 5777249.00000000 
0.02300    146089984.00000000 91272984.00000000 230947088.00000000 89673.00781250  7231852.00000000 5715831.50000000 
0.02400    144754432.00000000 90451376.00000000 228851648.00000000 88511.80468750  7151365.50000000 5652534.00000000 
0.02500    143380640.00000000 89604840.00000000 226693264.00000000 87320.98437500  7068610.50000000 5587469.00000000 
0.02600    141966720.00000000 88734056.00000000 224474224.00000000 86103.44531250  6983699.00000000 5520726.00000000 
0.02700    140515840.00000000 87840016.00000000 222198992.00000000 84860.14843750  6896887.00000000 5452459.00000000 
0.02800    139030800.00000000 86924576.00000000 219865280.00000000 83593.08593750  6808166.00000000 5382715.50000000 
0.02900    137513232.00000000 85988496.00000000 217480464.00000000 82304.94531250  6717770.50000000 5311604.50000000 
0.03000    135964464.00000000 85033008.00000000 215048976.00000000 80997.76562500  6625721.50000000 5239199.00000000 
0.03100    134386720.00000000 84060080.00000000 212569520.00000000 79673.23437500  6532327.00000000 5165686.00000000 
0.03200    132781656.00000000 83069432.00000000 210048192.00000000 78335.07031250  6437555.50000000 5091110.50000000 
0.03300    131152040.00000000 82064328.00000000 207488080.00000000 76983.42187500  6341588.50000000 5015589.50000000 
0.03400    129498576.00000000 81043760.00000000 204890192.00000000 75620.85937500  6244594.50000000 4939256.00000000 
0.03500    127825488.00000000 80010552.00000000 202260064.00000000 74250.71093750  6146642.50000000 4862204.00000000 
0.03600    126132224.00000000 78964904.00000000 199598912.00000000 72873.08593750  6047954.00000000 4784489.00000000 
0.03700    124421856.00000000 77908136.00000000 196910496.00000000 71491.69531250  5948639.00000000 4706271.50000000 
0.03800    122696376.00000000 76841688.00000000 194197104.00000000 70107.60156250  5848748.00000000 4627601.50000000 
0.03900    120957984.00000000 75766440.00000000 191461952.00000000 68721.86718750  5748438.50000000 4548624.50000000 
0.04000    119207824.00000000 74684448.00000000 188708496.00000000 67337.61718750  5647857.00000000 4469361.00000000 
0.04100    117449000.00000000 73595464.00000000 185940400.00000000 65956.31250000  5547137.50000000 4390027.00000000 
0.04200    115681040.00000000 72501648.00000000 183161712.00000000 64578.92968750  5446307.50000000 4310611.50000000 
0.04300    113908696.00000000 71404104.00000000 180369008.00000000 63208.13671875  5345620.00000000 4231219.00000000 
0.04400    112132344.00000000 70303880.00000000 177572912.00000000 61845.42968750  5245023.00000000 4151952.00000000 
0.04500    110353008.00000000 69201232.00000000 174772624.00000000 60491.55078125  5144852.00000000 4072929.75000000 
0.04600    108573632.00000000 68097880.00000000 171968512.00000000 59148.34765625  5044925.00000000 3994206.50000000 
0.04700    106795256.00000000 66994612.00000000 169168032.00000000 57817.36718750  4945594.00000000 3915809.25000000 
0.04800    105019608.00000000 65893064.00000000 166370720.00000000 56499.76562500  4846766.50000000 3837900.50000000 
0.04900    103249096.00000000 64793704.00000000 163579728.00000000 55196.97656250  4748652.50000000 3760517.50000000 
0.05000    101483480.00000000 63697896.00000000 160798192.00000000 53909.83593750  4651333.50000000 3683699.25000000 
0.05100    99725520.00000000 62606144.00000000 158026640.00000000 52639.14453125  4554808.50000000 3607553.75000000 
0.05200    97976664.00000000 61519356.00000000 155270048.00000000 51386.74218750  4459250.50000000 3532098.75000000 
0.05300    96238120.00000000 60438548.00000000 152529792.00000000 50152.71484375  4364718.50000000 3457462.00000000 
0.05400    94510080.00000000 59364496.00000000 149804032.00000000 48938.30078125  4271176.00000000 3383647.75000000 
0.05500    92795992.00000000 58298080.00000000 147100608.00000000 47744.07421875  4178828.50000000 3310729.00000000 
0.05600    91095872.00000000 57240176.00000000 144416944.00000000 46571.05468750  4087647.50000000 3238707.75000000 
0.05700    89410688.00000000 56191160.00000000 141758992.00000000 45419.27734375  3997770.50000000 3167701.50000000 
0.05800    87741680.00000000 55151796.00000000 139124928.00000000 44289.81640625  3909167.75000000 3097705.00000000 
0.05900    86089392.00000000 54122580.00000000 136516672.00000000 43182.76171875  3821935.75000000 3028742.00000000 
0.06000    84456560.00000000 53104752.00000000 133938736.00000000 42098.31250000  3736095.00000000 2960903.25000000 
0.06100    82842240.00000000 52098444.00000000 131389184.00000000 41037.61328125  3651676.50000000 2894202.25000000 
0.06200    81247608.00000000 51104600.00000000 128871896.00000000 40000.11328125  3568744.00000000 2828598.25000000 
0.06300    79674592.00000000 50122944.00000000 126386464.00000000 38986.01953125  3487318.50000000 2764198.75000000 
0.06400    78123280.00000000 49154140.00000000 123934552.00000000 37996.07031250  3407393.25000000 2701008.75000000 
0.06500    76593952.00000000 48199964.00000000 121517376.00000000 37029.23437500  3329022.50000000 2639012.75000000 
0.06600    75087136.00000000 47258592.00000000 119136400.00000000 36086.63281250  3252215.25000000 2578241.00000000 
0.06700    73604368.00000000 46331928.00000000 116791736.00000000 35167.93359375  3176998.25000000 2518721.50000000 
0.06800    72144944.00000000 45420212.00000000 114483752.00000000 34272.23437500  3103361.00000000 2460451.00000000 
0.06900    70710320.00000000 44522808.00000000 112215248.00000000 33400.55078125  3031318.25000000 2403460.25000000 
0.07000    69299608.00000000 43641448.00000000 109984592.00000000 32551.75585938  2960902.00000000 2347675.50000000 
0.07100    67914736.00000000 42774780.00000000 107794176.00000000 31725.52148438  2892056.75000000 2293169.50000000 
0.07200    66555228.00000000 41923716.00000000 105642296.00000000 30922.33007812  2824803.75000000 2239932.25000000 
0.07300    65221396.00000000 41088832.00000000 103531752.00000000 30141.54101562  2759149.25000000 2187951.00000000 
0.07400    63913036.00000000 40269576.00000000 101460936.00000000 29382.90234375  2695095.00000000 2137210.00000000 
0.07500    62630848.00000000 39466632.00000000 99431112.00000000 28645.71875000  2632586.25000000 2087712.87500000 
0.07600    61373972.00000000 38679300.00000000 97442872.00000000 27929.70703125  2571628.00000000 2039428.00000000 
0.07700    60143268.00000000 37908568.00000000 95494816.00000000 27234.18164062  2512225.00000000 1992370.87500000 
0.07800    58939208.00000000 37153928.00000000 93587568.00000000 26559.20898438  2454330.00000000 1946502.12500000 
0.07900    57760640.00000000 36415240.00000000 91721312.00000000 25904.01171875  2397948.50000000 1901822.62500000 
0.08000    56608392.00000000 35692556.00000000 89896112.00000000 25267.88671875  2343045.75000000 1858306.87500000 
0.08100    55481332.00000000 34986160.00000000 88111440.00000000 24650.70507812  2289564.75000000 1815945.87500000 
0.08200    54379840.00000000 34295540.00000000 86367720.00000000 24051.78320312  2237530.75000000 1774711.00000000 
0.08300    53304152.00000000 33621112.00000000 84663432.00000000 23470.56445312  2186898.00000000 1734587.50000000 
0.08400    52253408.00000000 32962634.00000000 82998848.00000000 22906.56054688  2137620.50000000 1695542.25000000 
0.08500    51227692.00000000 32318974.00000000 81374632.00000000 22359.06250000  2089696.87500000 1657548.00000000 
0.08600    50226476.00000000 31691280.00000000 79788408.00000000 21827.80273438  2043090.37500000 1620615.00000000 
0.08700    49249456.00000000 31078606.00000000 78241176.00000000 21312.17382812  1997757.87500000 1584682.25000000 
0.08800    48296448.00000000 30480916.00000000 76731416.00000000 20811.64453125  1953651.62500000 1549731.87500000 
0.08900    47367008.00000000 29897926.00000000 75259112.00000000 20325.60546875  1910786.75000000 1515760.50000000 
0.09000    46460908.00000000 29329648.00000000 73823776.00000000 19853.44335938  1869075.75000000 1482708.00000000 
0.09100    45577464.00000000 28775506.00000000 72424936.00000000 19394.91015625  1828515.62500000 1450574.25000000 
0.09200    44716200.00000000 28235650.00000000 71060792.00000000 18949.22070312  1789086.75000000 1419333.62500000 
0.09300    43876956.00000000 27709580.00000000 69731752.00000000 18516.03125000  1750720.00000000 1388944.62500000 
0.09400    43059376.00000000 27196936.00000000 68436536.00000000 18094.99804688  1713405.12500000 1359372.75000000 
0.09500    42262728.00000000 26697836.00000000 67175112.00000000 17685.31250000  1677104.37500000 1330622.00000000 
0.09600    41486340.00000000 26211362.00000000 65946508.00000000 17286.75781250  1641773.37500000 1302639.50000000 
0.09700    40730412.00000000 25737796.00000000 64749704.00000000 16898.86914062  1607403.62500000 1275419.00000000 
0.09800    39993808.00000000 25276570.00000000 63583880.00000000 16521.17773438  1573948.87500000 1248914.75000000 
0.09900    39276280.00000000 24827368.00000000 62448484.00000000 16153.42382812  1541367.00000000 1223125.12500000 
0.10000    38576988.00000000 24389898.00000000 61342312.00000000 15794.90917969  1509642.25000000 1198006.62500000 
0.10100    37896292.00000000 23963786.00000000 60264636.00000000 15445.41992188  1478730.00000000 1173535.62500000 
0.10200    37232676.00000000 23548916.00000000 59215336.00000000 15104.60253906  1448621.87500000 1149694.87500000 
0.10300    36586268.00000000 23144532.00000000 58192852.00000000 14772.07910156  1419254.37500000 1126461.75000000 
0.10400    35956440.00000000 22751214.00000000 57196516.00000000 14447.51757812  1390629.12500000 1103803.00000000 
0.10500    35342424.00000000 22367528.00000000 56226300.00000000 14130.73535156  1362710.75000000 1081700.00000000 
0.10600    34744084.00000000 21993786.00000000 55280224.00000000 13821.08593750  1335458.00000000 1060137.12500000 
0.10700    34160780.00000000 21629484.00000000 54357996.00000000 13518.45996094  1308858.75000000 1039097.62500000 
0.10800    33591228.00000000 21274452.00000000 53458984.00000000 13222.86621094  1282873.00000000 1018545.00000000 
0.10900    33036378.00000000 20928410.00000000 52582132.00000000 12933.60839844  1257490.00000000 998466.12500000 
0.11000    32494746.00000000 20590688.00000000 51726780.00000000 12650.72460938  1232687.37500000 978843.62500000 
0.11100    31966130.00000000 20261288.00000000 50892208.00000000 12373.88183594  1208430.37500000 959656.31250000 
0.11200    31450208.00000000 19939918.00000000 50077620.00000000 12102.89648438  1184703.62500000 940881.56250000 
0.11300    30946182.00000000 19626190.00000000 49282020.00000000 11837.42285156  1161477.87500000 922509.75000000 
0.11400    30453714.00000000 19319868.00000000 48505036.00000000 11577.60156250  1138753.37500000 904542.31250000 
0.11500    29972546.00000000 19020386.00000000 47746012.00000000 11322.92285156  1116483.37500000 886932.62500000 
0.11600    29502204.00000000 18727958.00000000 47004036.00000000 11073.29687500  1094663.25000000 869678.12500000 
0.11700    29041932.00000000 18442018.00000000 46277868.00000000 10828.75488281  1073271.62500000 852765.12500000 
0.11800    28591438.00000000 18162150.00000000 45567772.00000000 10588.86132812  1052294.75000000 836174.87500000 
0.11900    28150480.00000000 17888316.00000000 44872688.00000000 10353.72460938  1031715.43750000 819893.50000000 
0.12000    27718508.00000000 17620194.00000000 44191980.00000000 10123.04589844  1011511.81250000 803913.93750000 
0.12100    27295436.00000000 17357810.00000000 43525372.00000000 9896.86523438   991679.75000000 788225.81250000 
0.12200    26880486.00000000 17100302.00000000 42871592.00000000 9674.89550781   972201.12500000 772818.50000000 
0.12300    26473664.00000000 16848062.00000000 42230656.00000000 9457.12695312   953062.18750000 757666.81250000 
0.12400    26074346.00000000 16600604.00000000 41601608.00000000 9243.45117188   934244.50000000 742788.25000000 
0.12500    25682298.00000000 16357600.00000000 40984064.00000000 9033.73730469   915753.81250000 728147.37500000 
0.12600    25297472.00000000 16119080.00000000 40378044.00000000 8828.07226562   897561.93750000 713749.50000000 
0.12700    24919044.00000000 15884626.00000000 39782144.00000000 8626.19335938   879666.37500000 699580.12500000 
0.12800    24547016.00000000 15654068.00000000 39196228.00000000 8427.97656250   862052.68750000 685629.68750000 
0.12900    24181146.00000000 15427553.00000000 38619960.00000000 8233.51171875   844715.00000000 671902.18750000 
0.13000    23820982.00000000 15204451.00000000 38052996.00000000 8042.65625000   827645.37500000 658381.37500000 
0.13100    23466276.00000000 14984704.00000000 37494696.00000000 7855.27197266   810833.31250000 645056.81250000 
0.13200    23117154.00000000 14768430.00000000 36944732.00000000 7671.43505859   794273.50000000 631928.31250000 
0.13300    22773066.00000000 14555270.00000000 36402968.00000000 7491.09912109   777965.81250000 618997.25000000 
0.13400    22433792.00000000 14345011.00000000 35868612.00000000 7314.01953125   761893.56250000 606256.75000000 
0.13500    22099234.00000000 14137718.00000000 35341604.00000000 7140.39941406   746055.06250000 593692.43750000 
0.13600    21769014.00000000 13933022.00000000 34821624.00000000 6969.95800781   730441.31250000 581302.25000000 
0.13700    21443030.00000000 13730929.00000000 34308288.00000000 6802.83642578   715055.43750000 569089.62500000 
0.13800    21121354.00000000 13531422.00000000 33801412.00000000 6638.79394531   699880.56250000 557045.62500000 
0.13900    20803768.00000000 13334317.00000000 33300264.00000000 6477.95117188   684929.56250000 545163.12500000 
0.14000    20489790.00000000 13139356.00000000 32805474.00000000 6320.20751953   670187.25000000 533447.31250000 
0.14100    20179500.00000000 12946716.00000000 32316148.00000000 6165.54101562   655649.37500000 521892.62500000 
0.14200    19872668.00000000 12756214.00000000 31832416.00000000 6013.82519531   641314.93750000 510499.43750000 
0.14300    19569182.00000000 12567611.00000000 31354094.00000000 5865.14306641   627184.56250000 499259.06250000 
0.14400    19269242.00000000 12381079.00000000 30880688.00000000 5719.40917969   613250.43750000 488169.12500000 
0.14500    18972458.00000000 12196498.00000000 30412218.00000000 5576.60449219   599512.43750000 477235.90625000 
0.14600    18678836.00000000 12013616.00000000 29948708.00000000 5436.62939453   585969.43750000 466458.12500000 
0.14700    18388242.00000000 11832640.00000000 29489854.00000000 5299.58691406   572624.87500000 455822.53125000 
0.14800    18100658.00000000 11653268.00000000 29035514.00000000 5165.26806641   559463.62500000 445339.06250000 
0.14900    17815894.00000000 11475701.00000000 28585500.00000000 5033.75244141   546498.81250000 434999.87500000 
0.15000    17534092.00000000 11299751.00000000 28139956.00000000 4905.00927734   533709.37500000 424811.78125000 
0.15100    17255016.00000000 11125380.00000000 27698682.00000000 4778.92529297   521122.78125000 414764.75000000 
0.15200    16978838.00000000 10952741.00000000 27261752.00000000 4655.61035156   508717.31250000 404869.87500000 
0.15300    16705295.00000000 10781643.00000000 26829004.00000000 4534.89306641   496495.37500000 395113.21875000 
0.15400    16434502.00000000 10612007.00000000 26400154.00000000 4416.83593750   484456.09375000 385505.59375000 
0.15500    16166522.00000000 10444047.00000000 25975576.00000000 4301.35546875   472606.81250000 376038.18750000 
0.15600    15900973.00000000 10277658.00000000 25555060.00000000 4188.44482422   460940.31250000 366712.96875000 
0.15700    15638329.00000000 10112563.00000000 25138410.00000000 4078.12500000   449459.37500000 357539.93750000 
0.15800    15378075.00000000 9949110.00000000 24725868.00000000 3970.28637695   438158.81250000 348502.87500000 
0.15900    15120571.00000000 9787227.00000000 24317294.00000000 3864.95141602   427043.56250000 339614.87500000 
0.16000    14865741.00000000 9626767.00000000 23912696.00000000 3762.05908203   416109.06250000 330865.12500000 
0.16100    14613464.00000000 9467956.00000000 23512236.00000000 3661.64453125   405362.56250000 322264.25000000 
0.16200    14363917.00000000 9310593.00000000 23115930.00000000 3563.63671875   394792.25000000 313803.15625000 
0.16300    14117022.00000000 9154805.00000000 22723476.00000000 3467.96606445   384409.87500000 305487.43750000 
0.16400    13872829.00000000 9000614.00000000 22335346.00000000 3374.70507812   374208.87500000 297316.62500000 
0.16500    13631248.00000000 8847888.00000000 21951262.00000000 3283.74829102   364188.75000000 289289.84375000 
0.16600    13392519.00000000 8696867.00000000 21571224.00000000 3195.10278320   354353.43750000 281406.75000000 
0.16700    13156466.00000000 8547366.00000000 21195172.00000000 3108.70190430   344697.28125000 273666.96875000 
0.16800    12923022.00000000 8399325.00000000 20823510.00000000 3024.56201172   335221.09375000 266067.46875000 
0.16900    12692515.00000000 8253181.00000000 20456216.00000000 2942.66406250   325931.25000000 258617.45312500 
0.17000    12464795.00000000 8108532.00000000 20093146.00000000 2862.92504883   316821.71875000 251307.00000000 
