# SAXS profile: number of points = 501, q_min = 0, q_max = 0.5, delta_q = 0.001
#    q    intensity 
0.00000    162234768.00000000 101202192.00000000 256270192.00000000 107097.42187500 8336775.50000000 6584328.50000000 
0.00100    162189888.00000000 101172424.00000000 256195680.00000000 107058.25000000 8334022.00000000 6582160.50000000 
0.00200    162052784.00000000 101084232.00000000 255973216.00000000 106940.15625000 8325715.00000000 6575643.50000000 
0.00300    161818592.00000000 100937896.00000000 255601056.00000000 106744.50000000 8311924.00000000 6564824.00000000 
0.00400    161487504.00000000 100733032.00000000 255081680.00000000 106470.44531250 8292737.00000000 6549666.50000000 
0.00500    161062304.00000000 100470184.00000000 254413440.00000000 106118.96875000 8268040.50000000 6530237.50000000 
0.00600    160545920.00000000 100150032.00000000 253600912.00000000 105691.83593750 8238043.50000000 6506590.00000000 
0.00700    159933552.00000000 99773976.00000000 252646784.00000000 105190.32031250 8202751.00000000 6478745.00000000 
0.00800    159235712.00000000 99342504.00000000 251548336.00000000 104614.07812500 8162221.00000000 6446898.00000000 
0.00900    158451184.00000000 98856848.00000000 250311968.00000000 103966.52343750 8116631.50000000 6410956.50000000 
0.01000    157582416.00000000 98316408.00000000 248939696.00000000 103248.21093750 8066021.00000000 6371114.00000000 
0.01100    156625136.00000000 97723512.00000000 247431536.00000000 102461.06250000 8010555.00000000 6327357.50000000 
0.01200    155583216.00000000 97079264.00000000 245795968.00000000 101606.88281250 7950362.00000000 6279948.00000000 
0.01300    154462496.00000000 96383968.00000000 244031424.00000000 100689.60156250 7885498.00000000 6228849.00000000 
0.01400    153263520.00000000 95640776.00000000 242145136.00000000 99709.87500000  7816242.00000000 6174320.00000000 
0.01500    151991184.00000000 94852032.00000000 240137008.00000000 98670.86718750  7742633.50000000 6116302.00000000 
0.01600    150642016.00000000 94016640.00000000 238015920.00000000 97573.77343750  7664993.00000000 6055119.00000000 
0.01700    149224832.00000000 93137976.00000000 235783792.00000000 96423.46875000  7583321.50000000 5990784.50000000 
0.01800    147740560.00000000 92217344.00000000 233445296.00000000 95221.41406250  7497957.00000000 5923447.00000000 
0.01900    146190768.00000000 91256752.00000000 231006528.00000000 93970.97656250  7408957.50000000 5853349.50000000 
0.02000    144580496.00000000 90258824.00000000 228469744.00000000 92675.21093750  7316602.50000000 5780566.50000000 
0.02100    142911920.00000000 89223392.00000000 225841952.00000000 91336.98437500  7221115.50000000 5705282.50000000 
0.02200    141189888.00000000 88154424.00000000 223126240.00000000 89960.49218750  7122645.50000000 5627681.00000000 
0.02300    139413104.00000000 87054360.00000000 220330912.00000000 88547.02343750  7021433.50000000 5547868.00000000 
0.02400    137591280.00000000 85923584.00000000 217459584.00000000 87101.48437500  6917685.00000000 5466158.00000000 
0.02500    135726240.00000000 84765080.00000000 214520192.00000000 85626.03906250  6811582.50000000 5382513.00000000 
0.02600    133817952.00000000 83581952.00000000 211514976.00000000 84124.83593750  6703435.00000000 5297219.00000000 
0.02700    131873528.00000000 82374616.00000000 208451856.00000000 82600.75781250  6593402.50000000 5210488.00000000 
0.02800    129895368.00000000 81146248.00000000 205333840.00000000 81057.10156250  6481760.50000000 5122414.50000000 
0.02900    127886952.00000000 79899456.00000000 202168016.00000000 79497.64062500  6368625.00000000 5033179.00000000 
0.03000    125852848.00000000 78636704.00000000 198962784.00000000 77924.50781250  6254271.00000000 4943048.50000000 
0.03100    123795024.00000000 77358400.00000000 195720176.00000000 76341.92968750  6138943.00000000 4852114.00000000 
0.03200    121718880.00000000 76069336.00000000 192446352.00000000 74752.50781250  6022847.50000000 4760535.00000000 
0.03300    119626720.00000000 74770216.00000000 189149952.00000000 73159.39062500  5906141.50000000 4668516.00000000 
0.03400    117522088.00000000 73463504.00000000 185832928.00000000 71566.20312500  5789150.00000000 4576207.00000000 
0.03500    115409104.00000000 72150480.00000000 182500704.00000000 69974.66406250  5671930.00000000 4483788.00000000 
0.03600    113291560.00000000 70834056.00000000 179160624.00000000 68388.12500000  5554797.00000000 4391364.00000000 
0.03700    111172240.00000000 69515608.00000000 175816720.00000000 66809.33593750  5437842.50000000 4299115.00000000 
0.03800    109052968.00000000 68197952.00000000 172477024.00000000 65240.51953125  5321351.00000000 4207204.50000000 
0.03900    106939232.00000000 66883236.00000000 169141792.00000000 63685.41015625  5205466.50000000 4115716.00000000 
0.04000    104831808.00000000 65573088.00000000 165818624.00000000 62144.56640625  5090382.00000000 4024902.50000000 
0.04100    102735608.00000000 64268784.00000000 162512912.00000000 60621.98828125  4976205.50000000 3934786.00000000 
0.04200    100653448.00000000 62973252.00000000 159227536.00000000 59118.53906250  4863124.00000000 3845549.00000000 
0.04300    98587056.00000000 61687000.00000000 155966720.00000000 57636.78125000  4751309.50000000 3757299.25000000 
0.04400    96539264.00000000 60412588.00000000 152734640.00000000 56178.11328125  4640863.00000000 3670131.50000000 
0.04500    94513488.00000000 59151192.00000000 149536736.00000000 54744.30078125  4532006.50000000 3584161.00000000 
0.04600    92510472.00000000 57904368.00000000 146377472.00000000 53337.76953125  4424764.50000000 3499522.50000000 
0.04700    90534256.00000000 56673932.00000000 143258048.00000000 51958.64843750  4319272.50000000 3416218.75000000 
0.04800    88585240.00000000 55460076.00000000 140181776.00000000 50609.01171875  4215679.00000000 3334421.50000000 
0.04900    86667384.00000000 54265384.00000000 137154272.00000000 49289.37890625  4114025.50000000 3254177.25000000 
0.05000    84780888.00000000 53090028.00000000 134175944.00000000 48001.64062500  4014453.00000000 3175541.25000000 
0.05100    82927752.00000000 51935576.00000000 131252256.00000000 46745.40234375  3917014.25000000 3098587.50000000 
0.05200    81110904.00000000 50802376.00000000 128381776.00000000 45522.10546875  3821764.75000000 3023375.50000000 
0.05300    79329376.00000000 49692036.00000000 125570040.00000000 44332.19140625  3728796.00000000 2949947.75000000 
0.05400    77586104.00000000 48605924.00000000 122816904.00000000 43176.01562500  3638138.25000000 2878338.25000000 
0.05500    75881720.00000000 47543192.00000000 120126136.00000000 42053.73046875  3549815.00000000 2808585.00000000 
0.05600    74217680.00000000 46505488.00000000 117497976.00000000 40965.60937500  3463903.00000000 2740721.50000000 
0.05700    72594432.00000000 45493848.00000000 114934320.00000000 39911.63671875  3380405.50000000 2674761.50000000 
0.05800    71012248.00000000 44507496.00000000 112435352.00000000 38892.13281250  3299304.50000000 2610713.00000000 
0.05900    69473056.00000000 43547532.00000000 110003528.00000000 37905.63281250  3220648.75000000 2548572.50000000 
0.06000    67975272.00000000 42613640.00000000 107639056.00000000 36952.83593750  3144403.50000000 2488390.75000000 
0.06100    66520160.00000000 41706652.00000000 105341264.00000000 36033.46093750  3070608.50000000 2430082.25000000 
0.06200    65109208.00000000 40826280.00000000 103112072.00000000 35146.24218750  2999213.25000000 2373679.00000000 
0.06300    63740232.00000000 39973056.00000000 100950576.00000000 34291.08984375  2930214.75000000 2319198.00000000 
0.06400    62414296.00000000 39146224.00000000 98856088.00000000 33467.36718750  2863538.00000000 2266548.25000000 
0.06500    61131228.00000000 38346384.00000000 96830080.00000000 32673.91015625  2799207.25000000 2215729.25000000 
0.06600    59890012.00000000 37572788.00000000 94870856.00000000 31910.37890625  2737163.50000000 2166726.50000000 
0.06700    58691200.00000000 36825892.00000000 92978024.00000000 31175.27539062  2677325.25000000 2119484.75000000 
0.06800    57533676.00000000 36104568.00000000 91150840.00000000 30468.23828125  2619672.25000000 2073978.62500000 
0.06900    56417000.00000000 35408996.00000000 89387896.00000000 29788.07031250  2564137.75000000 2030156.50000000 
0.07000    55340628.00000000 34738572.00000000 87689208.00000000 29133.50976562  2510686.00000000 1987955.37500000 
0.07100    54302784.00000000 34093156.00000000 86052104.00000000 28503.73046875  2459245.25000000 1947354.87500000 
0.07200    53304140.00000000 33471898.00000000 84476560.00000000 27897.86523438  2409709.50000000 1908268.12500000 
0.07300    52343132.00000000 32874060.00000000 82960920.00000000 27314.59570312  2362049.50000000 1870670.00000000 
0.07400    51418248.00000000 32299464.00000000 81502344.00000000 26752.72265625  2316190.00000000 1834504.37500000 
0.07500    50529312.00000000 31747410.00000000 80100856.00000000 26211.41015625  2272070.50000000 1799700.87500000 
0.07600    49674568.00000000 31216572.00000000 78754048.00000000 25689.09765625  2229561.25000000 1766194.62500000 
0.07700    48853000.00000000 30707012.00000000 77459128.00000000 25185.06835938  2188650.25000000 1733930.12500000 
0.07800    48063432.00000000 30217796.00000000 76216496.00000000 24698.10742188  2149199.25000000 1702847.25000000 
0.07900    47304836.00000000 29747850.00000000 75022224.00000000 24227.35351562  2111170.50000000 1672901.62500000 
0.08000    46575732.00000000 29296708.00000000 73874920.00000000 23771.28320312  2074477.12500000 1644003.62500000 
0.08100    45874568.00000000 28863644.00000000 72773032.00000000 23329.46289062  2039082.37500000 1616120.50000000 
0.08200    45201216.00000000 28447520.00000000 71714472.00000000 22900.34765625  2004850.25000000 1589176.87500000 
0.08300    44552828.00000000 28047814.00000000 70695240.00000000 22483.29687500  1971721.87500000 1563101.50000000 
0.08400    43929352.00000000 27663642.00000000 69717008.00000000 22077.43554688  1939645.87500000 1537869.75000000 
0.08500    43328912.00000000 27294172.00000000 68774552.00000000 21681.63085938  1908520.87500000 1513393.75000000 
0.08600    42749832.00000000 26938568.00000000 67866688.00000000 21295.21484375  1878308.62500000 1489622.62500000 
0.08700    42191952.00000000 26596100.00000000 66992352.00000000 20917.39648438  1848911.25000000 1466517.62500000 
0.08800    41653060.00000000 26265854.00000000 66148444.00000000 20547.52148438  1820292.75000000 1444013.00000000 
0.08900    41132072.00000000 25947234.00000000 65333604.00000000 20184.66406250  1792372.12500000 1422059.50000000 
0.09000    40628036.00000000 25639180.00000000 64545312.00000000 19828.23046875  1765075.50000000 1400617.75000000 
0.09100    40139616.00000000 25340834.00000000 63781728.00000000 19477.84765625  1738379.62500000 1379635.75000000 
0.09200    39665824.00000000 25052138.00000000 63041496.00000000 19132.78515625  1712204.00000000 1359072.12500000 
0.09300    39205096.00000000 24771812.00000000 62322224.00000000 18792.62695312  1686508.50000000 1338889.62500000 
0.09400    38756720.00000000 24499104.00000000 61622420.00000000 18456.76757812  1661236.50000000 1319040.25000000 
0.09500    38319140.00000000 24233540.00000000 60940952.00000000 18124.93750000  1636361.75000000 1299487.37500000 
0.09600    37891900.00000000 23974356.00000000 60275048.00000000 17796.75390625  1611820.87500000 1280204.87500000 
0.09700    37474100.00000000 23721116.00000000 59623880.00000000 17471.98632812  1587593.62500000 1261171.37500000 
0.09800    37064216.00000000 23473102.00000000 58986060.00000000 17150.39453125  1563641.25000000 1242332.75000000 
0.09900    36662320.00000000 23229684.00000000 58359408.00000000 16831.61523438  1539919.00000000 1223689.12500000 
0.10000    36266200.00000000 22990328.00000000 57743968.00000000 16515.56835938  1516407.62500000 1205197.25000000 
0.10100    35876036.00000000 22754620.00000000 57136760.00000000 16202.16699219  1493074.25000000 1186855.00000000 
0.10200    35490708.00000000 22522186.00000000 56538024.00000000 15891.20214844  1469905.25000000 1168624.12500000 
0.10300    35109764.00000000 22292228.00000000 55945632.00000000 15582.55371094  1446881.50000000 1150497.50000000 
0.10400    34732712.00000000 22064412.00000000 55359132.00000000 15276.47460938  1423982.00000000 1132463.50000000 
0.10500    34358716.00000000 21838722.00000000 54777724.00000000 14972.75683594  1401197.25000000 1114524.50000000 
0.10600    33987364.00000000 21614186.00000000 54199696.00000000 14671.45605469  1378507.12500000 1096634.00000000 
0.10700    33617860.00000000 21391168.00000000 53625192.00000000 14372.69433594  1355912.87500000 1078826.00000000 
0.10800    33250126.00000000 21168942.00000000 53053296.00000000 14076.48339844  1333406.62500000 1061070.12500000 
0.10900    32883414.00000000 20947150.00000000 52482412.00000000 13782.87988281  1310981.75000000 1043372.62500000 
0.11000    32517946.00000000 20725848.00000000 51913276.00000000 13492.00292969  1288632.87500000 1025732.68750000 
0.11100    32152874.00000000 20504730.00000000 51344516.00000000 13204.03906250  1266369.25000000 1008140.62500000 
0.11200    31788128.00000000 20283714.00000000 50776260.00000000 12919.12304688  1244188.25000000 990612.87500000 
0.11300    31423338.00000000 20062380.00000000 50208056.00000000 12637.29980469  1222100.12500000 973141.18750000 
0.11400    31058808.00000000 19840874.00000000 49638576.00000000 12358.87109375  1200100.25000000 955734.12500000 
0.11500    30694052.00000000 19618948.00000000 49069688.00000000 12083.84960938  1178199.62500000 938401.31250000 
0.11600    30328862.00000000 19396456.00000000 48499340.00000000 11812.44140625  1156411.00000000 921130.18750000 
0.11700    29963414.00000000 19173658.00000000 47928300.00000000 11544.80664062  1134732.75000000 903956.31250000 
0.11800    29597406.00000000 18950166.00000000 47355576.00000000 11281.06933594  1113172.62500000 886860.87500000 
0.11900    29231112.00000000 18726032.00000000 46782248.00000000 11021.30957031  1091764.62500000 869871.12500000 
0.12000    28864318.00000000 18501260.00000000 46207892.00000000 10765.88085938  1070490.12500000 852980.50000000 
0.12100    28497400.00000000 18276228.00000000 45632888.00000000 10514.67480469  1049388.37500000 836218.50000000 
0.12200    28130054.00000000 18050594.00000000 45056340.00000000 10267.95507812  1028446.68750000 819578.68750000 
0.12300    27762616.00000000 17824358.00000000 44479500.00000000 10025.85449219  1007698.68750000 803068.31250000 
0.12400    27394892.00000000 17597892.00000000 43902112.00000000 9788.28320312   987131.93750000 786711.93750000 
0.12500    27027512.00000000 17370860.00000000 43324268.00000000 9555.52734375   966770.43750000 770507.68750000 
0.12600    26660256.00000000 17143760.00000000 42746796.00000000 9327.66308594   946641.87500000 754481.25000000 
0.12700    26293448.00000000 16916566.00000000 42169020.00000000 9104.57617188   926736.25000000 738615.93750000 
0.12800    25927110.00000000 16689297.00000000 41591724.00000000 8886.45703125   907073.81250000 722939.93750000 
0.12900    25561558.00000000 16462250.00000000 41014976.00000000 8673.35058594   887658.56250000 707455.62500000 
0.13000    25196840.00000000 16235231.00000000 40439000.00000000 8465.14648438   868507.81250000 692172.93750000 
0.13100    24833108.00000000 16008572.00000000 39864908.00000000 8261.95800781   849619.93750000 677102.06250000 
0.13200    24470852.00000000 15782437.00000000 39292460.00000000 8063.74951172   831018.87500000 662241.87500000 
0.13300    24110044.00000000 15556816.00000000 38721540.00000000 7870.47119141   812704.87500000 647617.68750000 
0.13400    23750906.00000000 15331954.00000000 38152936.00000000 7682.16943359   794685.81250000 633215.68750000 
0.13500    23393554.00000000 15107977.00000000 37586492.00000000 7498.78662109   776960.43750000 619053.00000000 
0.13600    23038302.00000000 14884885.00000000 37023768.00000000 7320.15722656   759553.18750000 605128.25000000 
0.13700    22685462.00000000 14662932.00000000 36463752.00000000 7146.26708984   742451.00000000 591447.12500000 
0.13800    22334834.00000000 14442280.00000000 35907264.00000000 6977.04101562   725664.81250000 578012.62500000 
0.13900    21987016.00000000 14222852.00000000 35354636.00000000 6812.40722656   709197.93750000 564835.56250000 
0.14000    21641894.00000000 14005040.00000000 34806480.00000000 6652.28906250   693050.56250000 551912.37500000 
0.14100    21299844.00000000 13788743.00000000 34262228.00000000 6496.49853516   677234.00000000 539243.25000000 
0.14200    20960852.00000000 13574029.00000000 33722780.00000000 6344.94531250   661731.43750000 526831.87500000 
0.14300    20625200.00000000 13361359.00000000 33188304.00000000 6197.51025391   646552.81250000 514672.59375000 
0.14400    20292878.00000000 13150417.00000000 32658776.00000000 6054.10839844   631702.18750000 502776.65625000 
0.14500    19964254.00000000 12941515.00000000 32134476.00000000 5914.58837891   617168.75000000 491131.81250000 
0.14600    19639162.00000000 12734854.00000000 31615884.00000000 5778.79931641   602951.00000000 479744.53125000 
0.14700    19317840.00000000 12530190.00000000 31103342.00000000 5646.62353516   589057.68750000 468610.84375000 
0.14800    19000444.00000000 12327823.00000000 30596062.00000000 5517.92285156   575457.18750000 457721.34375000 
0.14900    18686992.00000000 12127803.00000000 30095356.00000000 5392.56298828   562175.68750000 447077.65625000 
0.15000    18377438.00000000 11930075.00000000 29600484.00000000 5270.36474609   549194.87500000 436679.81250000 
0.15100    18072172.00000000 11734879.00000000 29112308.00000000 5151.24121094   536515.87500000 426519.87500000 
0.15200    17770968.00000000 11542165.00000000 28630594.00000000 5035.03808594   524125.81250000 416596.21875000 
0.15300    17474192.00000000 11351958.00000000 28155154.00000000 4921.66699219   512020.34375000 406903.75000000 
0.15400    17181344.00000000 11164150.00000000 27686442.00000000 4810.93359375   500192.96875000 397433.06250000 
0.15500    16892750.00000000 10979118.00000000 27224524.00000000 4702.80712891   488641.15625000 388182.18750000 
0.15600    16608879.00000000 10796688.00000000 26768952.00000000 4597.06738281   477348.71875000 379147.21875000 
0.15700    16328917.00000000 10616813.00000000 26320246.00000000 4493.64648438   466322.96875000 370322.59375000 
0.15800    16053351.00000000 10439591.00000000 25878220.00000000 4392.44433594   455543.84375000 361695.93750000 
0.15900    15782054.00000000 10265030.00000000 25443010.00000000 4293.42431641   445009.50000000 353274.18750000 
0.16000    15514838.00000000 10093048.00000000 25014338.00000000 4196.37890625   434710.21875000 345043.09375000 
0.16100    15252015.00000000 9923902.00000000 24592728.00000000 4101.30468750   424648.28125000 336999.25000000 
0.16200    14993467.00000000 9757249.00000000 24177446.00000000 4008.13745117   414805.75000000 329131.87500000 
0.16300    14738864.00000000 9593135.00000000 23768952.00000000 3916.71533203   405177.18750000 321440.28125000 
0.16400    14488509.00000000 9431630.00000000 23366898.00000000 3827.02124023   395759.87500000 313918.43750000 
0.16500    14242295.00000000 9272716.00000000 22971310.00000000 3739.01025391   386542.21875000 306561.06250000 
0.16600    13999964.00000000 9116412.00000000 22581956.00000000 3652.63110352   377518.53125000 299362.28125000 
0.16700    13761554.00000000 8962586.00000000 22199168.00000000 3567.79443359   368682.21875000 292313.00000000 
0.16800    13527152.00000000 8811112.00000000 21822568.00000000 3484.48486328   360028.25000000 285411.18750000 
0.16900    13296579.00000000 8662202.00000000 21452024.00000000 3402.69213867   351558.93750000 278653.68750000 
0.17000    13069746.00000000 8515671.00000000 21087382.00000000 3322.38940430   343248.59375000 272032.15625000 
