# SAXS profile: number of points = 501, q_min = 0, q_max = 0.5, delta_q = 0.001
#    q    intensity 
0.00000    162234208.00000000 101202048.00000000 256271248.00000000 106084.49218750 8297253.00000000 6553155.50000000 
0.00100    162204592.00000000 101181696.00000000 256219712.00000000 106056.02343750 8295305.50000000 6551623.00000000 
0.00200    162109360.00000000 101121544.00000000 256066960.00000000 105970.85937500 8289426.50000000 6547001.50000000 
0.00300    161949712.00000000 101021064.00000000 255811232.00000000 105828.44531250 8279605.50000000 6539288.50000000 
0.00400    161720912.00000000 100881384.00000000 255453296.00000000 105630.37500000 8265917.00000000 6528538.00000000 
0.00500    161426992.00000000 100700952.00000000 254995312.00000000 105375.50781250 8248392.50000000 6514762.50000000 
0.00600    161068960.00000000 100480648.00000000 254432400.00000000 105064.92968750 8226980.00000000 6497949.00000000 
0.00700    160648240.00000000 100222336.00000000 253773568.00000000 104699.25781250 8201761.00000000 6478124.50000000 
0.00800    160160800.00000000 99924136.00000000 253015520.00000000 104279.61718750 8172772.50000000 6455389.50000000 
0.00900    159614368.00000000 99588496.00000000 252158320.00000000 103805.92187500 8140074.50000000 6429689.00000000 
0.01000    159005008.00000000 99214840.00000000 251203328.00000000 103279.24218750 8103688.00000000 6401103.00000000 
0.01100    158337536.00000000 98804144.00000000 250154768.00000000 102700.75000000 8063664.50000000 6369669.00000000 
0.01200    157608608.00000000 98355088.00000000 249010560.00000000 102071.68750000 8020132.50000000 6335463.50000000 
0.01300    156822112.00000000 97869896.00000000 247773472.00000000 101392.32812500 7973111.50000000 6298533.50000000 
0.01400    155973984.00000000 97348824.00000000 246446752.00000000 100665.12500000 7922653.50000000 6258900.50000000 
0.01500    155070384.00000000 96793712.00000000 245029984.00000000 99889.64843750  7868894.50000000 6216663.50000000 
0.01600    154111712.00000000 96203680.00000000 243525920.00000000 99068.48437500  7811841.50000000 6171864.00000000 
0.01700    153100144.00000000 95580912.00000000 241937008.00000000 98203.15625000  7751715.00000000 6124549.00000000 
0.01800    152034064.00000000 94924784.00000000 240264944.00000000 97294.36718750  7688458.00000000 6074876.00000000 
0.01900    150914672.00000000 94237168.00000000 238510528.00000000 96344.02343750  7622234.00000000 6022802.50000000 
0.02000    149748464.00000000 93518616.00000000 236678720.00000000 95354.41406250  7553119.50000000 5968487.00000000 
0.02100    148532240.00000000 92769920.00000000 234770832.00000000 94325.97656250  7481246.50000000 5912039.00000000 
0.02200    147269120.00000000 91992496.00000000 232789088.00000000 93260.04687500  7406748.00000000 5853466.00000000 
0.02300    145959936.00000000 91187280.00000000 230735632.00000000 92160.54687500  7329653.00000000 5792846.50000000 
0.02400    144608352.00000000 90354344.00000000 228613024.00000000 91027.96875000  7250155.00000000 5730361.00000000 
0.02500    143214800.00000000 89495624.00000000 226424320.00000000 89863.72656250  7168339.50000000 5666018.00000000 
0.02600    141780784.00000000 88612152.00000000 224173344.00000000 88670.10937500  7084293.50000000 5599968.50000000 
0.02700    140308736.00000000 87704688.00000000 221860784.00000000 87448.97656250  6998160.50000000 5532237.50000000 
0.02800    138799536.00000000 86775096.00000000 219492432.00000000 86202.68750000  6910125.00000000 5462981.50000000 
0.02900    137257024.00000000 85823624.00000000 217068432.00000000 84932.68750000  6820183.00000000 5392246.00000000 
0.03000    135680176.00000000 84851096.00000000 214592336.00000000 83641.17187500  6728553.50000000 5320194.00000000 
0.03100    134072376.00000000 83859904.00000000 212067696.00000000 82329.43750000  6635320.50000000 5246834.50000000 
0.03200    132436440.00000000 82850792.00000000 209497152.00000000 80999.91406250  6540627.00000000 5172333.00000000 
0.03300    130773464.00000000 81824984.00000000 206886560.00000000 79655.08593750  6444592.00000000 5096792.50000000 
0.03400    129085184.00000000 80782712.00000000 204233520.00000000 78295.85156250  6347365.50000000 5020284.00000000 
0.03500    127374288.00000000 79726440.00000000 201543776.00000000 76924.61718750  6248999.00000000 4942926.50000000 
0.03600    125641872.00000000 78656336.00000000 198820304.00000000 75543.54687500  6149743.00000000 4864748.50000000 
0.03700    123890144.00000000 77574992.00000000 196068832.00000000 74154.16406250  6049594.50000000 4785931.00000000 
0.03800    122121968.00000000 76482312.00000000 193287952.00000000 72758.11718750  5948766.00000000 4706589.00000000 
0.03900    120337760.00000000 75380344.00000000 190483776.00000000 71357.75781250  5847351.00000000 4626740.50000000 
0.04000    118540648.00000000 74269424.00000000 187657312.00000000 69954.35937500  5745430.50000000 4546517.00000000 
0.04100    116731944.00000000 73151040.00000000 184811424.00000000 68550.45312500  5643193.50000000 4465978.00000000 
0.04200    114913216.00000000 72026352.00000000 181951840.00000000 67146.96875000  5540676.00000000 4385232.00000000 
0.04300    113087824.00000000 70896992.00000000 179080000.00000000 65745.11718750  5438055.00000000 4304413.50000000 
0.04400    111255504.00000000 69762696.00000000 176197024.00000000 64347.62890625  5335449.00000000 4223575.00000000 
0.04500    109419840.00000000 68626568.00000000 173308096.00000000 62955.62109375  5232895.50000000 4142783.25000000 
0.04600    107581296.00000000 67488808.00000000 170415648.00000000 61570.77734375  5130577.50000000 4062157.75000000 
0.04700    105743560.00000000 66349380.00000000 167521936.00000000 60194.11718750  5028559.00000000 3981746.00000000 
0.04800    103905424.00000000 65211160.00000000 164628848.00000000 58827.64843750  4926962.00000000 3901661.00000000 
0.04900    102072072.00000000 64074196.00000000 161740768.00000000 57471.98828125  4825869.50000000 3821986.50000000 
0.05000    100241888.00000000 62939628.00000000 158857328.00000000 56128.91015625  4725368.50000000 3742737.75000000 
0.05100    98418008.00000000 61808868.00000000 155985104.00000000 54799.42578125  4625540.00000000 3664034.75000000 
0.05200    96601576.00000000 60682348.00000000 153124288.00000000 53485.12890625  4526506.00000000 3585939.25000000 
0.05300    94795216.00000000 59560532.00000000 150277488.00000000 52186.63281250  4428369.50000000 3508509.25000000 
0.05400    92998464.00000000 58445572.00000000 147446800.00000000 50904.54296875  4331125.50000000 3431806.00000000 
0.05500    91214760.00000000 57337540.00000000 144634736.00000000 49640.50781250  4234906.00000000 3355879.00000000 
0.05600    89443440.00000000 56237620.00000000 141842544.00000000 48395.24218750  4139766.50000000 3280811.75000000 
0.05700    87686856.00000000 55146308.00000000 139073632.00000000 47169.35546875  4045775.75000000 3206632.50000000 
0.05800    85946912.00000000 54064428.00000000 136330016.00000000 45963.87890625  3953000.75000000 3133398.25000000 
0.05900    84223520.00000000 52992884.00000000 133611624.00000000 44779.17578125  3861498.25000000 3061147.50000000 
0.06000    82518200.00000000 51931936.00000000 130922264.00000000 43616.14062500  3771317.75000000 2989951.00000000 
0.06100    80833096.00000000 50883248.00000000 128262616.00000000 42475.00000000  3682508.75000000 2919807.25000000 
0.06200    79167272.00000000 49846540.00000000 125634736.00000000 41356.50390625  3595112.00000000 2850805.00000000 
0.06300    77522600.00000000 48822616.00000000 123038824.00000000 40260.85937500  3509179.50000000 2782927.25000000 
0.06400    75900432.00000000 47812128.00000000 120478880.00000000 39188.28906250  3424781.75000000 2716220.75000000 
0.06500    74301616.00000000 46815516.00000000 117953800.00000000 38139.16406250  3341890.00000000 2650728.00000000 
0.06600    72725976.00000000 45833688.00000000 115465184.00000000 37114.54296875  3260556.75000000 2586438.75000000 
0.06700    71174128.00000000 44866624.00000000 113015776.00000000 36112.98437500  3180830.25000000 2523418.75000000 
0.06800    69648504.00000000 43914856.00000000 110604624.00000000 35136.03125000  3102707.75000000 2461652.75000000 
0.06900    68148056.00000000 42978444.00000000 108234784.00000000 34182.90625000  3026202.00000000 2401182.25000000 
0.07000    66673268.00000000 42058132.00000000 105904656.00000000 33253.57812500  2951338.25000000 2341981.50000000 
0.07100    65225432.00000000 41154344.00000000 103616800.00000000 32348.75195312  2878160.75000000 2284087.75000000 
0.07200    63805208.00000000 40267340.00000000 101371576.00000000 31467.37304688  2806615.75000000 2227499.50000000 
0.07300    62411784.00000000 39397388.00000000 99170120.00000000 30610.00585938  2736725.50000000 2172216.25000000 
0.07400    61046372.00000000 38543992.00000000 97010536.00000000 29776.08984375  2668511.75000000 2118256.75000000 
0.07500    59708796.00000000 37708148.00000000 94896104.00000000 28965.38671875  2601962.25000000 2065581.37500000 
0.07600    58399544.00000000 36889280.00000000 92825112.00000000 28177.79492188  2537085.25000000 2014223.12500000 
0.07700    57118948.00000000 36088572.00000000 90799152.00000000 27412.83984375  2473828.50000000 1964176.62500000 
0.07800    55866676.00000000 35304976.00000000 88818208.00000000 26670.06054688  2412232.50000000 1915407.25000000 
0.07900    54642608.00000000 34539508.00000000 86882272.00000000 25949.53710938  2352242.25000000 1867901.62500000 
0.08000    53447064.00000000 33791216.00000000 84991128.00000000 25250.54101562  2293871.75000000 1821688.00000000 
0.08100    52280148.00000000 33060986.00000000 83144448.00000000 24572.83203125  2237076.50000000 1776721.62500000 
0.08200    51141888.00000000 32348230.00000000 81343344.00000000 23915.82421875  2181874.50000000 1732984.87500000 
0.08300    50031804.00000000 31653196.00000000 79585896.00000000 23278.88867188  2128201.25000000 1690476.50000000 
0.08400    48949708.00000000 30975672.00000000 77873392.00000000 22661.78320312  2076053.62500000 1649167.00000000 
0.08500    47895484.00000000 30315644.00000000 76204688.00000000 22063.96484375  2025395.12500000 1609042.25000000 
0.08600    46869340.00000000 29672634.00000000 74580208.00000000 21485.04101562  1976228.62500000 1570074.50000000 
0.08700    45870668.00000000 29046772.00000000 72998904.00000000 20924.10742188  1928470.00000000 1532240.87500000 
0.08800    44898932.00000000 28437948.00000000 71460336.00000000 20380.81640625  1882127.75000000 1495516.25000000 
0.08900    43953904.00000000 27845764.00000000 69964472.00000000 19854.89453125  1837154.12500000 1459893.75000000 
0.09000    43035436.00000000 27270162.00000000 68509984.00000000 19345.52539062  1793531.87500000 1425328.12500000 
0.09100    42142632.00000000 26711024.00000000 67096820.00000000 18852.21289062  1751222.00000000 1391788.37500000 
0.09200    41275748.00000000 26167656.00000000 65724388.00000000 18374.25195312  1710171.25000000 1359267.25000000 
0.09300    40434448.00000000 25640406.00000000 64391832.00000000 17911.44726562  1670378.50000000 1327714.50000000 
0.09400    39617212.00000000 25128362.00000000 63098500.00000000 17462.86914062  1631785.12500000 1297128.50000000 
0.09500    38824680.00000000 24631838.00000000 61843172.00000000 17028.54882812  1594360.12500000 1267465.62500000 
0.09600    38055644.00000000 24149910.00000000 60625424.00000000 16607.56835938  1558065.75000000 1238705.37500000 
0.09700    37310060.00000000 23682820.00000000 59445176.00000000 16199.19921875  1522876.87500000 1210808.00000000 
0.09800    36587200.00000000 23229978.00000000 58301000.00000000 15803.48730469  1488737.25000000 1183762.37500000 
0.09900    35886208.00000000 22791236.00000000 57191356.00000000 15419.63281250  1455632.87500000 1157516.75000000 
0.10000    35207056.00000000 22365864.00000000 56116452.00000000 15047.06152344  1423522.37500000 1132070.12500000 
0.10100    34548672.00000000 21953820.00000000 55074760.00000000 14685.45507812  1392358.62500000 1107371.75000000 
0.10200    33911112.00000000 21554842.00000000 54065380.00000000 14334.35937500  1362112.37500000 1083400.87500000 
0.10300    33293276.00000000 21168228.00000000 53088364.00000000 13993.28417969  1332749.00000000 1060130.50000000 
0.10400    32694708.00000000 20793808.00000000 52141488.00000000 13661.83105469  1304243.37500000 1037551.43750000 
0.10500    32115006.00000000 20431524.00000000 51224936.00000000 13339.72070312  1276566.00000000 1015600.68750000 
0.10600    31553574.00000000 20080574.00000000 50336648.00000000 13026.25976562  1249650.12500000 994283.25000000 
0.10700    31009570.00000000 19740664.00000000 49476588.00000000 12721.36230469  1223514.25000000 973561.18750000 
0.10800    30482370.00000000 19411376.00000000 48643136.00000000 12424.53515625  1198082.12500000 953410.75000000 
0.10900    29971596.00000000 19092470.00000000 47836220.00000000 12135.45507812  1173335.87500000 933807.68750000 
0.11000    29476730.00000000 18783922.00000000 47054268.00000000 11853.78417969  1149269.25000000 914729.37500000 
0.11100    28997222.00000000 18484662.00000000 46296172.00000000 11579.33398438  1125829.62500000 896152.87500000 
0.11200    28532290.00000000 18194776.00000000 45562144.00000000 11311.67773438  1102992.62500000 878053.81250000 
0.11300    28081298.00000000 17913874.00000000 44850000.00000000 11050.50878906  1080737.00000000 860421.12500000 
0.11400    27643976.00000000 17641574.00000000 44159788.00000000 10795.72851562  1059034.87500000 843221.50000000 
0.11500    27219862.00000000 17377300.00000000 43489816.00000000 10547.10156250  1037857.87500000 826434.68750000 
0.11600    26807670.00000000 17121094.00000000 42839688.00000000 10304.13671875  1017190.37500000 810058.37500000 
0.11700    26407584.00000000 16872286.00000000 42208736.00000000 10066.93554688  997018.56250000 794054.43750000 
0.11800    26018934.00000000 16630583.00000000 41595908.00000000 9835.04101562   977280.12500000 778411.87500000 
0.11900    25641076.00000000 16395830.00000000 40999604.00000000 9608.42285156   957994.75000000 763121.06250000 
0.12000    25273524.00000000 16167583.00000000 40420352.00000000 9386.82812500   939120.43750000 748149.43750000 
0.12100    24916106.00000000 15945593.00000000 39856560.00000000 9170.37597656   920659.25000000 733505.37500000 
0.12200    24567726.00000000 15729496.00000000 39307768.00000000 8958.41406250   902571.37500000 719162.31250000 
0.12300    24228398.00000000 15518965.00000000 38773096.00000000 8751.25195312   884854.62500000 705099.43750000 
0.12400    23897504.00000000 15313833.00000000 38252180.00000000 8548.53906250   867486.00000000 691319.31250000 
0.12500    23574706.00000000 15113746.00000000 37743392.00000000 8350.18847656   850455.25000000 677795.00000000 
0.12600    23259654.00000000 14918386.00000000 37247180.00000000 8156.18408203   833750.06250000 664528.37500000 
0.12700    22951526.00000000 14727550.00000000 36761908.00000000 7966.30224609   817340.18750000 651500.87500000 
0.12800    22650182.00000000 14540910.00000000 36287228.00000000 7780.55615234   801234.87500000 638702.00000000 
0.12900    22355328.00000000 14358248.00000000 35823096.00000000 7598.77587891   785409.87500000 626129.93750000 
0.13000    22066688.00000000 14179404.00000000 35368288.00000000 7420.95947266   769858.12500000 613764.18750000 
0.13100    21783486.00000000 14003927.00000000 34922140.00000000 7246.95605469   754570.81250000 601607.62500000 
0.13200    21505822.00000000 13831810.00000000 34484808.00000000 7076.75732422   739538.62500000 589641.68750000 
0.13300    21232944.00000000 13662820.00000000 34055260.00000000 6910.27343750   724745.75000000 577880.12500000 
0.13400    20964800.00000000 13496617.00000000 33632740.00000000 6747.41992188   710196.81250000 566290.87500000 
0.13500    20701128.00000000 13333123.00000000 33217260.00000000 6588.19287109   695871.75000000 554879.75000000 
0.13600    20441662.00000000 13172101.00000000 32808382.00000000 6432.50537109   681775.06250000 543645.12500000 
0.13700    20185812.00000000 13013471.00000000 32405304.00000000 6280.29248047   667887.00000000 532577.25000000 
0.13800    19933604.00000000 12856915.00000000 32007784.00000000 6131.53906250   654215.06250000 521668.28125000 
0.13900    19684678.00000000 12702282.00000000 31615344.00000000 5986.11474609   640744.12500000 510924.15625000 
0.14000    19439182.00000000 12549669.00000000 31227782.00000000 5844.11083984   627478.18750000 500331.65625000 
0.14100    19196328.00000000 12398617.00000000 30844620.00000000 5705.33789062   614406.50000000 489891.46875000 
0.14200    18956236.00000000 12249244.00000000 30465564.00000000 5569.83007812   601528.62500000 479600.40625000 
0.14300    18718772.00000000 12101240.00000000 30090446.00000000 5437.46093750   588838.62500000 469455.43750000 
0.14400    18483414.00000000 11954472.00000000 29718618.00000000 5308.24414062   576332.18750000 459451.28125000 
0.14500    18250340.00000000 11808977.00000000 29350010.00000000 5182.05859375   564007.56250000 449589.18750000 
0.14600    18019284.00000000 11664575.00000000 28984748.00000000 5059.01904297   551864.50000000 439868.68750000 
0.14700    17790096.00000000 11521187.00000000 28621936.00000000 4938.89208984   539898.06250000 430286.12500000 
0.14800    17562556.00000000 11378822.00000000 28261824.00000000 4821.64599609   528101.43750000 420835.12500000 
0.14900    17336588.00000000 11237196.00000000 27903950.00000000 4707.29687500   516482.18750000 411518.56250000 
0.15000    17112114.00000000 11096395.00000000 27548106.00000000 4595.73486328   505030.31250000 402336.53125000 
0.15100    16888922.00000000 10956270.00000000 27194488.00000000 4486.94921875   493746.75000000 393282.43750000 
0.15200    16667296.00000000 10816883.00000000 26842848.00000000 4380.87109375   482634.96875000 384365.31250000 
0.15300    16446747.00000000 10678134.00000000 26492668.00000000 4277.41650391   471685.68750000 375574.59375000 
0.15400    16227379.00000000 10539799.00000000 26144152.00000000 4176.48242188   460898.71875000 366908.56250000 
0.15500    16009094.00000000 10402077.00000000 25797366.00000000 4078.08959961   450275.03125000 358377.12500000 
0.15600    15791959.00000000 10264813.00000000 25451684.00000000 3982.10180664   439813.84375000 349969.37500000 
0.15700    15575622.00000000 10128112.00000000 25107692.00000000 3888.60400391   429518.37500000 341688.71875000 
0.15800    15360271.00000000 9991689.00000000 24764776.00000000 3797.34423828   419374.50000000 333531.84375000 
0.15900    15145801.00000000 9855829.00000000 24423340.00000000 3708.35131836   409393.50000000 325502.09375000 
0.16000    14932304.00000000 9720313.00000000 24082974.00000000 3621.56250000   399569.25000000 317598.90625000 
0.16100    14719685.00000000 9585214.00000000 23743956.00000000 3536.91674805   389905.09375000 309819.71875000 
0.16200    14507913.00000000 9450515.00000000 23406142.00000000 3454.36254883   380392.40625000 302164.12500000 
0.16300    14297001.00000000 9316276.00000000 23069454.00000000 3373.77612305   371037.71875000 294635.53125000 
0.16400    14087098.00000000 9182362.00000000 22734074.00000000 3295.17626953   361838.65625000 287225.40625000 
0.16500    13877991.00000000 9048908.00000000 22399834.00000000 3218.47387695   352792.37500000 279941.43750000 
0.16600    13669676.00000000 8915851.00000000 22066866.00000000 3143.56884766   343898.56250000 272777.62500000 
0.16700    13462367.00000000 8783316.00000000 21735168.00000000 3070.47045898   335156.59375000 265738.15625000 
0.16800    13255955.00000000 8651145.00000000 21404872.00000000 2999.06762695   326563.18750000 258819.89062500 
0.16900    13050524.00000000 8519577.00000000 21075968.00000000 2929.37109375   318127.56250000 252024.25000000 
0.17000    12846103.00000000 8388474.00000000 20748520.00000000 2861.26635742   309837.31250000 245348.04687500 
