# SAXS profile: number of points = 501, q_min = 0, q_max = 0.5, delta_q = 0.001
#    q    intensity 
0.00000    162236528.00000000 101201968.00000000 256271424.00000000 101836.01562500 8129395.50000000 6420585.50000000 
0.00100    162194784.00000000 101174920.00000000 256203520.00000000 101803.96093750 8127034.00000000 6418720.00000000 
0.00200    162067968.00000000 101094640.00000000 255999184.00000000 101708.34375000 8119970.50000000 6413151.50000000 
0.00300    161853120.00000000 100961080.00000000 255659280.00000000 101549.55468750 8108163.50000000 6403874.50000000 
0.00400    161552208.00000000 100774696.00000000 255186304.00000000 101328.17187500 8091716.00000000 6390948.00000000 
0.00500    161164960.00000000 100535440.00000000 254578384.00000000 101043.80468750 8070641.50000000 6374306.50000000 
0.00600    160691552.00000000 100242064.00000000 253833536.00000000 100697.47656250 8044952.00000000 6354096.00000000 
0.00700    160135184.00000000 99898688.00000000 252961568.00000000 100290.29687500 8014680.50000000 6330298.50000000 
0.00800    159495440.00000000 99504144.00000000 251957648.00000000 99821.95312500  7979967.00000000 6302945.00000000 
0.00900    158774528.00000000 99059808.00000000 250825280.00000000 99295.54687500  7940765.50000000 6272145.00000000 
0.01000    157976624.00000000 98565616.00000000 249568384.00000000 98709.53906250  7897275.50000000 6237880.00000000 
0.01100    157100320.00000000 98021416.00000000 248186112.00000000 98067.31250000  7849484.00000000 6200294.50000000 
0.01200    156144640.00000000 97430208.00000000 246682960.00000000 97369.39062500  7797558.00000000 6159377.00000000 
0.01300    155112880.00000000 96792424.00000000 245061504.00000000 96616.87500000  7741599.00000000 6115314.50000000 
0.01400    154009040.00000000 96109488.00000000 243324080.00000000 95812.06250000  7681607.00000000 6068095.00000000 
0.01500    152832896.00000000 95381640.00000000 241473840.00000000 94955.46875000  7617814.00000000 6017886.50000000 
0.01600    151589520.00000000 94611120.00000000 239514912.00000000 94049.81250000  7550271.50000000 5964705.00000000 
0.01700    150275440.00000000 93798688.00000000 237450112.00000000 93096.38281250  7479148.50000000 5908706.00000000 
0.01800    148898832.00000000 92946112.00000000 235283536.00000000 92097.42187500  7404603.50000000 5850016.00000000 
0.01900    147458688.00000000 92055224.00000000 233018272.00000000 91054.97656250  7326707.50000000 5788655.00000000 
0.02000    145959424.00000000 91127192.00000000 230658080.00000000 89971.04687500  7245627.50000000 5724832.50000000 
0.02100    144402704.00000000 90162824.00000000 228208624.00000000 88847.51562500  7161525.00000000 5658621.50000000 
0.02200    142791936.00000000 89165320.00000000 225673776.00000000 87686.53125000  7074582.00000000 5590159.50000000 
0.02300    141128656.00000000 88135920.00000000 223056112.00000000 86490.47656250  6984899.00000000 5519531.00000000 
0.02400    139417184.00000000 87075664.00000000 220360272.00000000 85261.56250000  6892675.00000000 5446912.50000000 
0.02500    137659024.00000000 85986744.00000000 217594128.00000000 84002.64062500  6798096.50000000 5372404.00000000 
0.02600    135857904.00000000 84870304.00000000 214758288.00000000 82715.31250000  6701239.50000000 5296130.00000000 
0.02700    134016976.00000000 83729520.00000000 211859200.00000000 81402.20312500  6602394.50000000 5218263.50000000 
0.02800    132138952.00000000 82564992.00000000 208900576.00000000 80065.23437500  6501678.50000000 5138923.50000000 
0.02900    130226024.00000000 81380216.00000000 205891088.00000000 78707.60156250  6399249.00000000 5058198.00000000 
0.03000    128282720.00000000 80174984.00000000 202831088.00000000 77331.52343750  6295219.00000000 4976253.00000000 
0.03100    126311568.00000000 78953424.00000000 199726080.00000000 75939.40625000  6189891.50000000 4893257.50000000 
0.03200    124315008.00000000 77715592.00000000 196581984.00000000 74532.49218750  6083359.50000000 4809324.50000000 
0.03300    122297328.00000000 76463432.00000000 193404528.00000000 73114.95312500  5975828.00000000 4724617.00000000 
0.03400    120260448.00000000 75200776.00000000 190195568.00000000 71688.11718750  5867417.50000000 4639160.00000000 
0.03500    118207552.00000000 73926856.00000000 186961040.00000000 70254.16406250  5758381.50000000 4553223.00000000 
0.03600    116142752.00000000 72645920.00000000 183708096.00000000 68815.31250000  5648813.50000000 4466863.50000000 
0.03700    114068000.00000000 71359392.00000000 180440176.00000000 67374.46093750  5538891.00000000 4380222.50000000 
0.03800    111986432.00000000 70067880.00000000 177160016.00000000 65933.67187500  5428789.50000000 4293458.50000000 
0.03900    109901152.00000000 68772824.00000000 173873536.00000000 64494.15234375  5318670.50000000 4206654.50000000 
0.04000    107815752.00000000 67477544.00000000 170585680.00000000 63059.00000000  5208649.00000000 4119873.50000000 
0.04100    105731056.00000000 66182804.00000000 167301792.00000000 61629.69140625  5098911.00000000 4033361.75000000 
0.04200    103651248.00000000 64891212.00000000 164022976.00000000 60208.27734375  4989631.00000000 3947163.75000000 
0.04300    101579008.00000000 63603400.00000000 160755616.00000000 58796.41015625  4880882.00000000 3861402.75000000 
0.04400    99516224.00000000 62321760.00000000 157503808.00000000 57396.15234375  4772854.00000000 3776206.25000000 
0.04500    97466136.00000000 61047644.00000000 154271952.00000000 56009.29687500  4665654.50000000 3691653.50000000 
0.04600    95431000.00000000 59782448.00000000 151062576.00000000 54637.16796875  4559414.00000000 3607851.25000000 
0.04700    93412872.00000000 58527256.00000000 147877712.00000000 53281.65234375  4454284.00000000 3524892.75000000 
0.04800    91413064.00000000 57284200.00000000 144725024.00000000 51943.80078125  4350339.50000000 3442871.50000000 
0.04900    89435752.00000000 56054280.00000000 141605136.00000000 50625.44921875  4247682.00000000 3361864.75000000 
0.05000    87482056.00000000 54838204.00000000 138521744.00000000 49327.23046875  4146438.00000000 3281937.25000000 
0.05100    85553104.00000000 53637884.00000000 135479440.00000000 48050.99218750  4046704.00000000 3203244.50000000 
0.05200    83651928.00000000 52454480.00000000 132480136.00000000 46797.30859375  3948554.50000000 3125777.00000000 
0.05300    81778728.00000000 51288600.00000000 129525592.00000000 45567.44140625  3852099.75000000 3049613.00000000 
0.05400    79937176.00000000 50141812.00000000 126618768.00000000 44362.11718750  3757362.25000000 2974828.00000000 
0.05500    78127008.00000000 49014256.00000000 123761768.00000000 43182.53125000  3664483.25000000 2901479.25000000 
0.05600    76350880.00000000 47907812.00000000 120957104.00000000 42028.83203125  3573486.75000000 2829604.75000000 
0.05700    74609480.00000000 46822468.00000000 118207464.00000000 40902.09765625  3484404.75000000 2759271.75000000 
0.05800    72903936.00000000 45759440.00000000 115513688.00000000 39802.64843750  3397343.75000000 2690488.00000000 
0.05900    71234440.00000000 44719020.00000000 112878384.00000000 38730.73046875  3312330.75000000 2623330.25000000 
0.06000    69604576.00000000 43702088.00000000 110302384.00000000 37687.14453125  3229365.00000000 2557779.25000000 
0.06100    68011512.00000000 42709196.00000000 107788264.00000000 36671.69140625  3148518.75000000 2493915.00000000 
0.06200    66458364.00000000 41740084.00000000 105335104.00000000 35684.78515625  3069804.75000000 2431701.00000000 
0.06300    64945656.00000000 40796284.00000000 102943928.00000000 34726.71484375  2993218.50000000 2371193.50000000 
0.06400    63472916.00000000 39877028.00000000 100617240.00000000 33796.89453125  2918798.25000000 2312347.00000000 
0.06500    62040732.00000000 38983164.00000000 98354024.00000000 32895.77734375  2846543.75000000 2255246.75000000 
0.06600    60649708.00000000 38114956.00000000 96156632.00000000 32022.94531250  2776458.50000000 2199837.00000000 
0.06700    59299764.00000000 37272028.00000000 94022408.00000000 31178.41601562  2708521.75000000 2146127.00000000 
0.06800    57991184.00000000 36454652.00000000 91954912.00000000 30361.73046875  2642755.00000000 2094116.12500000 
0.06900    56723724.00000000 35663264.00000000 89951160.00000000 29572.92578125  2579107.50000000 2043802.87500000 
0.07000    55497292.00000000 34896788.00000000 88012352.00000000 28810.83398438  2517573.75000000 1995121.75000000 
0.07100    54311408.00000000 34156200.00000000 86137760.00000000 28075.73242188  2458116.25000000 1948122.37500000 
0.07200    53166232.00000000 33440566.00000000 84327048.00000000 27366.68164062  2400742.50000000 1902717.25000000 
0.07300    52061088.00000000 32749772.00000000 82580264.00000000 26683.13085938  2345377.25000000 1858928.50000000 
0.07400    50995444.00000000 32083976.00000000 80894760.00000000 26024.81640625  2292007.00000000 1816708.50000000 
0.07500    49968892.00000000 31442368.00000000 79271728.00000000 25390.85156250  2240572.25000000 1776025.12500000 
0.07600    48980648.00000000 30824662.00000000 77709312.00000000 24780.53320312  2191053.00000000 1736851.75000000 
0.07700    48029944.00000000 30230468.00000000 76206208.00000000 24193.16601562  2143402.00000000 1699139.75000000 
0.07800    47116208.00000000 29659604.00000000 74761288.00000000 23628.24218750  2097518.75000000 1662838.75000000 
0.07900    46238280.00000000 29110974.00000000 73373896.00000000 23084.57031250  2053417.75000000 1627941.62500000 
0.08000    45395700.00000000 28584776.00000000 72041520.00000000 22561.64843750  2010981.75000000 1594375.37500000 
0.08100    44587472.00000000 28080014.00000000 70763968.00000000 22058.89257812  1970204.00000000 1562121.50000000 
0.08200    43812260.00000000 27595814.00000000 69538504.00000000 21575.07421875  1931019.50000000 1531107.62500000 
0.08300    43069392.00000000 27131978.00000000 68364008.00000000 21109.53125000  1893332.50000000 1501295.25000000 
0.08400    42357724.00000000 26687844.00000000 67239872.00000000 20661.28515625  1857118.12500000 1472654.37500000 
0.08500    41676380.00000000 26262590.00000000 66163572.00000000 20229.83203125  1822304.62500000 1445109.87500000 
0.08600    41023344.00000000 25855646.00000000 65132552.00000000 19814.08203125  1788816.00000000 1418619.62500000 
0.08700    40398728.00000000 25466340.00000000 64146092.00000000 19413.44726562  1756621.00000000 1393154.50000000 
0.08800    39800876.00000000 25093816.00000000 63201696.00000000 19027.11328125  1725608.50000000 1368634.50000000 
0.08900    39228296.00000000 24737378.00000000 62298124.00000000 18654.03515625  1695755.25000000 1345031.12500000 
0.09000    38679652.00000000 24396262.00000000 61433420.00000000 18293.48828125  1666998.00000000 1322284.62500000 
0.09100    38154008.00000000 24070030.00000000 60605376.00000000 17944.79882812  1639250.75000000 1300360.75000000 
0.09200    37651092.00000000 23757644.00000000 59811872.00000000 17607.24804688  1612475.00000000 1279197.25000000 
0.09300    37168780.00000000 23458450.00000000 59052228.00000000 17280.00781250  1586591.75000000 1258743.62500000 
0.09400    36705684.00000000 23171552.00000000 58322952.00000000 16962.52734375  1561554.75000000 1238959.75000000 
0.09500    36261136.00000000 22896496.00000000 57623624.00000000 16653.83593750  1537306.12500000 1219806.50000000 
0.09600    35834144.00000000 22632436.00000000 56951544.00000000 16353.69531250  1513790.50000000 1201221.00000000 
0.09700    35423076.00000000 22378798.00000000 56305668.00000000 16061.07031250  1490934.87500000 1183191.00000000 
0.09800    35026700.00000000 22134664.00000000 55683980.00000000 15775.75195312  1468718.00000000 1165645.50000000 
0.09900    34645036.00000000 21899392.00000000 55084312.00000000 15496.88476562  1447058.87500000 1148553.12500000 
0.10000    34275788.00000000 21672360.00000000 54504644.00000000 15224.00488281  1425921.75000000 1131871.75000000 
0.10100    33918492.00000000 21452964.00000000 53944612.00000000 14956.76269531  1405280.37500000 1115577.62500000 
0.10200    33571588.00000000 21240348.00000000 53401748.00000000 14694.36132812  1385044.00000000 1099621.62500000 
0.10300    33234778.00000000 21034230.00000000 52874756.00000000 14436.55371094  1365211.87500000 1083974.00000000 
0.10400    32906668.00000000 20833830.00000000 52361496.00000000 14182.98437500  1345709.00000000 1068596.87500000 
0.10500    32586792.00000000 20638598.00000000 51861224.00000000 13933.23535156  1326538.25000000 1053470.37500000 
0.10600    32273914.00000000 20447850.00000000 51372296.00000000 13686.98046875  1307633.50000000 1038555.18750000 
0.10700    31967060.00000000 20261154.00000000 50893572.00000000 13443.90234375  1288966.12500000 1023847.18750000 
0.10800    31665750.00000000 20078156.00000000 50423652.00000000 13203.60058594  1270512.75000000 1009292.68750000 
0.10900    31369100.00000000 19897848.00000000 49960968.00000000 12965.89550781  1252234.87500000 994885.62500000 
0.11000    31076394.00000000 19720426.00000000 49504876.00000000 12730.72949219  1234127.12500000 980602.93750000 
0.11100    30787006.00000000 19545010.00000000 49053984.00000000 12497.62402344  1216147.75000000 966420.43750000 
0.11200    30500244.00000000 19371494.00000000 48607200.00000000 12266.56738281  1198264.12500000 952327.43750000 
0.11300    30215490.00000000 19199096.00000000 48164412.00000000 12037.42968750  1180492.87500000 938307.68750000 
0.11400    29932308.00000000 19027812.00000000 47723532.00000000 11810.12500000  1162795.62500000 924341.37500000 
0.11500    29650072.00000000 18857170.00000000 47284188.00000000 11584.48046875  1145148.75000000 910425.43750000 
0.11600    29368678.00000000 18687086.00000000 46845936.00000000 11360.43945312  1127569.75000000 896550.00000000 
0.11700    29087020.00000000 18516808.00000000 46408060.00000000 11138.00585938  1110018.87500000 882700.12500000 
0.11800    28805184.00000000 18346380.00000000 45969620.00000000 10917.07519531  1092488.25000000 868863.06250000 
0.11900    28522898.00000000 18175640.00000000 45530276.00000000 10697.67773438  1074993.62500000 855049.18750000 
0.12000    28239384.00000000 18004286.00000000 45088920.00000000 10479.83496094  1057516.87500000 841242.62500000 
0.12100    27955196.00000000 17832054.00000000 44646592.00000000 10263.64062500  1040064.12500000 827447.06250000 
0.12200    27669172.00000000 17658918.00000000 44201044.00000000 10048.99511719  1022614.93750000 813657.75000000 
0.12300    27381912.00000000 17484776.00000000 43753416.00000000 9836.04980469   1005188.37500000 799875.87500000 
0.12400    27092696.00000000 17309434.00000000 43302696.00000000 9624.71093750   987778.68750000 786105.87500000 
0.12500    26801616.00000000 17132802.00000000 42849048.00000000 9415.25781250   970382.06250000 772345.93750000 
0.12600    26508784.00000000 16954920.00000000 42392204.00000000 9207.75390625   953023.12500000 758595.25000000 
0.12700    26213964.00000000 16775437.00000000 41931800.00000000 9002.15527344   935681.25000000 744867.31250000 
0.12800    25916888.00000000 16594803.00000000 41467980.00000000 8798.58593750   918381.87500000 731162.87500000 
0.12900    25617966.00000000 16412481.00000000 41000880.00000000 8597.26855469   901126.50000000 717481.87500000 
0.13000    25317120.00000000 16228821.00000000 40530492.00000000 8398.10742188   883914.06250000 703842.31250000 
0.13100    25014258.00000000 16043733.00000000 40056260.00000000 8201.29199219   866769.56250000 690239.31250000 
0.13200    24709462.00000000 15857184.00000000 39579404.00000000 8006.89355469   849692.93750000 676686.25000000 
0.13300    24402986.00000000 15669471.00000000 39099188.00000000 7815.12695312   832693.81250000 663189.75000000 
0.13400    24094870.00000000 15480284.00000000 38616008.00000000 7626.05810547   815777.12500000 649756.68750000 
0.13500    23785098.00000000 15290021.00000000 38130296.00000000 7439.70996094   798969.75000000 636393.93750000 
0.13600    23474044.00000000 15098627.00000000 37641896.00000000 7256.16210938   782271.87500000 623118.18750000 
0.13700    23161958.00000000 14906310.00000000 37151256.00000000 7075.59960938   765687.31250000 609928.68750000 
0.13800    22848540.00000000 14712883.00000000 36658960.00000000 6898.01416016   749230.75000000 596834.56250000 
0.13900    22534498.00000000 14518729.00000000 36164844.00000000 6723.54541016   732923.75000000 583851.93750000 
0.14000    22219586.00000000 14323974.00000000 35669244.00000000 6552.22998047   716763.93750000 570986.50000000 
0.14100    21904266.00000000 14128593.00000000 35172436.00000000 6384.20800781   700772.18750000 558242.18750000 
0.14200    21588886.00000000 13932728.00000000 34675280.00000000 6219.40039062   684956.68750000 545627.56250000 
0.14300    21273414.00000000 13736610.00000000 34177340.00000000 6058.01220703   669313.43750000 533157.12500000 
0.14400    20958136.00000000 13540266.00000000 33679696.00000000 5899.94580078   653866.68750000 520831.56250000 
0.14500    20643212.00000000 13343981.00000000 33182242.00000000 5745.30664062   638621.31250000 508661.59375000 
0.14600    20328950.00000000 13147829.00000000 32685346.00000000 5594.19580078   623590.81250000 496656.75000000 
0.14700    20015654.00000000 12951886.00000000 32189530.00000000 5446.51708984   608775.68750000 484822.37500000 
0.14800    19703390.00000000 12756224.00000000 31695190.00000000 5302.38037109   594181.37500000 473159.59375000 
0.14900    19392354.00000000 12561147.00000000 31202326.00000000 5161.66943359   579827.25000000 461683.96875000 
0.15000    19082780.00000000 12366871.00000000 30711614.00000000 5024.47216797   565712.00000000 450387.37500000 
0.15100    18775108.00000000 12173201.00000000 30223138.00000000 4890.79052734   551838.87500000 439289.34375000 
0.15200    18469362.00000000 11980555.00000000 29737652.00000000 4760.61816406   538223.87500000 428390.15625000 
0.15300    18165624.00000000 11788953.00000000 29255208.00000000 4633.82226562   524860.81250000 417686.31250000 
0.15400    17864350.00000000 11598526.00000000 28775942.00000000 4510.45751953   511754.40625000 407187.09375000 
0.15500    17565396.00000000 11409571.00000000 28300406.00000000 4390.46875000   498911.78125000 396897.96875000 
0.15600    17269238.00000000 11221794.00000000 27828628.00000000 4273.78808594   486329.50000000 386812.96875000 
0.15700    16975876.00000000 11035722.00000000 27361088.00000000 4160.47558594   474021.87500000 376945.25000000 
0.15800    16685592.00000000 10851219.00000000 26897994.00000000 4050.32055664   461982.34375000 367290.84375000 
0.15900    16398379.00000000 10668469.00000000 26439690.00000000 3943.35791016   450210.43750000 357845.53125000 
0.16000    16114439.00000000 10487607.00000000 25986358.00000000 3839.54614258   438708.84375000 348618.18750000 
0.16100    15833956.00000000 10308695.00000000 25538208.00000000 3738.79052734   427478.34375000 339605.15625000 
0.16200    15556982.00000000 10131685.00000000 25095326.00000000 3641.01684570   416516.93750000 330804.50000000 
0.16300    15283682.00000000 9956744.00000000 24658102.00000000 3546.12500000   405820.75000000 322214.93750000 
0.16400    15014144.00000000 9784168.00000000 24226406.00000000 3454.12011719   395392.87500000 313840.46875000 
0.16500    14748334.00000000 9613695.00000000 23800534.00000000 3364.85400391   385228.09375000 305676.56250000 
0.16600    14486478.00000000 9445534.00000000 23380916.00000000 3278.30981445   375323.40625000 297721.87500000 
0.16700    14228498.00000000 9279669.00000000 22967030.00000000 3194.33666992   365671.62500000 289969.68750000 
0.16800    13974601.00000000 9116217.00000000 22559568.00000000 3112.87915039   356276.06250000 282421.00000000 
0.16900    13724728.00000000 8955272.00000000 22158408.00000000 3033.95434570   347129.96875000 275076.25000000 
0.17000    13479008.00000000 8796559.00000000 21763608.00000000 2957.34716797   338227.75000000 267923.90625000 
