# SAXS profile: number of points = 501, q_min = 0, q_max = 0.5, delta_q = 0.001
#    q    intensity 
0.00000    162235264.00000000 101201984.00000000 256271280.00000000 107791.57031250 8363753.50000000 6605643.50000000 
0.00100    162208192.00000000 101183688.00000000 256224928.00000000 107763.82031250 8361885.00000000 6604197.50000000 
0.00200    162123056.00000000 101129944.00000000 256087920.00000000 107680.44531250 8356349.50000000 6599855.00000000 
0.00300    161979552.00000000 101040288.00000000 255859424.00000000 107540.95312500 8347106.50000000 6592606.00000000 
0.00400    161774816.00000000 100915064.00000000 255539856.00000000 107346.21875000 8334173.50000000 6582451.50000000 
0.00500    161510880.00000000 100754136.00000000 255128080.00000000 107096.27343750 8317569.50000000 6569427.00000000 
0.00600    161190096.00000000 100557176.00000000 254626000.00000000 106791.99218750 8297337.50000000 6553577.00000000 
0.00700    160811232.00000000 100325696.00000000 254034944.00000000 106433.11718750 8273492.50000000 6534858.50000000 
0.00800    160376304.00000000 100059720.00000000 253355696.00000000 106021.33593750 8246103.00000000 6513326.50000000 
0.00900    159882752.00000000 99759312.00000000 252587232.00000000 105556.62500000 8215150.50000000 6489081.00000000 
0.01000    159336704.00000000 99424296.00000000 251730288.00000000 105039.45312500 8180723.50000000 6462052.00000000 
0.01100    158735776.00000000 99056376.00000000 250789584.00000000 104471.33593750 8142893.00000000 6432334.00000000 
0.01200    158082464.00000000 98654640.00000000 249763840.00000000 103852.65625000 8101656.00000000 6400012.50000000 
0.01300    157374640.00000000 98220488.00000000 248652544.00000000 103185.58593750 8057115.50000000 6365041.00000000 
0.01400    156611600.00000000 97753112.00000000 247460800.00000000 102469.76562500 8009320.00000000 6327496.50000000 
0.01500    155797824.00000000 97254408.00000000 246187760.00000000 101707.10156250 7958369.50000000 6287433.50000000 
0.01600    154935152.00000000 96724304.00000000 244835552.00000000 100899.40625000 7904237.50000000 6245003.50000000 
0.01700    154022496.00000000 96164376.00000000 243405280.00000000 100046.87500000 7847105.00000000 6200171.00000000 
0.01800    153061568.00000000 95575456.00000000 241898352.00000000 99150.82812500  7787024.50000000 6152992.00000000 
0.01900    152052544.00000000 94956376.00000000 240318288.00000000 98214.07031250  7724092.50000000 6103540.00000000 
0.02000    150997488.00000000 94309712.00000000 238666288.00000000 97236.86718750  7658363.00000000 6051937.50000000 
0.02100    149899952.00000000 93635248.00000000 236945312.00000000 96221.50781250  7589974.00000000 5998255.50000000 
0.02200    148756544.00000000 92933800.00000000 235154288.00000000 95168.91406250  7518980.50000000 5942487.50000000 
0.02300    147570864.00000000 92206384.00000000 233297408.00000000 94081.46093750  7445513.50000000 5884786.00000000 
0.02400    146346864.00000000 91453936.00000000 231376512.00000000 92960.23437500  7369657.00000000 5825174.00000000 
0.02500    145082128.00000000 90677160.00000000 229394832.00000000 91807.24218750  7291497.00000000 5763790.50000000 
0.02600    143780560.00000000 89877232.00000000 227353360.00000000 90624.50781250  7211160.50000000 5700685.00000000 
0.02700    142441616.00000000 89054768.00000000 225255104.00000000 89413.00000000  7128794.00000000 5635940.50000000 
0.02800    141067632.00000000 88210432.00000000 223103168.00000000 88175.67968750  7044380.00000000 5569641.00000000 
0.02900    139662208.00000000 87346368.00000000 220896752.00000000 86913.79687500  6958191.50000000 5501891.00000000 
0.03000    138225040.00000000 86461912.00000000 218641984.00000000 85628.60937500  6870250.00000000 5432794.00000000 
0.03100    136757808.00000000 85558896.00000000 216339456.00000000 84322.71093750  6780681.00000000 5362367.50000000 
0.03200    135260592.00000000 84637880.00000000 213991968.00000000 82997.85156250  6689576.50000000 5290745.50000000 
0.03300    133738160.00000000 83700384.00000000 211603216.00000000 81655.26562500  6597097.50000000 5218041.50000000 
0.03400    132190432.00000000 82748232.00000000 209173632.00000000 80297.90625000  6503316.50000000 5144295.00000000 
0.03500    130619384.00000000 81780144.00000000 206707088.00000000 78927.07031250  6408350.50000000 5069625.50000000 
0.03600    129026808.00000000 80798296.00000000 204206528.00000000 77544.46875000  6312405.00000000 4994150.00000000 
0.03700    127413496.00000000 79804032.00000000 201674080.00000000 76151.93750000  6215428.50000000 4917896.00000000 
0.03800    125782920.00000000 78798976.00000000 199110880.00000000 74751.97656250  6117674.00000000 4840971.50000000 
0.03900    124134088.00000000 77782464.00000000 196523664.00000000 73345.25781250  6019228.00000000 4763487.00000000 
0.04000    122471032.00000000 76756680.00000000 193910160.00000000 71934.45312500  5920122.00000000 4685529.50000000 
0.04100    120793792.00000000 75721856.00000000 191275904.00000000 70520.89843750  5820593.50000000 4607171.50000000 
0.04200    119105088.00000000 74679920.00000000 188621712.00000000 69105.82031250  5720636.00000000 4528511.50000000 
0.04300    117406048.00000000 73629864.00000000 185951056.00000000 67691.73437500  5620402.50000000 4449641.00000000 
0.04400    115699152.00000000 72574592.00000000 183265184.00000000 66280.16406250  5520015.00000000 4370546.50000000 
0.04500    113983744.00000000 71514696.00000000 180569424.00000000 64872.04687500  5419550.50000000 4291425.00000000 
0.04600    112263320.00000000 70450656.00000000 177863072.00000000 63469.19921875  5319103.00000000 4212304.50000000 
0.04700    110538528.00000000 69383824.00000000 175150048.00000000 62073.20312500  5218818.50000000 4133272.25000000 
0.04800    108812000.00000000 68315288.00000000 172433184.00000000 60685.37109375  5118774.50000000 4054430.50000000 
0.04900    107083736.00000000 67245488.00000000 169715648.00000000 59307.46875000  5018976.50000000 3975813.00000000 
0.05000    105356152.00000000 66175100.00000000 166994096.00000000 57940.51562500  4919654.00000000 3897504.25000000 
0.05100    103630704.00000000 65105952.00000000 164277312.00000000 56585.32421875  4820814.50000000 3819580.75000000 
0.05200    101907616.00000000 64037712.00000000 161565008.00000000 55243.91015625  4722529.50000000 3742085.50000000 
0.05300    100189528.00000000 62971784.00000000 158857904.00000000 53916.89843750  4624941.00000000 3665121.50000000 
0.05400    98476480.00000000 61909508.00000000 156159520.00000000 52605.50390625  4528072.50000000 3588708.75000000 
0.05500    96771536.00000000 60850720.00000000 153471536.00000000 51310.61718750  4432055.00000000 3512947.25000000 
0.05600    95073528.00000000 59796592.00000000 150796256.00000000 50033.52734375  4336905.00000000 3437840.50000000 
0.05700    93385544.00000000 58748076.00000000 148135328.00000000 48774.94921875  4242684.00000000 3363488.00000000 
0.05800    91707560.00000000 57705024.00000000 145490144.00000000 47535.45312500  4149500.00000000 3289923.25000000 
0.05900    90041904.00000000 56669180.00000000 142862128.00000000 46316.46093750  4057395.75000000 3217189.50000000 
0.06000    88388488.00000000 55640416.00000000 140253840.00000000 45117.65234375  3966420.75000000 3145326.00000000 
0.06100    86749504.00000000 54619604.00000000 137666336.00000000 43940.80078125  3876634.00000000 3074407.00000000 
0.06200    85124720.00000000 53607612.00000000 135101696.00000000 42785.55468750  3788083.50000000 3004425.50000000 
0.06300    83514928.00000000 52604744.00000000 132561344.00000000 41653.15625000  3700826.75000000 2935452.25000000 
0.06400    81921816.00000000 51611400.00000000 130045328.00000000 40543.29687500  3614879.25000000 2867530.00000000 
0.06500    80345288.00000000 50628656.00000000 127556032.00000000 39456.78515625  3530302.25000000 2800669.50000000 
0.06600    78787280.00000000 49656300.00000000 125094168.00000000 38394.30078125  3447107.75000000 2734870.00000000 
0.06700    77247576.00000000 48695068.00000000 122661720.00000000 37355.48828125  3365335.00000000 2670199.75000000 
0.06800    75727488.00000000 47746016.00000000 120259080.00000000 36340.40234375  3285056.50000000 2606649.50000000 
0.06900    74227560.00000000 46808484.00000000 117886384.00000000 35349.93359375  3206228.00000000 2544286.50000000 
0.07000    72747680.00000000 45883272.00000000 115545912.00000000 34383.78906250  3128929.00000000 2483079.00000000 
0.07100    71288176.00000000 44970616.00000000 113238600.00000000 33441.91796875  3053113.75000000 2423055.50000000 
0.07200    69851208.00000000 44070960.00000000 110963920.00000000 32524.28515625  2978836.00000000 2364234.50000000 
0.07300    68435960.00000000 43184812.00000000 108724296.00000000 31631.16601562  2906109.00000000 2306623.50000000 
0.07400    67042588.00000000 42312448.00000000 106518992.00000000 30762.04296875  2834926.00000000 2250232.50000000 
0.07500    65671896.00000000 41453528.00000000 104348704.00000000 29916.98632812  2765309.50000000 2195049.75000000 
0.07600    64323552.00000000 40608512.00000000 102214328.00000000 29095.76757812  2697224.00000000 2141104.50000000 
0.07700    62999220.00000000 39777772.00000000 100116608.00000000 28298.14453125  2630717.25000000 2088347.37500000 
0.07800    61698084.00000000 38961572.00000000 98054672.00000000 27523.77539062  2565744.75000000 2036841.00000000 
0.07900    60420352.00000000 38159476.00000000 96030000.00000000 26772.17578125  2502321.50000000 1986531.25000000 
0.08000    59166416.00000000 37371676.00000000 94042784.00000000 26043.50781250  2440436.50000000 1937425.75000000 
0.08100    57936448.00000000 36599000.00000000 92092600.00000000 25336.92578125  2380075.25000000 1889532.37500000 
0.08200    56730036.00000000 35840680.00000000 90180056.00000000 24652.15429688  2321213.00000000 1842827.25000000 
0.08300    55547288.00000000 35097432.00000000 88304648.00000000 23988.84179688  2263892.00000000 1797295.37500000 
0.08400    54388704.00000000 34368832.00000000 86467088.00000000 23346.47460938  2207989.50000000 1752921.87500000 
0.08500    53254152.00000000 33655292.00000000 84667104.00000000 22724.37109375  2153577.00000000 1709703.75000000 
0.08600    52142936.00000000 32956050.00000000 82904432.00000000 22122.53320312  2100599.00000000 1667625.50000000 
0.08700    51055596.00000000 32271560.00000000 81178800.00000000 21539.83789062  2049030.62500000 1626651.87500000 
0.08800    49991716.00000000 31601514.00000000 79489648.00000000 20976.03515625  1998840.37500000 1586785.87500000 
0.08900    48951176.00000000 30946462.00000000 77838064.00000000 20430.66015625  1950029.50000000 1547996.12500000 
0.09000    47933388.00000000 30305404.00000000 76223064.00000000 19903.20898438  1902552.25000000 1510260.75000000 
0.09100    46938884.00000000 29678808.00000000 74643792.00000000 19392.82617188  1856389.25000000 1473558.62500000 
0.09200    45967412.00000000 29066354.00000000 73100504.00000000 18899.05664062  1811496.00000000 1437875.37500000 
0.09300    45017900.00000000 28467880.00000000 71592840.00000000 18421.59765625  1767883.37500000 1403191.25000000 
0.09400    44090668.00000000 27883414.00000000 70120736.00000000 17959.55273438  1725459.12500000 1369456.75000000 
0.09500    43185444.00000000 27312520.00000000 68682104.00000000 17512.37109375  1684238.87500000 1336678.25000000 
0.09600    42301076.00000000 26755274.00000000 67278704.00000000 17079.77734375  1644168.37500000 1304816.25000000 
0.09700    41438564.00000000 26211390.00000000 65908672.00000000 16660.87695312  1605239.00000000 1273842.62500000 
0.09800    40596968.00000000 25680750.00000000 64571908.00000000 16255.27539062  1567399.12500000 1243755.50000000 
0.09900    39775656.00000000 25162996.00000000 63267352.00000000 15862.45117188  1530628.00000000 1214497.87500000 
0.10000    38974500.00000000 24657900.00000000 61994632.00000000 15481.69921875  1494881.62500000 1186070.50000000 
0.10100    38193272.00000000 24165340.00000000 60754052.00000000 15112.54882812  1460123.87500000 1158436.37500000 
0.10200    37430752.00000000 23685002.00000000 59543804.00000000 14754.63671875  1426343.12500000 1131567.00000000 
0.10300    36687756.00000000 23216786.00000000 58363836.00000000 14407.28417969  1393506.25000000 1105442.50000000 
0.10400    35963536.00000000 22760404.00000000 57213840.00000000 14070.12500000  1361552.62500000 1080031.37500000 
0.10500    35257356.00000000 22315610.00000000 56092712.00000000 13742.58398438  1330494.12500000 1055330.87500000 
0.10600    34568776.00000000 21881884.00000000 54999640.00000000 13424.17968750  1300263.12500000 1031294.87500000 
0.10700    33897488.00000000 21459450.00000000 53934528.00000000 13114.58105469  1270843.37500000 1007909.43750000 
0.10800    33243404.00000000 21047782.00000000 52896424.00000000 12813.21093750  1242207.75000000 985151.00000000 
0.10900    32605558.00000000 20646614.00000000 51884280.00000000 12519.85449219  1214331.50000000 962988.62500000 
0.11000    31983968.00000000 20255802.00000000 50898364.00000000 12233.93457031  1187170.87500000 941405.12500000 
0.11100    31377912.00000000 19874926.00000000 49937656.00000000 11955.26757812  1160713.75000000 920383.93750000 
0.11200    30787336.00000000 19504018.00000000 49000732.00000000 11683.25000000  1134924.37500000 899898.62500000 
0.11300    30211412.00000000 19142110.00000000 48087972.00000000 11417.61523438  1109782.00000000 879927.31250000 
0.11400    29649908.00000000 18790016.00000000 47198564.00000000 11158.33886719  1085261.00000000 860449.12500000 
0.11500    29102554.00000000 18446746.00000000 46331272.00000000 10904.80664062  1061332.12500000 841454.93750000 
0.11600    28568878.00000000 18112166.00000000 45485932.00000000 10656.78222656  1037971.25000000 822918.93750000 
0.11700    28048216.00000000 17786280.00000000 44661704.00000000 10414.01367188  1015167.25000000 804820.31250000 
0.11800    27540386.00000000 17468254.00000000 43857900.00000000 10176.37011719  992887.56250000 787145.25000000 
0.11900    27044994.00000000 17158580.00000000 43074380.00000000 9943.39648438   971107.62500000 769872.56250000 
0.12000    26561762.00000000 16856510.00000000 42310096.00000000 9715.17382812   949816.62500000 752992.06250000 
0.12100    26090444.00000000 16562105.00000000 41564564.00000000 9491.34082031   929004.37500000 736495.12500000 
0.12200    25629898.00000000 16274758.00000000 40837180.00000000 9271.67871094   908637.68750000 720354.18750000 
0.12300    25180910.00000000 15994713.00000000 40127740.00000000 9056.13281250   888707.12500000 704558.00000000 
0.12400    24742296.00000000 15721456.00000000 39434848.00000000 8844.50097656   869191.75000000 689098.56250000 
0.12500    24313800.00000000 15454685.00000000 38758916.00000000 8636.66210938   850075.00000000 673960.18750000 
0.12600    23895582.00000000 15194392.00000000 38098676.00000000 8432.56054688   831350.18750000 659142.43750000 
0.12700    23486834.00000000 14940353.00000000 37453688.00000000 8232.00976562   812999.00000000 644614.87500000 
0.12800    23087384.00000000 14692252.00000000 36824192.00000000 8035.00439453   795010.56250000 630378.87500000 
0.12900    22696988.00000000 14450011.00000000 36208664.00000000 7841.38476562   777375.31250000 616424.87500000 
0.13000    22315482.00000000 14213216.00000000 35607448.00000000 7651.14453125   760078.62500000 602742.81250000 
0.13100    21941932.00000000 13981919.00000000 35019336.00000000 7464.12646484   743106.25000000 589323.62500000 
0.13200    21577002.00000000 13755728.00000000 34444464.00000000 7280.37646484   726458.18750000 576154.00000000 
0.13300    21219748.00000000 13534700.00000000 33882320.00000000 7099.85058594   710120.12500000 563242.37500000 
0.13400    20870158.00000000 13318438.00000000 33332224.00000000 6922.49462891   694081.06250000 550564.87500000 
0.13500    20527940.00000000 13106858.00000000 32793844.00000000 6748.31054688   678345.00000000 538122.87500000 
0.13600    20192700.00000000 12899817.00000000 32266704.00000000 6577.27343750   662885.50000000 525911.56250000 
0.13700    19864466.00000000 12697204.00000000 31750724.00000000 6409.27490234   647716.18750000 513921.40625000 
0.13800    19542832.00000000 12498754.00000000 31245296.00000000 6244.41308594   632817.68750000 502151.09375000 
0.13900    19227612.00000000 12304358.00000000 30750004.00000000 6082.70849609   618194.62500000 490594.84375000 
0.14000    18918864.00000000 12113787.00000000 30264642.00000000 5924.03955078   603834.56250000 479246.62500000 
0.14100    18615934.00000000 11927142.00000000 29788946.00000000 5768.54492188   589730.43750000 468105.93750000 
0.14200    18318972.00000000 11743971.00000000 29322384.00000000 5616.09667969   575891.43750000 457169.87500000 
0.14300    18027498.00000000 11564507.00000000 28864714.00000000 5466.85644531   562295.00000000 446428.53125000 
0.14400    17741472.00000000 11388318.00000000 28415398.00000000 5320.65917969   548950.87500000 435884.87500000 
0.14500    17460958.00000000 11215387.00000000 27974736.00000000 5177.61718750   535854.25000000 425532.90625000 
0.14600    17185348.00000000 11045669.00000000 27542058.00000000 5037.68603516   522997.43750000 415374.25000000 
0.14700    16914938.00000000 10879001.00000000 27117228.00000000 4900.93994141   510385.43750000 405402.93750000 
0.14800    16649083.00000000 10715200.00000000 26699738.00000000 4767.33007812   498008.00000000 395616.34375000 
0.14900    16387926.00000000 10554263.00000000 26289700.00000000 4636.82861328   485863.00000000 386011.78125000 
0.15000    16131262.00000000 10396024.00000000 25886578.00000000 4509.48144531   473951.34375000 376591.34375000 
0.15100    15879024.00000000 10240427.00000000 25490156.00000000 4385.29492188   462272.40625000 367349.56250000 
0.15200    15631168.00000000 10087421.00000000 25100552.00000000 4264.29443359   450818.00000000 358287.53125000 
0.15300    15387378.00000000 9936934.00000000 24717248.00000000 4146.34912109   439592.21875000 349401.96875000 
0.15400    15147480.00000000 9788720.00000000 24340008.00000000 4031.56689453   428587.12500000 340685.28125000 
0.15500    14911542.00000000 9642920.00000000 23968898.00000000 3919.86108398   417805.06250000 332145.78125000 
0.15600    14679189.00000000 9499216.00000000 23603502.00000000 3811.22070312   407240.09375000 323775.31250000 
0.15700    14450796.00000000 9357711.00000000 23243830.00000000 3705.70996094   396896.46875000 315577.09375000 
0.15800    14225744.00000000 9218264.00000000 22889290.00000000 3603.19677734   386759.81250000 307541.78125000 
0.15900    14004166.00000000 9080888.00000000 22540478.00000000 3503.70214844   376844.00000000 299673.84375000 
0.16000    13785961.00000000 8945420.00000000 22196302.00000000 3407.18798828   367134.37500000 291969.03125000 
0.16100    13571147.00000000 8811866.00000000 21857472.00000000 3313.67114258   357636.53125000 284427.28125000 
0.16200    13359412.00000000 8680078.00000000 21523296.00000000 3223.01318359   348341.96875000 277046.75000000 
0.16300    13150732.00000000 8550104.00000000 21193842.00000000 3135.22656250   339252.81250000 269820.96875000 
0.16400    12945104.00000000 8421842.00000000 20869012.00000000 3050.29125977   330362.37500000 262755.40625000 
0.16500    12742412.00000000 8295138.00000000 20548588.00000000 2968.10620117   321671.81250000 255839.95312500 
0.16600    12542584.00000000 8170202.50000000 20232470.00000000 2888.65234375   313175.81250000 249078.60937500 
0.16700    12345498.00000000 8046755.50000000 19920342.00000000 2811.83471680   304870.03125000 242466.68750000 
0.16800    12151053.00000000 7924807.00000000 19612514.00000000 2737.63720703   296754.62500000 235999.18750000 
0.16900    11959377.00000000 7804396.50000000 19308546.00000000 2666.01440430   288828.90625000 229680.59375000 
0.17000    11770130.00000000 7685384.00000000 19008446.00000000 2596.87231445   281082.25000000 223501.71875000 
