# SAXS profile: number of points = 501, q_min = 0, q_max = 0.5, delta_q = 0.001
#    q    intensity 
0.00000    162233536.00000000 101202568.00000000 256269216.00000000 108564.39843750 8393641.00000000 6629297.00000000 
0.00100    162199072.00000000 101179448.00000000 256212128.00000000 108531.61718750 8391464.00000000 6627541.00000000 
0.00200    162094336.00000000 101111576.00000000 256039712.00000000 108434.64062500 8384855.50000000 6622355.00000000 
0.00300    161914960.00000000 100998336.00000000 255752272.00000000 108274.19531250 8373818.00000000 6613668.00000000 
0.00400    161658720.00000000 100839976.00000000 255349488.00000000 108047.87500000 8358465.00000000 6601610.50000000 
0.00500    161327952.00000000 100636984.00000000 254833088.00000000 107759.54687500 8338705.50000000 6586082.00000000 
0.00600    160922944.00000000 100387800.00000000 254199920.00000000 107408.33593750 8314634.50000000 6567198.00000000 
0.00700    160448304.00000000 100096312.00000000 253460096.00000000 106994.54687500 8286325.50000000 6544932.00000000 
0.00800    159899168.00000000 99762280.00000000 252605888.00000000 106519.82031250 8253796.00000000 6519379.00000000 
0.00900    159287920.00000000 99384584.00000000 251641424.00000000 105983.99218750 8217131.50000000 6490525.50000000 
0.01000    158605968.00000000 98965336.00000000 250570144.00000000 105389.03125000 8176352.00000000 6458484.50000000 
0.01100    157859600.00000000 98502616.00000000 249393472.00000000 104736.77343750 8131585.50000000 6423262.00000000 
0.01200    157042496.00000000 97999072.00000000 248110096.00000000 104027.57031250 8082854.50000000 6384998.50000000 
0.01300    156159328.00000000 97455360.00000000 246727008.00000000 103263.35156250 8030386.50000000 6343673.50000000 
0.01400    155212304.00000000 96871792.00000000 245241872.00000000 102445.41406250 7974081.00000000 6299459.00000000 
0.01500    154205856.00000000 96250056.00000000 243658544.00000000 101575.92187500 7914173.00000000 6252361.50000000 
0.01600    153138544.00000000 95592336.00000000 241980720.00000000 100655.31250000 7850727.50000000 6202453.50000000 
0.01700    152011088.00000000 94897264.00000000 240211152.00000000 99686.35937500  7783836.50000000 6149880.00000000 
0.01800    150825632.00000000 94166936.00000000 238350032.00000000 98672.15625000  7713692.50000000 6094705.00000000 
0.01900    149585664.00000000 93401832.00000000 236402208.00000000 97612.82031250  7640315.00000000 6037006.00000000 
0.02000    148291712.00000000 92603680.00000000 234371024.00000000 96510.73437500  7563951.00000000 5976939.00000000 
0.02100    146947472.00000000 91774048.00000000 232258208.00000000 95368.27343750  7484648.00000000 5914585.00000000 
0.02200    145553504.00000000 90913400.00000000 230067152.00000000 94188.50781250  7402573.50000000 5850046.50000000 
0.02300    144112432.00000000 90024192.00000000 227801296.00000000 92972.32031250  7317842.50000000 5783350.50000000 
0.02400    142625856.00000000 89106648.00000000 225466560.00000000 91722.69531250  7230624.00000000 5714767.50000000 
0.02500    141095872.00000000 88162128.00000000 223061776.00000000 90442.14062500  7141056.50000000 5644289.00000000 
0.02600    139525536.00000000 87191736.00000000 220594048.00000000 89131.98437500  7049317.50000000 5572120.50000000 
0.02700    137917312.00000000 86197464.00000000 218063872.00000000 87795.65625000  6955477.00000000 5498267.50000000 
0.02800    136271488.00000000 85181656.00000000 215478432.00000000 86434.78906250  6859730.50000000 5422918.00000000 
0.02900    134593424.00000000 84143264.00000000 212838848.00000000 85052.80468750  6762270.00000000 5346197.00000000 
0.03000    132884040.00000000 83086680.00000000 210150752.00000000 83650.24218750  6663222.00000000 5268202.50000000 
0.03100    131144376.00000000 82011488.00000000 207415360.00000000 82231.13281250  6562650.00000000 5189074.50000000 
0.03200    129378936.00000000 80919176.00000000 204637344.00000000 80796.78125000  6460844.00000000 5108896.50000000 
0.03300    127589496.00000000 79811752.00000000 201822432.00000000 79350.13281250  6357916.50000000 5027858.00000000 
0.03400    125776752.00000000 78690888.00000000 198971744.00000000 77893.20312500  6253974.50000000 4945956.50000000 
0.03500    123946328.00000000 77558368.00000000 196090832.00000000 76428.85156250  6149211.50000000 4863464.00000000 
0.03600    122097192.00000000 76414448.00000000 193181312.00000000 74957.88281250  6043722.00000000 4780398.00000000 
0.03700    120234360.00000000 75260496.00000000 190249248.00000000 73483.83593750  5937722.00000000 4696893.00000000 
0.03800    118358480.00000000 74099288.00000000 187297008.00000000 72008.90625000  5831278.50000000 4613047.00000000 
0.03900    116472512.00000000 72930016.00000000 184328544.00000000 70533.81250000  5724591.00000000 4528957.50000000 
0.04000    114579184.00000000 71756104.00000000 181344960.00000000 69062.07812500  5617771.00000000 4444797.50000000 
0.04100    112679064.00000000 70577880.00000000 178354768.00000000 67594.21093750  5511000.50000000 4360625.50000000 
0.04200    110776432.00000000 69398392.00000000 175356368.00000000 66132.51562500  5404305.00000000 4276522.50000000 
0.04300    108871856.00000000 68216840.00000000 172356032.00000000 64679.71484375  5297919.50000000 4192634.50000000 
0.04400    106968160.00000000 67035484.00000000 169357024.00000000 63236.27343750  5191859.50000000 4109041.50000000 
0.04500    105067552.00000000 65855440.00000000 166362352.00000000 61804.92187500  5086372.50000000 4025834.25000000 
0.04600    103171312.00000000 64678032.00000000 163373376.00000000 60386.47656250  4981500.00000000 3943146.50000000 
0.04700    101282376.00000000 63504668.00000000 160394576.00000000 58982.67578125  4877350.50000000 3860975.00000000 
0.04800    99401256.00000000 62336608.00000000 157429776.00000000 57594.95703125  4774022.00000000 3779461.50000000 
0.04900    97531008.00000000 61173796.00000000 154479744.00000000 56224.45312500  4671640.00000000 3698691.25000000 
0.05000    95672368.00000000 60018248.00000000 151550448.00000000 54872.82812500  4570308.00000000 3618747.75000000 
0.05100    93827856.00000000 58870872.00000000 148639792.00000000 53540.43750000  4470066.00000000 3539594.00000000 
0.05200    91997776.00000000 57733028.00000000 145753760.00000000 52228.83984375  4370999.50000000 3461427.50000000 
0.05300    90185584.00000000 56605024.00000000 142895184.00000000 50939.27734375  4273246.50000000 3384270.00000000 
0.05400    88390928.00000000 55487816.00000000 140063280.00000000 49671.58203125  4176849.50000000 3308148.00000000 
0.05500    86615912.00000000 54382736.00000000 137263264.00000000 48427.68750000  4081858.00000000 3233167.75000000 
0.05600    84862008.00000000 53290544.00000000 134494576.00000000 47207.56640625  3988381.00000000 3159321.50000000 
0.05700    83130264.00000000 52211628.00000000 131760680.00000000 46012.23828125  3896408.25000000 3086684.00000000 
0.05800    81421920.00000000 51146908.00000000 129063456.00000000 44841.44921875  3806049.25000000 3015292.25000000 
0.05900    79738272.00000000 50097104.00000000 126404280.00000000 43696.49218750  3717303.75000000 2945184.50000000 
0.06000    78079456.00000000 49062956.00000000 123784584.00000000 42577.34375000  3630256.75000000 2876395.50000000 
0.06100    76446920.00000000 48044424.00000000 121206016.00000000 41483.98437500  3544888.00000000 2808974.25000000 
0.06200    74841768.00000000 47043324.00000000 118669472.00000000 40417.25390625  3461314.00000000 2742887.75000000 
0.06300    73264120.00000000 46058356.00000000 116176648.00000000 39376.98828125  3379471.50000000 2678193.00000000 
0.06400    71713960.00000000 45091208.00000000 113728448.00000000 38363.04296875  3299431.25000000 2614936.75000000 
0.06500    70194512.00000000 44142060.00000000 111325752.00000000 37375.55078125  3221180.00000000 2553068.50000000 
0.06600    68703736.00000000 43210684.00000000 108969664.00000000 36413.99609375  3144779.00000000 2492635.25000000 
0.06700    67243320.00000000 42298224.00000000 106660584.00000000 35479.21093750  3070121.75000000 2433646.00000000 
0.06800    65812784.00000000 41404564.00000000 104399288.00000000 34569.90234375  2997356.75000000 2376077.00000000 
0.06900    64412924.00000000 40529640.00000000 102185872.00000000 33686.77343750  2926376.25000000 2319947.75000000 
0.07000    63044032.00000000 39673728.00000000 100021200.00000000 32828.74609375  2857202.50000000 2265224.00000000 
0.07100    61706708.00000000 38837300.00000000 97905592.00000000 31995.80078125  2789869.75000000 2211968.00000000 
0.07200    60399748.00000000 38019660.00000000 95839560.00000000 31187.44335938  2724302.75000000 2160098.25000000 
0.07300    59124140.00000000 37222292.00000000 93821168.00000000 30403.15820312  2660518.00000000 2109608.50000000 
0.07400    57879628.00000000 36443444.00000000 91853192.00000000 29642.89843750  2598496.75000000 2060540.87500000 
0.07500    56666864.00000000 35684740.00000000 89934200.00000000 28905.70703125  2538172.75000000 2012813.62500000 
0.07600    55484324.00000000 34945076.00000000 88063408.00000000 28191.01562500  2479586.50000000 1966434.00000000 
0.07700    54332844.00000000 34224256.00000000 86241880.00000000 27498.74804688  2422680.50000000 1921393.37500000 
0.07800    53211684.00000000 33522966.00000000 84468240.00000000 26827.78320312  2367392.50000000 1877650.37500000 
0.07900    52120796.00000000 32840758.00000000 82741848.00000000 26177.87890625  2313734.50000000 1835185.00000000 
0.08000    51059920.00000000 32176638.00000000 81063240.00000000 25548.15625000  2261657.75000000 1793964.12500000 
0.08100    50028248.00000000 31531344.00000000 79431720.00000000 24938.30664062  2211100.75000000 1753965.00000000 
0.08200    49025932.00000000 30904278.00000000 77845448.00000000 24347.39648438  2162085.00000000 1715149.00000000 
0.08300    48052468.00000000 30295106.00000000 76305320.00000000 23774.92187500  2114514.00000000 1677493.50000000 
0.08400    47106568.00000000 29703472.00000000 74809400.00000000 23220.14648438  2068372.25000000 1640984.00000000 
0.08500    46188644.00000000 29129330.00000000 73358112.00000000 22682.51953125  2023617.25000000 1605561.37500000 
0.08600    45297892.00000000 28572466.00000000 71948480.00000000 22161.39648438  1980199.12500000 1571193.87500000 
0.08700    44433588.00000000 28032102.00000000 70581480.00000000 21656.24023438  1938089.25000000 1537865.25000000 
0.08800    43595052.00000000 27508266.00000000 69256144.00000000 21166.10351562  1897230.00000000 1505527.62500000 
0.08900    42782260.00000000 27000236.00000000 67970272.00000000 20690.54687500  1857589.75000000 1474148.50000000 
0.09000    41993704.00000000 26507888.00000000 66724624.00000000 20229.04882812  1819123.37500000 1443706.00000000 
0.09100    41229148.00000000 26030610.00000000 65516672.00000000 19781.09179688  1781779.00000000 1414156.75000000 
0.09200    40488332.00000000 25568214.00000000 64345796.00000000 19345.94335938  1745528.25000000 1385457.37500000 
0.09300    39770064.00000000 25120244.00000000 63211176.00000000 18923.28906250  1710326.50000000 1357602.00000000 
0.09400    39073996.00000000 24686230.00000000 62111388.00000000 18512.02734375  1676113.62500000 1330531.50000000 
0.09500    38398804.00000000 24265724.00000000 61045644.00000000 18112.05859375  1642858.62500000 1304216.75000000 
0.09600    37744648.00000000 23858092.00000000 60012588.00000000 17722.82617188  1610539.87500000 1278641.75000000 
0.09700    37110432.00000000 23463420.00000000 59012092.00000000 17343.87109375  1579084.37500000 1253756.75000000 
0.09800    36495344.00000000 23080776.00000000 58041600.00000000 16974.53710938  1548490.75000000 1229544.87500000 
0.09900    35898868.00000000 22710080.00000000 57101116.00000000 16614.72070312  1518685.87500000 1205962.37500000 
0.10000    35320320.00000000 22350604.00000000 56188580.00000000 16263.51562500  1489653.75000000 1182987.00000000 
0.10100    34758876.00000000 22002160.00000000 55303872.00000000 15920.95507812  1461344.37500000 1160588.87500000 
0.10200    34214032.00000000 21664064.00000000 54444944.00000000 15586.54882812  1433748.62500000 1138745.87500000 
0.10300    33685312.00000000 21336058.00000000 53612300.00000000 15259.73535156  1406798.00000000 1117426.50000000 
0.10400    33171218.00000000 21017776.00000000 52803140.00000000 14940.30273438  1380485.37500000 1096612.00000000 
0.10500    32672090.00000000 20708634.00000000 52017248.00000000 14628.04492188  1354780.75000000 1076260.87500000 
0.10600    32186592.00000000 20408498.00000000 51253364.00000000 14322.58300781  1329644.00000000 1056361.87500000 
0.10700    31714494.00000000 20116726.00000000 50510520.00000000 14023.65136719  1305032.25000000 1036888.50000000 
0.10800    31254992.00000000 19832884.00000000 49788596.00000000 13730.79980469  1280964.62500000 1017829.18750000 
0.10900    30807572.00000000 19556846.00000000 49085120.00000000 13443.93652344  1257369.12500000 999157.50000000 
0.11000    30371614.00000000 19287804.00000000 48400240.00000000 13162.94042969  1234256.75000000 980849.37500000 
0.11100    29946530.00000000 19026026.00000000 47732356.00000000 12887.44824219  1211570.75000000 962891.68750000 
0.11200    29531492.00000000 18770578.00000000 47081552.00000000 12617.39843750  1189315.12500000 945260.50000000 
0.11300    29126938.00000000 18521262.00000000 46445820.00000000 12352.40136719  1167452.75000000 927949.00000000 
0.11400    28731296.00000000 18277830.00000000 45824912.00000000 12092.50976562  1145991.62500000 910938.68750000 
0.11500    28344738.00000000 18040068.00000000 45218156.00000000 11837.47460938  1124880.12500000 894214.31250000 
0.11600    27966014.00000000 17807550.00000000 44624096.00000000 11587.12792969  1104132.87500000 877762.18750000 
0.11700    27595648.00000000 17579952.00000000 44042984.00000000 11341.41113281  1083712.62500000 861574.37500000 
0.11800    27232278.00000000 17356788.00000000 43473436.00000000 11100.08300781  1063596.12500000 845633.37500000 
0.11900    26876128.00000000 17138114.00000000 42914852.00000000 10863.18847656  1043800.00000000 829926.12500000 
0.12000    26526472.00000000 16923622.00000000 42366940.00000000 10630.56152344  1024300.25000000 814447.62500000 
0.12100    26182932.00000000 16712801.00000000 41828736.00000000 10402.13183594  1005086.50000000 799199.06250000 
0.12200    25845452.00000000 16505749.00000000 41299452.00000000 10177.75683594  986132.31250000 784160.87500000 
0.12300    25513348.00000000 16302051.00000000 40778968.00000000 9957.39453125   967456.50000000 769325.56250000 
0.12400    25186356.00000000 16101380.00000000 40266176.00000000 9740.95410156   949026.68750000 754693.56250000 
0.12500    24864100.00000000 15903523.00000000 39760980.00000000 9528.41015625   930849.93750000 740250.50000000 
0.12600    24546626.00000000 15708695.00000000 39262864.00000000 9319.74804688   912919.93750000 725996.12500000 
0.12700    24232962.00000000 15516297.00000000 38771624.00000000 9114.80175781   895219.93750000 711926.31250000 
0.12800    23923680.00000000 15326282.00000000 38286180.00000000 8913.52441406   877747.75000000 698038.62500000 
0.12900    23618076.00000000 15138496.00000000 37807008.00000000 8715.89257812   860507.81250000 684324.75000000 
0.13000    23316046.00000000 14952658.00000000 37332712.00000000 8521.86523438   843487.31250000 670784.56250000 
0.13100    23017076.00000000 14768890.00000000 36863540.00000000 8331.33203125   826684.68750000 657411.87500000 
0.13200    22721358.00000000 14586834.00000000 36399140.00000000 8144.37451172   810096.68750000 644203.18750000 
0.13300    22428508.00000000 14406427.00000000 35939596.00000000 7960.75537109   793726.25000000 631171.68750000 
0.13400    22138412.00000000 14227607.00000000 35483508.00000000 7780.63281250   777562.00000000 618293.81250000 
0.13500    21851038.00000000 14050183.00000000 35031916.00000000 7603.87011719   761602.68750000 605579.43750000 
0.13600    21565744.00000000 13874110.00000000 34583364.00000000 7430.35009766   745857.37500000 593032.00000000 
0.13700    21283174.00000000 13699356.00000000 34138776.00000000 7260.10986328   730312.93750000 580643.62500000 
0.13800    21002504.00000000 13525796.00000000 33697104.00000000 7093.02734375   714978.87500000 568413.06250000 
0.13900    20724144.00000000 13353391.00000000 33258586.00000000 6929.23535156   699841.18750000 556346.06250000 
0.14000    20447812.00000000 13181964.00000000 32823122.00000000 6768.46240234   684915.12500000 544439.75000000 
0.14100    20173434.00000000 13011602.00000000 32390390.00000000 6610.80566406   670185.50000000 532691.43750000 
0.14200    19900656.00000000 12842121.00000000 31960228.00000000 6456.14257812   655668.62500000 521104.21875000 
0.14300    19629910.00000000 12673700.00000000 31532660.00000000 6304.50146484   641343.00000000 509675.68750000 
0.14400    19360744.00000000 12505974.00000000 31107636.00000000 6155.75341797   627221.31250000 498403.25000000 
0.14500    19093272.00000000 12339274.00000000 30685334.00000000 6009.90380859   613308.62500000 487298.00000000 
0.14600    18827354.00000000 12173389.00000000 30265238.00000000 5866.92089844   599596.56250000 476348.06250000 
0.14700    18563258.00000000 12008269.00000000 29847452.00000000 5726.67138672   586086.37500000 465561.56250000 
0.14800    18300912.00000000 11843941.00000000 29431912.00000000 5589.22949219   572776.31250000 454934.78125000 
0.14900    18039716.00000000 11680359.00000000 29018690.00000000 5454.45068359   559672.87500000 444471.93750000 
0.15000    17780518.00000000 11517697.00000000 28607706.00000000 5322.32421875   546770.62500000 434169.09375000 
0.15100    17522680.00000000 11355782.00000000 28199052.00000000 5192.83984375   534067.31250000 424025.06250000 
0.15200    17266650.00000000 11194662.00000000 27792760.00000000 5065.92382812   521571.65625000 414044.28125000 
0.15300    17012138.00000000 11034441.00000000 27388586.00000000 4941.53173828   509277.84375000 404226.37500000 
0.15400    16759051.00000000 10874893.00000000 26987070.00000000 4819.65527344   497180.62500000 394568.28125000 
0.15500    16507919.00000000 10716270.00000000 26587594.00000000 4700.15478516   485292.71875000 385073.31250000 
0.15600    16258343.00000000 10558561.00000000 26190500.00000000 4583.08496094   473605.50000000 375734.18750000 
0.15700    16010299.00000000 10401714.00000000 25796310.00000000 4468.41357422   462115.15625000 366563.37500000 
0.15800    15764068.00000000 10245662.00000000 25404178.00000000 4356.03613281   450827.96875000 357548.15625000 
0.15900    15519567.00000000 10090636.00000000 25014670.00000000 4246.01708984   439741.50000000 348696.56250000 
0.16000    15276880.00000000 9936499.00000000 24627898.00000000 4138.21044922   428854.31250000 339999.93750000 
0.16100    15035956.00000000 9783473.00000000 24243842.00000000 4032.70068359   418168.25000000 331470.87500000 
0.16200    14796912.00000000 9631446.00000000 23862596.00000000 3929.36425781   407676.28125000 323093.21875000 
0.16300    14559840.00000000 9480449.00000000 23484138.00000000 3828.22143555   397383.34375000 314880.06250000 
0.16400    14324632.00000000 9330425.00000000 23108526.00000000 3729.26074219   387290.93750000 306819.90625000 
0.16500    14091347.00000000 9181653.00000000 22735928.00000000 3632.42016602   377386.62500000 298916.28125000 
0.16600    13860207.00000000 9034022.00000000 22366318.00000000 3537.69604492   367681.40625000 291170.50000000 
0.16700    13631044.00000000 8887451.00000000 21999938.00000000 3445.00805664   358166.87500000 283575.71875000 
0.16800    13404010.00000000 8742179.00000000 21636794.00000000 3354.42578125   348842.46875000 276136.46875000 
0.16900    13179087.00000000 8598127.00000000 21276852.00000000 3265.91040039   339714.28125000 268853.25000000 
0.17000    12956480.00000000 8455438.00000000 20920398.00000000 3179.42749023   330768.62500000 261716.57812500 
