# SAXS profile: number of points = 501, q_min = 0, q_max = 0.5, delta_q = 0.001
#    q    intensity 
0.00000    162236848.00000000 101201416.00000000 256270000.00000000 111626.47656250 8511241.00000000 6722139.00000000 
0.00100    162198160.00000000 101177144.00000000 256208992.00000000 111592.91406250 8508863.00000000 6720290.00000000 
0.00200    162081712.00000000 101103888.00000000 256022288.00000000 111490.73437500 8501805.00000000 6714739.00000000 
0.00300    161885024.00000000 100981176.00000000 255710704.00000000 111321.28906250 8490088.00000000 6705520.50000000 
0.00400    161607904.00000000 100810408.00000000 255275248.00000000 111083.98437500 8473733.00000000 6692635.50000000 
0.00500    161250624.00000000 100590896.00000000 254716624.00000000 110780.59375000 8452702.00000000 6676102.00000000 
0.00600    160816448.00000000 100323056.00000000 254033552.00000000 110410.14062500 8427037.00000000 6655946.50000000 
0.00700    160305920.00000000 100007632.00000000 253232384.00000000 109974.75781250 8396859.00000000 6632240.00000000 
0.00800    159714576.00000000 99646016.00000000 252310816.00000000 109474.74218750 8362190.00000000 6605018.50000000 
0.00900    159051008.00000000 99237112.00000000 251270544.00000000 108910.62500000 8323112.50000000 6574275.00000000 
0.01000    158314544.00000000 98784080.00000000 250112272.00000000 108283.90625000 8279628.50000000 6540104.50000000 
0.01100    157505920.00000000 98285176.00000000 248840736.00000000 107596.21093750 8231887.50000000 6502604.50000000 
0.01200    156625776.00000000 97740848.00000000 247456176.00000000 106848.50781250 8179957.50000000 6461766.00000000 
0.01300    155674160.00000000 97154192.00000000 245960752.00000000 106041.89843750 8123914.00000000 6417709.00000000 
0.01400    154652112.00000000 96524336.00000000 244358752.00000000 105178.41406250 8063895.50000000 6370514.50000000 
0.01500    153564176.00000000 95853616.00000000 242650000.00000000 104259.71093750 7999953.00000000 6320249.00000000 
0.01600    152412240.00000000 95142312.00000000 240839584.00000000 103286.83593750 7932232.00000000 6267018.00000000 
0.01700    151196016.00000000 94392360.00000000 238928464.00000000 102262.89843750 7860858.50000000 6210894.50000000 
0.01800    149918112.00000000 93604912.00000000 236922496.00000000 101188.40625000 7785979.00000000 6152013.50000000 
0.01900    148581360.00000000 92779448.00000000 234820992.00000000 100067.21875000 7707613.50000000 6090412.00000000 
0.02000    147186832.00000000 91919336.00000000 232630192.00000000 98899.67187500  7626014.50000000 6026222.00000000 
0.02100    145736992.00000000 91024928.00000000 230354176.00000000 97688.53125000  7541302.50000000 5959585.50000000 
0.02200    144234656.00000000 90098216.00000000 227993312.00000000 96436.42187500  7453554.50000000 5890589.00000000 
0.02300    142682704.00000000 89139712.00000000 225555456.00000000 95144.66406250  7363007.00000000 5819392.50000000 
0.02400    141082304.00000000 88151864.00000000 223038784.00000000 93816.77343750  7269758.50000000 5746072.00000000 
0.02500    139435456.00000000 87135888.00000000 220451792.00000000 92454.44531250  7174020.50000000 5670715.00000000 
0.02600    137747216.00000000 86092896.00000000 217796464.00000000 91060.05468750  7075852.00000000 5593509.50000000 
0.02700    136017024.00000000 85024624.00000000 215077920.00000000 89636.15625000  6975453.00000000 5514523.50000000 
0.02800    134249312.00000000 83932888.00000000 212300224.00000000 88185.38281250  6873022.50000000 5433959.50000000 
0.02900    132445736.00000000 82818680.00000000 209465264.00000000 86710.18750000  6768717.00000000 5351869.00000000 
0.03000    130609912.00000000 81684464.00000000 206578608.00000000 85212.13281250  6662683.00000000 5268426.00000000 
0.03100    128744296.00000000 80531296.00000000 203645952.00000000 83695.07812500  6555077.50000000 5183754.50000000 
0.03200    126851168.00000000 79361560.00000000 200668816.00000000 82160.78906250  6446111.50000000 5097979.50000000 
0.03300    124933160.00000000 78176128.00000000 197654304.00000000 80611.65625000  6335865.00000000 5011239.00000000 
0.03400    122993264.00000000 76976728.00000000 194602848.00000000 79050.94531250  6224574.00000000 4923576.00000000 
0.03500    121035000.00000000 75765200.00000000 191521504.00000000 77480.20312500  6112380.00000000 4835292.50000000 
0.03600    119059432.00000000 74543072.00000000 188414176.00000000 75901.81250000  5999495.00000000 4746369.50000000 
0.03700    117069280.00000000 73312800.00000000 185284800.00000000 74319.12500000  5885942.00000000 4656977.50000000 
0.03800    115068824.00000000 72075312.00000000 182138576.00000000 72733.36718750  5772025.50000000 4567283.50000000 
0.03900    113059232.00000000 70831960.00000000 178977136.00000000 71147.67968750  5657838.50000000 4477389.50000000 
0.04000    111043456.00000000 69584416.00000000 175803664.00000000 69562.80468750  5543559.00000000 4387394.50000000 
0.04100    109024144.00000000 68334304.00000000 172625328.00000000 67983.78125000  5429300.00000000 4297366.50000000 
0.04200    107004232.00000000 67082488.00000000 169445296.00000000 66409.07031250  5315230.50000000 4207513.00000000 
0.04300    104985288.00000000 65831840.00000000 166267600.00000000 64843.48437500  5201523.00000000 4117897.00000000 
0.04400    102969664.00000000 64582944.00000000 163094736.00000000 63287.55468750  5088248.00000000 4028627.00000000 
0.04500    100960336.00000000 63337788.00000000 159931888.00000000 61744.14453125  4975603.50000000 3939869.00000000 
0.04600    98958776.00000000 62097408.00000000 156779872.00000000 60214.70703125  4863707.00000000 3851664.75000000 
0.04700    96968792.00000000 60863136.00000000 153644960.00000000 58700.48437500  4752657.50000000 3764122.25000000 
0.04800    94990624.00000000 59636596.00000000 150529872.00000000 57203.90234375  4642626.50000000 3677329.00000000 
0.04900    93027536.00000000 58418592.00000000 147437264.00000000 55726.12500000  4533620.00000000 3591422.50000000 
0.05000    91081112.00000000 57210644.00000000 144369984.00000000 54268.60156250  4425869.50000000 3506431.50000000 
0.05100    89153368.00000000 56014148.00000000 141332208.00000000 52833.11718750  4319433.00000000 3422503.50000000 
0.05200    87245800.00000000 54829908.00000000 138325040.00000000 51420.31250000  4214438.50000000 3339651.00000000 
0.05300    85360848.00000000 53659276.00000000 135353888.00000000 50032.05859375  4110934.75000000 3257984.75000000 
0.05400    83499128.00000000 52502508.00000000 132420200.00000000 48669.12109375  4009003.75000000 3177561.75000000 
0.05500    81662560.00000000 51361716.00000000 129525600.00000000 47332.60937500  3908741.75000000 3098459.50000000 
0.05600    79853160.00000000 50236976.00000000 126672016.00000000 46023.57031250  3810266.00000000 3020720.75000000 
0.05700    78071672.00000000 49129408.00000000 123863584.00000000 44742.43359375  3713630.00000000 2944400.00000000 
0.05800    76320104.00000000 48040328.00000000 121100360.00000000 43490.36328125  3618813.00000000 2869558.75000000 
0.05900    74599264.00000000 46969480.00000000 118385472.00000000 42267.58984375  3525965.75000000 2796263.50000000 
0.06000    72909480.00000000 45918132.00000000 115719720.00000000 41074.87109375  3435131.25000000 2724503.50000000 
0.06100    71253232.00000000 44887348.00000000 113105880.00000000 39912.92187500  3346311.25000000 2654339.25000000 
0.06200    69630656.00000000 43876684.00000000 110545600.00000000 38781.81640625  3259581.00000000 2585799.50000000 
0.06300    68042624.00000000 42887676.00000000 108037840.00000000 37681.96093750  3174975.50000000 2518929.75000000 
0.06400    66489004.00000000 41920060.00000000 105585928.00000000 36613.16796875  3092477.75000000 2453728.75000000 
0.06500    64972304.00000000 40974540.00000000 103190392.00000000 35575.57421875  3012148.50000000 2390223.00000000 
0.06600    63491484.00000000 40051444.00000000 100852256.00000000 34569.63671875  2933963.75000000 2328418.50000000 
0.06700    62047224.00000000 39150880.00000000 98571000.00000000 33595.10546875  2857981.00000000 2268350.00000000 
0.06800    60640312.00000000 38273288.00000000 96349008.00000000 32652.50000000  2784171.50000000 2209956.25000000 
0.06900    59271184.00000000 37418908.00000000 94185312.00000000 31739.97656250  2712577.25000000 2153314.75000000 
0.07000    57939308.00000000 36587964.00000000 92080640.00000000 30858.52734375  2643150.75000000 2098376.25000000 
0.07100    56645040.00000000 35779592.00000000 90034856.00000000 30007.44726562  2575888.25000000 2045134.12500000 
0.07200    55388184.00000000 34994856.00000000 88048840.00000000 29186.37695312  2510774.50000000 1993606.50000000 
0.07300    54169696.00000000 34233284.00000000 86122464.00000000 28394.70898438  2447803.50000000 1943756.50000000 
0.07400    52987880.00000000 33495128.00000000 84253704.00000000 27632.15234375  2386945.00000000 1895559.87500000 
0.07500    51843716.00000000 32779886.00000000 82444856.00000000 26898.12695312  2328150.00000000 1849011.62500000 
0.07600    50736576.00000000 32087582.00000000 80693408.00000000 26191.67187500  2271426.00000000 1804068.37500000 
0.07700    49665812.00000000 31417804.00000000 78999968.00000000 25512.23242188  2216685.75000000 1760722.87500000 
0.07800    48631384.00000000 30770588.00000000 77362960.00000000 24859.36914062  2163954.50000000 1718920.37500000 
0.07900    47632076.00000000 30145610.00000000 75782400.00000000 24232.04687500  2113137.75000000 1678641.12500000 
0.08000    46668296.00000000 29542522.00000000 74257408.00000000 23629.58984375  2064191.75000000 1639854.12500000 
0.08100    45738448.00000000 28960606.00000000 72786272.00000000 23051.29492188  2017108.87500000 1602521.50000000 
0.08200    44842804.00000000 28399912.00000000 71369176.00000000 22496.26367188  1971800.50000000 1566596.87500000 
0.08300    43980152.00000000 27859794.00000000 70003664.00000000 21963.68164062  1928243.00000000 1532044.00000000 
0.08400    43150004.00000000 27339944.00000000 68689192.00000000 21452.36523438  1886349.37500000 1498820.62500000 
0.08500    42351080.00000000 26839784.00000000 67424720.00000000 20962.03710938  1846091.50000000 1466885.50000000 
0.08600    41582696.00000000 26358702.00000000 66209192.00000000 20491.19726562  1807392.37500000 1436187.62500000 
0.08700    40844444.00000000 25896098.00000000 65040308.00000000 20039.28906250  1770224.87500000 1406697.12500000 
0.08800    40135016.00000000 25451802.00000000 63917084.00000000 19605.35351562  1734478.50000000 1378330.62500000 
0.08900    39453536.00000000 25024872.00000000 62838372.00000000 19188.68164062  1700136.62500000 1351073.50000000 
0.09000    38799132.00000000 24615022.00000000 61802132.00000000 18788.07031250  1667130.62500000 1324872.50000000 
0.09100    38170684.00000000 24221532.00000000 60807092.00000000 18402.80664062  1635381.62500000 1299673.25000000 
0.09200    37567236.00000000 23843666.00000000 59852124.00000000 18031.97851562  1604845.75000000 1275429.87500000 
0.09300    36987704.00000000 23480852.00000000 58935244.00000000 17674.82226562  1575459.87500000 1252106.25000000 
0.09400    36431348.00000000 23132630.00000000 58054716.00000000 17330.28515625  1547153.12500000 1229634.37500000 
0.09500    35896984.00000000 22798400.00000000 57209180.00000000 16997.87109375  1519877.62500000 1207972.25000000 
0.09600    35383452.00000000 22477226.00000000 56396712.00000000 16676.57031250  1493562.25000000 1187080.37500000 
0.09700    34890272.00000000 22168698.00000000 55616192.00000000 16365.59765625  1468165.87500000 1166923.37500000 
0.09800    34415416.00000000 21872288.00000000 54865876.00000000 16064.50097656  1443616.00000000 1147427.12500000 
0.09900    33959116.00000000 21586992.00000000 54144208.00000000 15772.17968750  1419867.75000000 1128583.87500000 
0.10000    33519432.00000000 21312512.00000000 53448996.00000000 15488.07714844  1396857.12500000 1110312.00000000 
0.10100    33095638.00000000 21048128.00000000 52779012.00000000 15211.54589844  1374538.87500000 1092593.25000000 
0.10200    32686782.00000000 20793166.00000000 52133520.00000000 14942.06933594  1352854.37500000 1075380.62500000 
0.10300    32291882.00000000 20547126.00000000 51510172.00000000 14678.86328125  1331752.12500000 1058639.75000000 
0.10400    31910278.00000000 20309392.00000000 50907424.00000000 14421.44238281  1311205.25000000 1042325.25000000 
0.10500    31540766.00000000 20079470.00000000 50324228.00000000 14169.32812500  1291142.87500000 1026410.18750000 
0.10600    31182150.00000000 19856404.00000000 49758388.00000000 13921.87402344  1271531.25000000 1010848.31250000 
0.10700    30833972.00000000 19640280.00000000 49209748.00000000 13678.81250000  1252320.75000000 995612.68750000 
0.10800    30495278.00000000 19429914.00000000 48675860.00000000 13439.45703125  1233490.37500000 980670.87500000 
0.10900    30165414.00000000 19225342.00000000 48155776.00000000 13203.76855469  1214983.00000000 965991.18750000 
0.11000    29843318.00000000 19025594.00000000 47648676.00000000 12971.08398438  1196780.62500000 951551.62500000 
0.11100    29528438.00000000 18830518.00000000 47152508.00000000 12741.15917969  1178825.37500000 937324.93750000 
0.11200    29219832.00000000 18639652.00000000 46666852.00000000 12513.76562500  1161109.12500000 923278.50000000 
0.11300    28916960.00000000 18452282.00000000 46190048.00000000 12288.53027344  1143596.37500000 909392.00000000 
0.11400    28619128.00000000 18268204.00000000 45721756.00000000 12065.30957031  1126260.37500000 895649.87500000 
0.11500    28325556.00000000 18087124.00000000 45260212.00000000 11843.83105469  1109080.00000000 882031.50000000 
0.11600    28035916.00000000 17908134.00000000 44805100.00000000 11624.07617188  1092029.00000000 868517.68750000 
0.11700    27749420.00000000 17731446.00000000 44354752.00000000 11405.71191406  1075089.12500000 855088.62500000 
0.11800    27465770.00000000 17556386.00000000 43908884.00000000 11188.64746094  1058239.37500000 841730.00000000 
0.11900    27184278.00000000 17382836.00000000 43466532.00000000 10972.81738281  1041469.37500000 828442.62500000 
0.12000    26904286.00000000 17210314.00000000 43027132.00000000 10758.19335938  1024765.37500000 815192.50000000 
0.12100    26625986.00000000 17038702.00000000 42589748.00000000 10544.75195312  1008111.68750000 801996.43750000 
0.12200    26348506.00000000 16867730.00000000 42153712.00000000 10332.47656250  991503.93750000 788828.81250000 
0.12300    26071688.00000000 16697137.00000000 41719256.00000000 10121.28906250  974932.06250000 775687.87500000 
0.12400    25795200.00000000 16526743.00000000 41284980.00000000 9911.21289062   958388.12500000 762572.50000000 
0.12500    25518534.00000000 16356247.00000000 40850320.00000000 9702.31445312   941868.62500000 749475.75000000 
0.12600    25241862.00000000 16185652.00000000 40415408.00000000 9494.71386719   925375.31250000 736395.25000000 
0.12700    24964670.00000000 16014633.00000000 39979980.00000000 9288.38476562   908903.43750000 723329.62500000 
0.12800    24686892.00000000 15843246.00000000 39543596.00000000 9083.48535156   892459.43750000 710280.87500000 
0.12900    24408206.00000000 15671251.00000000 39105476.00000000 8880.06738281   876028.25000000 697247.93750000 
0.13000    24128614.00000000 15498567.00000000 38665804.00000000 8678.18750000   859633.75000000 684239.50000000 
0.13100    23848076.00000000 15325076.00000000 38224648.00000000 8477.87792969   843266.62500000 671245.43750000 
0.13200    23566372.00000000 15150992.00000000 37781448.00000000 8279.49023438   826938.25000000 658279.93750000 
0.13300    23283654.00000000 14975974.00000000 37336500.00000000 8083.08056641   810655.25000000 645351.31250000 
0.13400    22999656.00000000 14800137.00000000 36889236.00000000 7888.63867188   794419.12500000 632451.31250000 
0.13500    22714630.00000000 14623411.00000000 36440124.00000000 7696.34570312   778244.56250000 619601.81250000 
0.13600    22428300.00000000 14445822.00000000 35988908.00000000 7506.39208984   762129.81250000 606794.93750000 
0.13700    22141070.00000000 14267384.00000000 35536140.00000000 7318.92333984   746094.87500000 594050.25000000 
0.13800    21852792.00000000 14088150.00000000 35081376.00000000 7133.94091797   730149.81250000 581366.18750000 
0.13900    21563432.00000000 13908169.00000000 34624896.00000000 6951.68457031   714291.18750000 568757.18750000 
0.14000    21273390.00000000 13727600.00000000 34167184.00000000 6772.22363281   698544.12500000 556228.43750000 
0.14100    20982640.00000000 13546311.00000000 33707544.00000000 6595.75146484   682912.50000000 543784.68750000 
0.14200    20691176.00000000 13364472.00000000 33247180.00000000 6422.25390625   667406.43750000 531442.56250000 
0.14300    20399348.00000000 13182204.00000000 32785794.00000000 6251.95996094   652039.87500000 519200.03125000 
0.14400    20107170.00000000 12999412.00000000 32323564.00000000 6084.87597656   636816.25000000 507077.75000000 
0.14500    19814884.00000000 12816466.00000000 31861078.00000000 5921.15527344   621756.87500000 495075.81250000 
0.14600    19522520.00000000 12633318.00000000 31398174.00000000 5760.91650391   606867.06250000 483205.84375000 
0.14700    19230534.00000000 12450088.00000000 30935608.00000000 5604.18994141   592156.31250000 471475.56250000 
0.14800    18938818.00000000 12266846.00000000 30473090.00000000 5451.00097656   577632.75000000 459887.31250000 
0.14900    18647830.00000000 12083789.00000000 30011148.00000000 5301.49511719   563304.31250000 448457.15625000 
0.15000    18357288.00000000 11900986.00000000 29550374.00000000 5155.67724609   549189.62500000 437189.40625000 
0.15100    18068020.00000000 11718629.00000000 29090826.00000000 5013.61083984   535292.50000000 426090.75000000 
0.15200    17779832.00000000 11536719.00000000 28632702.00000000 4875.33203125   521619.03125000 415172.18750000 
0.15300    17492872.00000000 11355427.00000000 28176736.00000000 4740.87646484   508182.43750000 404431.12500000 
0.15400    17207462.00000000 11174960.00000000 27722748.00000000 4610.17871094   494980.59375000 393878.28125000 
0.15500    16923960.00000000 10995362.00000000 27271352.00000000 4483.30419922   482026.21875000 383522.62500000 
0.15600    16642152.00000000 10816784.00000000 26822482.00000000 4360.27685547   469327.46875000 373362.62500000 
0.15700    16362628.00000000 10639303.00000000 26377024.00000000 4241.03271484   456890.00000000 363408.90625000 
0.15800    16085157.00000000 10463016.00000000 25934648.00000000 4125.54980469   444708.84375000 353660.59375000 
0.15900    15810159.00000000 10288066.00000000 25496092.00000000 4013.83374023   432798.25000000 344122.84375000 
0.16000    15537824.00000000 10114570.00000000 25061370.00000000 3905.78051758   421158.21875000 334795.50000000 
0.16100    15268426.00000000 9942659.00000000 24630970.00000000 3801.44287109   409791.59375000 325689.21875000 
0.16200    15001830.00000000 9772437.00000000 24204712.00000000 3700.72436523   398699.90625000 316798.84375000 
0.16300    14738296.00000000 9603981.00000000 23783230.00000000 3603.47900391   387884.71875000 308126.75000000 
0.16400    14477984.00000000 9437354.00000000 23366764.00000000 3509.74267578   377348.43750000 299676.31250000 
0.16500    14221019.00000000 9272733.00000000 22955390.00000000 3419.39477539   367092.40625000 291447.40625000 
0.16600    13967474.00000000 9110081.00000000 22549212.00000000 3332.36279297   357113.12500000 283437.28125000 
0.16700    13717573.00000000 8949495.00000000 22148546.00000000 3248.55615234   347410.12500000 275644.62500000 
0.16800    13471272.00000000 8791136.00000000 21753604.00000000 3167.89013672   337977.31250000 268072.53125000 
0.16900    13228792.00000000 8635012.00000000 21364440.00000000 3090.29882812   328823.18750000 260718.43750000 
0.17000    12990140.00000000 8481182.00000000 20981168.00000000 3015.63769531   319936.09375000 253576.03125000 
