# SAXS profile: number of points = 501, q_min = 0, q_max = 0.5, delta_q = 0.001
#    q    intensity 
0.00000    162237984.00000000 101201688.00000000 256272112.00000000 104322.97656250 8228066.00000000 6498475.00000000 
0.00100    162211632.00000000 101184920.00000000 256228304.00000000 104300.73437500 8226526.00000000 6497280.50000000 
0.00200    162132336.00000000 101134504.00000000 256101040.00000000 104234.94531250 8221856.00000000 6493604.00000000 
0.00300    161997600.00000000 101050560.00000000 255888448.00000000 104125.45312500 8214030.50000000 6487498.50000000 
0.00400    161806832.00000000 100933072.00000000 255589360.00000000 103972.50000000 8203176.00000000 6478922.50000000 
0.00500    161563568.00000000 100782776.00000000 255205296.00000000 103775.65625000 8189197.00000000 6467930.50000000 
0.00600    161264656.00000000 100598856.00000000 254737648.00000000 103535.40625000 8172165.00000000 6454555.00000000 
0.00700    160912896.00000000 100380856.00000000 254186096.00000000 103252.73437500 8152090.00000000 6438747.00000000 
0.00800    160509088.00000000 100131880.00000000 253550896.00000000 102927.43750000 8128971.50000000 6420572.50000000 
0.00900    160051952.00000000 99849440.00000000 252833216.00000000 102559.94531250 8102861.50000000 6400034.00000000 
0.01000    159542976.00000000 99535480.00000000 252034368.00000000 102150.82812500 8073794.00000000 6377135.00000000 
0.01100    158982880.00000000 99188984.00000000 251153968.00000000 101700.63281250 8041788.50000000 6351932.50000000 
0.01200    158372704.00000000 98811760.00000000 250192288.00000000 101209.65625000 8006874.50000000 6324473.50000000 
0.01300    157712320.00000000 98403496.00000000 249153072.00000000 100678.28906250 7969101.00000000 6294779.00000000 
0.01400    157002208.00000000 97963816.00000000 248035776.00000000 100109.06250000 7928511.00000000 6262857.00000000 
0.01500    156242256.00000000 97494448.00000000 246841056.00000000 99500.10156250  7885163.50000000 6228751.00000000 
0.01600    155435232.00000000 96995008.00000000 245571984.00000000 98853.80468750  7839077.00000000 6192505.00000000 
0.01700    154580240.00000000 96467008.00000000 244228272.00000000 98170.30468750  7790360.50000000 6154159.50000000 
0.01800    153680304.00000000 95909328.00000000 242811168.00000000 97450.96093750  7739028.50000000 6113752.50000000 
0.01900    152733760.00000000 95324696.00000000 241324384.00000000 96695.58593750  7685142.50000000 6071359.00000000 
0.02000    151743888.00000000 94712560.00000000 239765632.00000000 95906.39843750  7628768.50000000 6027002.00000000 
0.02100    150709584.00000000 94073664.00000000 238140320.00000000 95084.35156250  7569989.00000000 5980708.00000000 
0.02200    149634608.00000000 93407544.00000000 236449040.00000000 94229.52343750  7508800.50000000 5932610.00000000 
0.02300    148517840.00000000 92717304.00000000 234690928.00000000 93342.87500000  7445370.50000000 5882697.00000000 
0.02400    147360016.00000000 92001552.00000000 232872048.00000000 92426.62500000  7379682.50000000 5831010.00000000 
0.02500    146165120.00000000 91262056.00000000 230990832.00000000 91480.84375000  7311875.50000000 5777650.00000000 
0.02600    144932176.00000000 90499432.00000000 229051056.00000000 90507.46093750  7241969.50000000 5722634.50000000 
0.02700    143662688.00000000 89713984.00000000 227055168.00000000 89506.94531250  7170110.50000000 5666081.00000000 
0.02800    142357504.00000000 88906624.00000000 225002320.00000000 88480.57812500  7096297.00000000 5607979.50000000 
0.02900    141019488.00000000 88078672.00000000 222896304.00000000 87429.60156250  7020651.00000000 5548416.00000000 
0.03000    139648448.00000000 87230304.00000000 220739920.00000000 86355.26562500  6943252.00000000 5487502.00000000 
0.03100    138246432.00000000 86362712.00000000 218534064.00000000 85259.50000000  6864155.00000000 5425243.50000000 
0.03200    136814656.00000000 85476976.00000000 216281328.00000000 84142.10937500  6783481.50000000 5361766.50000000 
0.03300    135355264.00000000 84573520.00000000 213984960.00000000 83005.50000000  6701305.50000000 5297046.00000000 
0.03400    133867384.00000000 83653168.00000000 211644256.00000000 81850.70312500  6617696.50000000 5231206.00000000 
0.03500    132355752.00000000 82716624.00000000 209264432.00000000 80678.89062500  6532749.50000000 5164352.50000000 
0.03600    130818512.00000000 81765472.00000000 206846816.00000000 79490.67968750  6446542.00000000 5096470.50000000 
0.03700    129259616.00000000 80800240.00000000 204393488.00000000 78288.12500000  6359218.00000000 5027684.00000000 
0.03800    127678768.00000000 79822176.00000000 201905712.00000000 77072.85937500  6270750.00000000 4958040.50000000 
0.03900    126078856.00000000 78831048.00000000 199386736.00000000 75845.64062500  6181308.50000000 4887622.00000000 
0.04000    124460000.00000000 77828960.00000000 196839472.00000000 74607.39062500  6090969.50000000 4816503.50000000 
0.04100    122824256.00000000 76815968.00000000 194266304.00000000 73359.69531250  5999803.50000000 4744693.50000000 
0.04200    121173712.00000000 75792792.00000000 191667424.00000000 72104.15625000  5907947.50000000 4672334.00000000 
0.04300    119509040.00000000 74761992.00000000 189045888.00000000 70841.54687500  5815387.50000000 4599430.00000000 
0.04400    117831184.00000000 73723024.00000000 186406176.00000000 69573.59375000  5722309.50000000 4526094.50000000 
0.04500    116142992.00000000 72676960.00000000 183748720.00000000 68301.18750000  5628720.00000000 4452415.00000000 
0.04600    114444936.00000000 71625440.00000000 181075056.00000000 67025.62500000  5534767.00000000 4378398.50000000 
0.04700    112738608.00000000 70568064.00000000 178388608.00000000 65747.71093750  5440501.50000000 4304122.50000000 
0.04800    111025032.00000000 69506184.00000000 175691264.00000000 64469.57421875  5346028.50000000 4229667.00000000 
0.04900    109306992.00000000 68441120.00000000 172985120.00000000 63191.39062500  5251410.00000000 4155102.50000000 
0.05000    107584064.00000000 67373400.00000000 170272784.00000000 61914.94531250  5156684.00000000 4080485.50000000 
0.05100    105859192.00000000 66303816.00000000 167555808.00000000 60641.00000000  5061989.00000000 4005872.25000000 
0.05200    104132312.00000000 65233464.00000000 164835968.00000000 59370.67578125  4967399.50000000 3931317.00000000 
0.05300    102405584.00000000 64162672.00000000 162116832.00000000 58104.91796875  4873011.00000000 3856888.25000000 
0.05400    100680080.00000000 63092708.00000000 159399312.00000000 56844.99218750  4778806.00000000 3782638.75000000 
0.05500    98956832.00000000 62024556.00000000 156686128.00000000 55591.94921875  4684956.50000000 3708659.25000000 
0.05600    97237760.00000000 60958064.00000000 153977968.00000000 54346.40234375  4591455.50000000 3634949.75000000 
0.05700    95524168.00000000 59894652.00000000 151278304.00000000 53109.94921875  4498395.00000000 3561594.75000000 
0.05800    93816000.00000000 58835104.00000000 148586368.00000000 51882.82421875  4405882.50000000 3488638.25000000 
0.05900    92115232.00000000 57779764.00000000 145908144.00000000 50665.87890625  4313936.00000000 3416134.00000000 
0.06000    90423056.00000000 56729712.00000000 143241104.00000000 49460.33203125  4222652.50000000 3344141.50000000 
0.06100    88740408.00000000 55685464.00000000 140588736.00000000 48266.98828125  4132059.25000000 3272698.75000000 
0.06200    87068152.00000000 54647652.00000000 137953984.00000000 47086.32421875  4042227.75000000 3201829.00000000 
0.06300    85407896.00000000 53616772.00000000 135337248.00000000 45919.44531250  3953212.25000000 3131619.75000000 
0.06400    83759800.00000000 52593488.00000000 132741576.00000000 44766.53125000  3865046.00000000 3062069.25000000 
0.06500    82125240.00000000 51578668.00000000 130165368.00000000 43628.51171875  3777826.25000000 2993243.25000000 
0.06600    80505224.00000000 50572948.00000000 127612056.00000000 42506.32421875  3691566.00000000 2925200.75000000 
0.06700    78900704.00000000 49576108.00000000 125082376.00000000 41399.87500000  3606304.25000000 2857902.00000000 
0.06800    77312384.00000000 48589268.00000000 122578808.00000000 40310.31640625  3522120.75000000 2791461.50000000 
0.06900    75740544.00000000 47613120.00000000 120101344.00000000 39237.74218750  3439023.75000000 2725881.75000000 
0.07000    74187104.00000000 46647640.00000000 117652296.00000000 38182.60937500  3357056.75000000 2661183.25000000 
0.07100    72652008.00000000 45693724.00000000 115231328.00000000 37145.67578125  3276271.50000000 2597406.75000000 
0.07200    71135968.00000000 44751444.00000000 112840720.00000000 36126.92187500  3196678.00000000 2534579.00000000 
0.07300    69639792.00000000 43821188.00000000 110481032.00000000 35127.04687500  3118326.50000000 2472705.75000000 
0.07400    68163840.00000000 42903676.00000000 108153432.00000000 34146.24218750  3041250.50000000 2411841.25000000 
0.07500    66708744.00000000 41998900.00000000 105859056.00000000 33184.58984375  2965446.25000000 2351974.75000000 
0.07600    65275396.00000000 41107680.00000000 103598200.00000000 32242.67968750  2890979.25000000 2293150.00000000 
0.07700    63864112.00000000 40229832.00000000 101371416.00000000 31320.39453125  2817817.00000000 2235368.00000000 
0.07800    62474988.00000000 39365628.00000000 99180232.00000000 30418.07421875  2746014.75000000 2178647.00000000 
0.07900    61108492.00000000 38515744.00000000 97025056.00000000 29535.86523438  2675587.75000000 2122997.50000000 
0.08000    59765352.00000000 37680060.00000000 94906160.00000000 28673.76953125  2606533.50000000 2068439.75000000 
0.08100    58445852.00000000 36858648.00000000 92823648.00000000 27831.96484375  2538880.25000000 2014980.00000000 
0.08200    57150072.00000000 36052120.00000000 90779440.00000000 27010.22851562  2472628.25000000 1962607.87500000 
0.08300    55878116.00000000 35260364.00000000 88772248.00000000 26208.74804688  2407789.50000000 1911361.00000000 
0.08400    54630784.00000000 34483836.00000000 86802992.00000000 25427.71484375  2344357.75000000 1861213.37500000 
0.08500    53407528.00000000 33722252.00000000 84872696.00000000 24666.69140625  2282356.00000000 1812189.12500000 
0.08600    52208984.00000000 32975650.00000000 82980496.00000000 23925.73828125  2221773.00000000 1764282.87500000 
0.08700    51035096.00000000 32244456.00000000 81128360.00000000 23204.84375000  2162604.75000000 1717490.50000000 
0.08800    49885756.00000000 31528500.00000000 79313600.00000000 22503.72070312  2104852.75000000 1671816.87500000 
0.08900    48761496.00000000 30828046.00000000 77538808.00000000 21822.26953125  2048501.00000000 1627243.62500000 
0.09000    47661808.00000000 30142806.00000000 75802200.00000000 21160.34960938  1993554.37500000 1583776.37500000 
0.09100    46586880.00000000 29472880.00000000 74104736.00000000 20517.66601562  1940013.87500000 1541412.75000000 
0.09200    45536672.00000000 28818236.00000000 72446440.00000000 19894.13085938  1887836.50000000 1500131.75000000 
0.09300    44510992.00000000 28178912.00000000 70826720.00000000 19289.34179688  1837051.50000000 1459936.12500000 
0.09400    43509952.00000000 27554566.00000000 69245936.00000000 18703.04882812  1787612.37500000 1420812.37500000 
0.09500    42533152.00000000 26945510.00000000 67702528.00000000 18135.09960938  1739524.12500000 1382734.75000000 
0.09600    41580080.00000000 26351250.00000000 66197668.00000000 17584.97851562  1692756.25000000 1345721.75000000 
0.09700    40651724.00000000 25771978.00000000 64730872.00000000 17052.60937500  1647311.62500000 1309727.75000000 
0.09800    39746440.00000000 25207376.00000000 63300928.00000000 16537.51953125  1603153.37500000 1274760.62500000 
0.09900    38865016.00000000 24657456.00000000 61908280.00000000 16039.49218750  1560264.37500000 1240794.62500000 
0.10000    38006864.00000000 24121838.00000000 60551952.00000000 15557.94726562  1518634.87500000 1207814.00000000 
0.10100    37171236.00000000 23600524.00000000 59232164.00000000 15092.67968750  1478237.50000000 1175806.37500000 
0.10200    36358600.00000000 23093268.00000000 57947980.00000000 14643.32128906  1439030.87500000 1144759.37500000 
0.10300    35568024.00000000 22599766.00000000 56698632.00000000 14209.29882812  1401018.00000000 1114629.25000000 
0.10400    34799632.00000000 22119902.00000000 55484196.00000000 13790.60253906  1364174.25000000 1085424.87500000 
0.10500    34052368.00000000 21653630.00000000 54303524.00000000 13386.41015625  1328453.50000000 1057114.50000000 
0.10600    33326562.00000000 21200346.00000000 53156468.00000000 12996.62011719  1293839.75000000 1029678.50000000 
0.10700    32621674.00000000 20760080.00000000 52041792.00000000 12620.82812500  1260318.12500000 1003099.43750000 
0.10800    31937210.00000000 20332542.00000000 50959664.00000000 12258.38769531  1227845.12500000 977349.12500000 
0.10900    31272360.00000000 19917250.00000000 49909120.00000000 11909.05175781  1196412.00000000 952418.43750000 
0.11000    30627298.00000000 19514334.00000000 48889188.00000000 11572.45800781  1165973.62500000 928282.25000000 
0.11100    30001462.00000000 19123174.00000000 47899632.00000000 11248.17871094  1136513.12500000 904908.75000000 
0.11200    29394064.00000000 18743750.00000000 46939344.00000000 10935.70996094  1108004.25000000 882287.25000000 
0.11300    28805014.00000000 18375706.00000000 46007920.00000000 10634.73339844  1080407.00000000 860387.12500000 
0.11400    28233750.00000000 18018628.00000000 45104424.00000000 10344.84765625  1053712.87500000 839201.43750000 
0.11500    27679904.00000000 17672362.00000000 44228516.00000000 10065.63964844  1027876.12500000 818695.37500000 
0.11600    27142534.00000000 17336514.00000000 43378972.00000000 9796.70800781   1002879.31250000 798850.56250000 
0.11700    26621866.00000000 17011152.00000000 42555428.00000000 9537.73437500   978691.62500000 779651.18750000 
0.11800    26116732.00000000 16695275.00000000 41756688.00000000 9288.15917969   955280.50000000 761059.81250000 
0.11900    25627298.00000000 16389201.00000000 40982472.00000000 9047.74121094   932629.12500000 743070.06250000 
0.12000    25152532.00000000 16092277.00000000 40231340.00000000 8816.02246094   910703.37500000 725649.87500000 
0.12100    24692382.00000000 15804540.00000000 39503304.00000000 8592.86132812   889480.31250000 708793.43750000 
0.12200    24246328.00000000 15525541.00000000 38797844.00000000 8377.63671875   868932.37500000 692463.68750000 
0.12300    23813590.00000000 15254901.00000000 38113372.00000000 8170.23583984   849032.50000000 676646.87500000 
0.12400    23393908.00000000 14992455.00000000 37449240.00000000 7970.12353516   829758.12500000 661327.43750000 
0.12500    22986848.00000000 14737691.00000000 36805016.00000000 7777.02148438   811075.87500000 646476.12500000 
0.12600    22591928.00000000 14490645.00000000 36180488.00000000 7590.71191406   792977.37500000 632090.62500000 
0.12700    22208796.00000000 14250847.00000000 35574048.00000000 7410.78662109   775422.56250000 618128.75000000 
0.12800    21836730.00000000 14018022.00000000 34985532.00000000 7236.96777344   758402.75000000 604591.43750000 
0.12900    21475538.00000000 13792047.00000000 34413840.00000000 7069.00830078   741876.56250000 591448.31250000 
0.13000    21124692.00000000 13572434.00000000 33858712.00000000 6906.57421875   725843.18750000 578687.62500000 
0.13100    20783682.00000000 13358992.00000000 33319068.00000000 6749.40917969   710265.31250000 566287.75000000 
0.13200    20452412.00000000 13151426.00000000 32794500.00000000 6597.23535156   695123.06250000 554238.56250000 
0.13300    20130064.00000000 12949673.00000000 32284488.00000000 6449.85058594   680404.43750000 542520.81250000 
0.13400    19816424.00000000 12753322.00000000 31787962.00000000 6307.03027344   666082.62500000 531119.75000000 
0.13500    19511352.00000000 12562037.00000000 31304728.00000000 6168.48388672   652150.06250000 520022.78125000 
0.13600    19213930.00000000 12375809.00000000 30834014.00000000 6034.02880859   638575.87500000 509209.15625000 
0.13700    18924346.00000000 12194297.00000000 30375200.00000000 5903.44628906   625348.31250000 498668.15625000 
0.13800    18641904.00000000 12017257.00000000 29927836.00000000 5776.51464844   612447.25000000 488385.78125000 
0.13900    18366216.00000000 11844367.00000000 29491448.00000000 5653.13818359   599860.87500000 478355.56250000 
0.14000    18097178.00000000 11675672.00000000 29065172.00000000 5533.04687500   587574.50000000 468557.00000000 
0.14100    17834376.00000000 11510839.00000000 28648914.00000000 5416.12646484   575568.31250000 458985.15625000 
0.14200    17577464.00000000 11349576.00000000 28241716.00000000 5302.19384766   563833.25000000 449621.75000000 
0.14300    17326108.00000000 11191882.00000000 27843456.00000000 5191.05810547   552354.06250000 440460.53125000 
0.14400    17080140.00000000 11037431.00000000 27453438.00000000 5082.64746094   541114.18750000 431489.93750000 
0.14500    16839124.00000000 10886107.00000000 27071474.00000000 4976.76171875   530111.56250000 422704.18750000 
0.14600    16603110.00000000 10737642.00000000 26696964.00000000 4873.39111328   519326.43750000 414093.00000000 
0.14700    16371438.00000000 10592081.00000000 26329716.00000000 4772.33740234   508752.21875000 405645.18750000 
0.14800    16144048.00000000 10449102.00000000 25968806.00000000 4673.49218750   498375.81250000 397355.03125000 
0.14900    15920694.00000000 10308540.00000000 25614378.00000000 4576.71093750   488191.84375000 389213.71875000 
0.15000    15701179.00000000 10170341.00000000 25265932.00000000 4482.00488281   478188.28125000 381219.09375000 
0.15100    15485270.00000000 10034391.00000000 24923160.00000000 4389.22900391   468355.96875000 373354.09375000 
0.15200    15272841.00000000 9900422.00000000 24585726.00000000 4298.31835938   458694.43750000 365625.87500000 
0.15300    15063655.00000000 9768565.00000000 24253604.00000000 4209.20068359   449193.09375000 358019.90625000 
0.15400    14857391.00000000 9638403.00000000 23925838.00000000 4121.79589844   439839.81250000 350531.81250000 
0.15500    14654219.00000000 9510067.00000000 23602736.00000000 4036.01245117   430633.59375000 343160.84375000 
0.15600    14453593.00000000 9383355.00000000 23283794.00000000 3951.85205078   421569.56250000 335900.03125000 
0.15700    14255717.00000000 9258269.00000000 22968986.00000000 3869.29321289   412642.75000000 328747.65625000 
0.15800    14060181.00000000 9134549.00000000 22657766.00000000 3788.16992188   403845.84375000 321694.18750000 
0.15900    13867073.00000000 9012257.00000000 22350376.00000000 3708.54150391   395179.62500000 314744.96875000 
0.16000    13676064.00000000 8891216.00000000 22046304.00000000 3630.30102539   386635.46875000 307888.90625000 
0.16100    13487288.00000000 8771515.00000000 21745516.00000000 3553.46972656   378212.12500000 301131.78125000 
0.16200    13300474.00000000 8652992.00000000 21447668.00000000 3478.01123047   369906.09375000 294463.46875000 
0.16300    13115545.00000000 8535541.00000000 21152826.00000000 3403.84033203   361715.59375000 287886.87500000 
0.16400    12932547.00000000 8419179.00000000 20860904.00000000 3331.01806641   353639.06250000 281397.96875000 
0.16500    12751216.00000000 8303888.00000000 20571700.00000000 3259.43701172   345671.59375000 274994.90625000 
0.16600    12571643.00000000 8189536.50000000 20285072.00000000 3189.15600586   337816.18750000 268678.18750000 
0.16700    12393700.00000000 8076152.00000000 20000768.00000000 3120.05786133   330064.31250000 262445.34375000 
0.16800    12217297.00000000 7963620.50000000 19718846.00000000 3052.18041992   322419.09375000 256294.35937500 
0.16900    12042466.00000000 7852080.50000000 19439592.00000000 2985.56616211   314882.43750000 250229.29687500 
0.17000    11869178.00000000 7741303.50000000 19162408.00000000 2920.10595703   307448.21875000 244243.03125000 
