# SAXS profile: number of points = 501, q_min = 0, q_max = 0.5, delta_q = 0.001
#    q    intensity 
0.00000    162237824.00000000 101202000.00000000 256271984.00000000 90615.47656250  7668463.00000000 6056521.00000000 
0.00100    162218064.00000000 101189056.00000000 256239360.00000000 90599.25781250  7667282.00000000 6055611.50000000 
0.00200    162156592.00000000 101150736.00000000 256142224.00000000 90550.56250000  7663743.00000000 6052818.50000000 
0.00300    162054176.00000000 101087416.00000000 255979680.00000000 90469.44531250  7657831.50000000 6048162.50000000 
0.00400    161910320.00000000 100998504.00000000 255753168.00000000 90355.84375000  7649539.00000000 6041682.50000000 
0.00500    161723792.00000000 100883992.00000000 255462432.00000000 90210.07812500  7638914.50000000 6033354.00000000 
0.00600    161495984.00000000 100744200.00000000 255104656.00000000 90032.50000000  7625941.50000000 6023146.00000000 
0.00700    161227344.00000000 100580072.00000000 254685184.00000000 89822.78125000  7610645.50000000 6011145.50000000 
0.00800    160918640.00000000 100390272.00000000 254200944.00000000 89581.56250000  7592990.00000000 5997299.50000000 
0.00900    160570240.00000000 100175776.00000000 253654400.00000000 89308.32031250  7573078.50000000 5981654.50000000 
0.01000    160179504.00000000 99936976.00000000 253043952.00000000 89004.39843750  7550883.00000000 5964231.00000000 
0.01100    159750080.00000000 99673616.00000000 252371824.00000000 88669.50781250  7526409.00000000 5945022.00000000 
0.01200    159280512.00000000 99385688.00000000 251636304.00000000 88304.10156250  7499689.50000000 5924048.50000000 
0.01300    158773536.00000000 99073656.00000000 250841136.00000000 87909.50781250  7470760.50000000 5901324.00000000 
0.01400    158226912.00000000 98738240.00000000 249984784.00000000 87483.92187500  7439652.00000000 5876895.50000000 
0.01500    157643440.00000000 98379312.00000000 249067824.00000000 87029.56250000  7406349.50000000 5850761.50000000 
0.01600    157020112.00000000 97996376.00000000 248091728.00000000 86546.22656250  7370918.00000000 5822938.50000000 
0.01700    156359552.00000000 97590528.00000000 247056464.00000000 86034.17968750  7333398.50000000 5793464.50000000 
0.01800    155663632.00000000 97162672.00000000 245963296.00000000 85494.35937500  7293814.00000000 5762379.00000000 
0.01900    154929344.00000000 96711680.00000000 244813360.00000000 84927.68750000  7252179.00000000 5729680.00000000 
0.02000    154159200.00000000 96238968.00000000 243606944.00000000 84334.20312500  7208545.00000000 5695390.00000000 
0.02100    153355248.00000000 95744944.00000000 242346496.00000000 83714.28906250  7162932.00000000 5659586.50000000 
0.02200    152515888.00000000 95229296.00000000 241031456.00000000 83069.19531250  7115398.50000000 5622263.00000000 
0.02300    151642848.00000000 94692496.00000000 239661696.00000000 82398.81250000  7066009.00000000 5583454.50000000 
0.02400    150736576.00000000 94135344.00000000 238240240.00000000 81704.05468750  7014747.00000000 5543211.50000000 
0.02500    149797616.00000000 93558024.00000000 236767712.00000000 80986.21093750  6961713.00000000 5501526.00000000 
0.02600    148825744.00000000 92961472.00000000 235245344.00000000 80244.92187500  6906922.50000000 5458528.50000000 
0.02700    147824464.00000000 92345496.00000000 233672832.00000000 79482.03906250  6850458.50000000 5414132.50000000 
0.02800    146791680.00000000 91710224.00000000 232053824.00000000 78696.96875000  6792307.00000000 5368477.50000000 
0.02900    145729744.00000000 91056928.00000000 230386368.00000000 77892.15625000  6732543.00000000 5321504.50000000 
0.03000    144637632.00000000 90385440.00000000 228674960.00000000 77066.45312500  6671228.50000000 5273339.50000000 
0.03100    143518736.00000000 89696920.00000000 226919808.00000000 76222.46093750  6608430.50000000 5223972.50000000 
0.03200    142372160.00000000 88991528.00000000 225119584.00000000 75359.25781250  6544149.50000000 5173482.50000000 
0.03300    141197952.00000000 88269352.00000000 223278560.00000000 74478.92187500  6478506.50000000 5121855.00000000 
0.03400    139999744.00000000 87531664.00000000 221397536.00000000 73582.04687500  6411492.50000000 5069188.00000000 
0.03500    138775472.00000000 86778824.00000000 219478304.00000000 72669.10937500  6343207.00000000 5015503.00000000 
0.03600    137528144.00000000 86010784.00000000 217519696.00000000 71740.80468750  6273630.00000000 4960843.00000000 
0.03700    136257408.00000000 85227968.00000000 215525760.00000000 70798.57031250  6202932.00000000 4905266.00000000 
0.03800    134963824.00000000 84432200.00000000 213496768.00000000 69843.07031250  6131071.50000000 4848770.50000000 
0.03900    133650504.00000000 83623056.00000000 211434624.00000000 68874.75781250  6058161.50000000 4791445.50000000 
0.04000    132315744.00000000 82800880.00000000 209340128.00000000 67894.50781250  5984249.50000000 4733319.50000000 
0.04100    130961680.00000000 81966912.00000000 207213984.00000000 66903.64062500  5909388.50000000 4674447.50000000 
0.04200    129589688.00000000 81121104.00000000 205059088.00000000 65902.86718750  5833605.50000000 4614845.00000000 
0.04300    128199152.00000000 80264288.00000000 202876576.00000000 64892.82421875  5756988.50000000 4554590.50000000 
0.04400    126792928.00000000 79397440.00000000 200667536.00000000 63874.72265625  5679629.00000000 4493737.50000000 
0.04500    125370552.00000000 78520616.00000000 198434848.00000000 62849.08203125  5601520.50000000 4432278.50000000 
0.04600    123933368.00000000 77634200.00000000 196176256.00000000 61816.88281250  5522749.00000000 4370317.00000000 
0.04700    122482440.00000000 76739096.00000000 193897984.00000000 60779.04687500  5443369.50000000 4307872.50000000 
0.04800    121018064.00000000 75836624.00000000 191597840.00000000 59736.30078125  5363469.00000000 4244973.50000000 
0.04900    119542720.00000000 74925824.00000000 189278848.00000000 58689.26171875  5283045.00000000 4181694.25000000 
0.05000    118055568.00000000 74008344.00000000 186942384.00000000 57639.33593750  5202214.50000000 4118076.00000000 
0.05100    116558832.00000000 73084640.00000000 184591824.00000000 56586.85937500  5120990.00000000 4054159.50000000 
0.05200    115052640.00000000 72154896.00000000 182224288.00000000 55533.05859375  5039450.00000000 3989978.25000000 
0.05300    113537944.00000000 71219696.00000000 179844208.00000000 54478.26953125  4957696.00000000 3925569.50000000 
0.05400    112016584.00000000 70279904.00000000 177452192.00000000 53423.56250000  4875680.50000000 3861012.50000000 
0.05500    110488672.00000000 69335736.00000000 175049328.00000000 52369.67578125  4793537.50000000 3796317.75000000 
0.05600    108954912.00000000 68388016.00000000 172638192.00000000 51317.26953125  4711306.50000000 3731535.25000000 
0.05700    107416752.00000000 67437544.00000000 170219888.00000000 50266.96484375  4628987.50000000 3666730.50000000 
0.05800    105874624.00000000 66484324.00000000 167795488.00000000 49219.92187500  4546722.50000000 3601910.00000000 
0.05900    104330184.00000000 65528808.00000000 165366160.00000000 48176.79687500  4464513.50000000 3537121.50000000 
0.06000    102783456.00000000 64572296.00000000 162932464.00000000 47137.83203125  4382408.00000000 3472426.50000000 
0.06100    101235664.00000000 63614848.00000000 160498208.00000000 46104.00000000  4300482.00000000 3407855.25000000 
0.06200    99687744.00000000 62656756.00000000 158061952.00000000 45076.25000000  4218757.50000000 3343449.50000000 
0.06300    98140440.00000000 61699136.00000000 155627472.00000000 44054.84765625  4137305.75000000 3279231.25000000 
0.06400    96594216.00000000 60741504.00000000 153194160.00000000 43040.34375000  4056122.75000000 3215226.25000000 
0.06500    95050712.00000000 59785544.00000000 150763984.00000000 42033.69531250  3975320.75000000 3151519.00000000 
0.06600    93510208.00000000 58831112.00000000 148338544.00000000 41035.28906250  3894915.25000000 3088121.75000000 
0.06700    91973488.00000000 57878544.00000000 145918208.00000000 40045.54687500  3814968.00000000 3025041.00000000 
0.06800    90441024.00000000 56928712.00000000 143505472.00000000 39065.46484375  3735487.00000000 2962336.25000000 
0.06900    88913920.00000000 55981900.00000000 141100672.00000000 38095.11328125  3656528.00000000 2900054.00000000 
0.07000    87392696.00000000 55038436.00000000 138704272.00000000 37135.41015625  3578147.50000000 2838195.75000000 
0.07100    85878232.00000000 54098860.00000000 136317984.00000000 36186.47265625  3500381.50000000 2776812.75000000 
0.07200    84371464.00000000 53163524.00000000 133944104.00000000 35248.78906250  3423229.25000000 2715912.25000000 
0.07300    82872576.00000000 52233172.00000000 131582216.00000000 34323.38281250  3346768.50000000 2655544.00000000 
0.07400    81382408.00000000 51307828.00000000 129233880.00000000 33409.91015625  3271033.25000000 2595759.50000000 
0.07500    79902040.00000000 50387904.00000000 126899344.00000000 32509.02539062  3196037.25000000 2536525.00000000 
0.07600    78430896.00000000 49473872.00000000 124580776.00000000 31621.13281250  3121824.50000000 2477892.75000000 
0.07700    76970360.00000000 48566600.00000000 122278264.00000000 30746.73046875  3048408.00000000 2419893.50000000 
0.07800    75521800.00000000 47665308.00000000 119992600.00000000 29885.62304688  2975844.00000000 2362557.00000000 
0.07900    74084432.00000000 46771356.00000000 117725248.00000000 29038.75976562  2904135.50000000 2305893.00000000 
0.08000    72659328.00000000 45884804.00000000 115476608.00000000 28206.05078125  2833318.25000000 2249910.75000000 
0.08100    71247112.00000000 45005768.00000000 113248504.00000000 27387.82812500  2763427.75000000 2194654.25000000 
0.08200    69848176.00000000 44134544.00000000 111040296.00000000 26584.40625000  2694456.75000000 2140132.25000000 
0.08300    68462832.00000000 43271944.00000000 108854280.00000000 25795.78710938  2626461.75000000 2086358.87500000 
0.08400    67091660.00000000 42417396.00000000 106689240.00000000 25022.32421875  2559460.00000000 2033348.25000000 
0.08500    65735384.00000000 41571868.00000000 104547232.00000000 24264.15429688  2493449.00000000 1981128.87500000 
0.08600    64393884.00000000 40735256.00000000 102428016.00000000 23521.30468750  2428459.00000000 1929698.62500000 
0.08700    63067840.00000000 39908304.00000000 100334008.00000000 22794.10742188  2364502.50000000 1879074.62500000 
0.08800    61757404.00000000 39090584.00000000 98262968.00000000 22082.50585938  2301590.00000000 1829280.62500000 
0.08900    60463124.00000000 38282784.00000000 96218200.00000000 21386.58789062  2239751.50000000 1780310.37500000 
0.09000    59185444.00000000 37484716.00000000 94198832.00000000 20706.60937500  2178989.50000000 1732189.12500000 
0.09100    57924328.00000000 36696824.00000000 92205104.00000000 20042.20703125  2119298.75000000 1684909.50000000 
0.09200    56680296.00000000 35919272.00000000 90237984.00000000 19393.72460938  2060709.25000000 1638485.75000000 
0.09300    55453596.00000000 35152468.00000000 88298048.00000000 18761.14648438  2003226.00000000 1592941.50000000 
0.09400    54244100.00000000 34395972.00000000 86384856.00000000 18144.20703125  1946835.87500000 1548247.75000000 
0.09500    53052476.00000000 33650368.00000000 84499136.00000000 17543.18554688  1891574.50000000 1504434.62500000 
0.09600    51878792.00000000 32915702.00000000 82641928.00000000 16957.77539062  1837418.00000000 1461494.75000000 
0.09700    50723068.00000000 32192000.00000000 80812672.00000000 16388.11132812  1784403.25000000 1419446.75000000 
0.09800    49585824.00000000 31479450.00000000 79012424.00000000 15833.97656250  1732498.00000000 1378279.50000000 
0.09900    48466696.00000000 30778030.00000000 77240680.00000000 15295.21093750  1681717.25000000 1337987.87500000 
0.10000    47366332.00000000 30088108.00000000 75497608.00000000 14771.90234375  1632059.37500000 1298574.87500000 
0.10100    46284292.00000000 29409370.00000000 73783424.00000000 14263.71582031  1583517.12500000 1260048.62500000 
0.10200    45220972.00000000 28742138.00000000 72099152.00000000 13770.57031250  1536094.37500000 1222393.87500000 
0.10300    44176512.00000000 28086372.00000000 70443736.00000000 13292.16113281  1489783.12500000 1185619.25000000 
0.10400    43150672.00000000 27442178.00000000 68817936.00000000 12828.62304688  1444579.87500000 1149712.87500000 
0.10500    42143648.00000000 26809636.00000000 67221752.00000000 12379.62304688  1400490.87500000 1114683.25000000 
0.10600    41155596.00000000 26188300.00000000 65654192.00000000 11944.80957031  1357478.12500000 1080504.62500000 
0.10700    40186236.00000000 25578764.00000000 64117132.00000000 11524.19628906  1315564.50000000 1047181.87500000 
0.10800    39235688.00000000 24980744.00000000 62608676.00000000 11117.39355469  1274724.50000000 1014716.25000000 
0.10900    38303584.00000000 24394180.00000000 61130200.00000000 10724.29687500  1234941.12500000 983087.25000000 
0.11000    37390608.00000000 23819276.00000000 59681104.00000000 10344.57617188  1196232.37500000 952297.06250000 
0.11100    36496068.00000000 23255674.00000000 58260800.00000000 9977.98339844   1158563.12500000 922327.43750000 
0.11200    35619940.00000000 22703678.00000000 56870164.00000000 9624.39160156   1121924.37500000 893173.87500000 
0.11300    34762508.00000000 22163054.00000000 55508200.00000000 9283.37207031   1086313.37500000 864828.18750000 
0.11400    33923316.00000000 21633674.00000000 54175056.00000000 8954.80175781   1051709.62500000 837280.62500000 
0.11500    33102480.00000000 21115560.00000000 52870476.00000000 8638.33691406   1018098.25000000 810514.81250000 
0.11600    32299296.00000000 20608632.00000000 51594536.00000000 8333.66210938   985470.25000000 784526.81250000 
0.11700    31514398.00000000 20112870.00000000 50346792.00000000 8040.57519531   953802.12500000 759302.18750000 
0.11800    30747020.00000000 19628002.00000000 49126852.00000000 7758.74169922   923086.43750000 734818.18750000 
0.11900    29997352.00000000 19154078.00000000 47934664.00000000 7487.80957031   893297.37500000 711078.75000000 
0.12000    29265042.00000000 18690988.00000000 46769720.00000000 7227.55126953   864430.18750000 688059.81250000 
0.12100    28549918.00000000 18238606.00000000 45632392.00000000 6977.72900391   836463.93750000 665759.93750000 
0.12200    27851864.00000000 17796888.00000000 44521736.00000000 6738.02099609   809375.62500000 644157.06250000 
0.12300    27170754.00000000 17365510.00000000 43437704.00000000 6508.08300781   783147.06250000 623235.37500000 
0.12400    26506192.00000000 16944534.00000000 42379768.00000000 6287.61962891   757771.37500000 602987.50000000 
0.12500    25857956.00000000 16533708.00000000 41347532.00000000 6076.32617188   733218.37500000 583390.87500000 
0.12600    25225954.00000000 16133113.00000000 40341096.00000000 5874.00585938   709486.25000000 564449.31250000 
0.12700    24609954.00000000 15742433.00000000 39359748.00000000 5680.23583984   686539.18750000 546126.43750000 
0.12800    24009530.00000000 15361330.00000000 38403144.00000000 5494.82324219   664364.50000000 528420.12500000 
0.12900    23424628.00000000 14990082.00000000 37470928.00000000 5317.45605469   642938.25000000 511311.25000000 
0.13000    22854772.00000000 14628262.00000000 36562772.00000000 5147.74755859   622254.81250000 494788.43750000 
0.13100    22299884.00000000 14275773.00000000 35678152.00000000 4985.54394531   602286.31250000 478833.96875000 
0.13200    21759544.00000000 13932458.00000000 34816728.00000000 4830.48779297   583011.18750000 463431.68750000 
0.13300    21233842.00000000 13598222.00000000 33978180.00000000 4682.36035156   564424.50000000 448570.53125000 
0.13400    20722106.00000000 13272807.00000000 33162050.00000000 4540.81738281   546489.06250000 434233.75000000 
0.13500    20224196.00000000 12956093.00000000 32367822.00000000 4405.60742188   529193.87500000 420405.68750000 
0.13600    19739932.00000000 12647952.00000000 31595162.00000000 4276.50341797   512522.96875000 407075.96875000 
0.13700    19269062.00000000 12348116.00000000 30843638.00000000 4153.22851562   496450.12500000 394223.40625000 
0.13800    18810980.00000000 12056455.00000000 30112676.00000000 4035.51586914   480965.15625000 381838.37500000 
0.13900    18365902.00000000 11772974.00000000 29402006.00000000 3923.11523438   466047.53125000 369905.00000000 
0.14000    17933078.00000000 11497195.00000000 28711152.00000000 3815.82397461   451677.68750000 358409.65625000 
0.14100    17512592.00000000 11229208.00000000 28039688.00000000 3713.36059570   437838.93750000 347336.28125000 
0.14200    17104006.00000000 10968709.00000000 27386972.00000000 3615.50024414   424509.65625000 336669.75000000 
0.14300    16706960.00000000 10715508.00000000 26753048.00000000 3522.04687500   411679.12500000 326401.56250000 
0.14400    16321278.00000000 10469505.00000000 26136874.00000000 3432.70703125   399320.93750000 316512.00000000 
0.14500    15946708.00000000 10230611.00000000 25538554.00000000 3347.34863281   387425.00000000 306992.84375000 
0.14600    15582990.00000000 9998511.00000000 24957332.00000000 3265.76171875   375976.87500000 297831.06250000 
0.14700    15229759.00000000 9773109.00000000 24392982.00000000 3187.73242188   364955.28125000 289006.53125000 
0.14800    14886725.00000000 9554153.00000000 23844838.00000000 3113.05175781   354342.50000000 280513.40625000 
0.14900    14553686.00000000 9341517.00000000 23312640.00000000 3041.51123047   344123.18750000 272335.34375000 
0.15000    14230324.00000000 9135061.00000000 22795830.00000000 2973.00854492   334287.62500000 264461.50000000 
0.15100    13916449.00000000 8934625.00000000 22294228.00000000 2907.32348633   324814.09375000 256881.60937500 
0.15200    13611786.00000000 8740105.00000000 21807122.00000000 2844.34448242   315695.62500000 249584.85937500 
0.15300    13316171.00000000 8551239.00000000 21334428.00000000 2783.83203125   306912.31250000 242555.12500000 
0.15400    13028952.00000000 8367831.50000000 20875470.00000000 2725.66650391   298447.90625000 235781.39062500 
0.15500    12750293.00000000 8189823.50000000 20429960.00000000 2669.72167969   290292.50000000 229258.09375000 
0.15600    12479756.00000000 8016982.00000000 19997498.00000000 2615.86962891   282429.78125000 222970.59375000 
0.15700    12217266.00000000 7849292.00000000 19577810.00000000 2563.97924805   274856.93750000 216909.92187500 
0.15800    11962201.00000000 7686446.50000000 19170120.00000000 2513.86840820   267548.18750000 211066.43750000 
0.15900    11714738.00000000 7528384.50000000 18774592.00000000 2465.49829102   260498.31250000 205428.37500000 
0.16000    11474394.00000000 7374924.00000000 18390478.00000000 2418.70068359   253693.42187500 199988.53125000 
0.16100    11241162.00000000 7225957.00000000 18017638.00000000 2373.45141602   247127.04687500 194738.67187500 
0.16200    11014612.00000000 7081273.50000000 17655464.00000000 2329.56225586   240781.45312500 189670.21875000 
0.16300    10794643.00000000 6940825.50000000 17303858.00000000 2286.97119141   234650.51562500 184770.64062500 
0.16400    10580956.00000000 6804448.00000000 16962372.00000000 2245.63305664   228724.78125000 180036.34375000 
0.16500    10373399.00000000 6671986.50000000 16630636.00000000 2205.42578125   222990.78125000 175456.17187500 
0.16600    10171718.00000000 6543331.50000000 16308530.00000000 2166.29663086   217442.23437500 171026.43750000 
0.16700    9975733.00000000 6418284.50000000 15995384.00000000 2128.13232422   212068.50000000 166735.40625000 
0.16800    9785267.00000000 6296797.50000000 15691071.00000000 2090.88525391   206858.26562500 162579.67187500 
0.16900    9600253.00000000 6178800.00000000 15395501.00000000 2054.57348633   201811.64062500 158552.20312500 
0.17000    9420252.00000000 6064087.00000000 15108021.00000000 2019.03283691   196913.45312500 154645.46875000 
