# SAXS profile: number of points = 501, q_min = 0, q_max = 0.5, delta_q = 0.001
#    q    intensity 
0.00000    162238256.00000000 101201400.00000000 256271776.00000000 94566.00781250  7833845.00000000 6187146.00000000 
0.00100    162216848.00000000 101188128.00000000 256237936.00000000 94548.21875000  7832565.00000000 6186169.50000000 
0.00200    162152176.00000000 101147592.00000000 256134608.00000000 94495.53125000  7828773.00000000 6183168.00000000 
0.00300    162042784.00000000 101080784.00000000 255963184.00000000 94407.68750000  7822490.50000000 6178248.00000000 
0.00400    161889760.00000000 100986624.00000000 255722656.00000000 94285.30468750  7813678.00000000 6171347.50000000 
0.00500    161692960.00000000 100865432.00000000 255414848.00000000 94127.46875000  7802361.00000000 6162440.50000000 
0.00600    161452288.00000000 100718136.00000000 255037792.00000000 93935.28906250  7788550.00000000 6151628.50000000 
0.00700    161168432.00000000 100544272.00000000 254594000.00000000 93708.75781250  7772281.50000000 6138853.00000000 
0.00800    160841328.00000000 100343544.00000000 254081152.00000000 93447.96093750  7753523.00000000 6124123.00000000 
0.00900    160472336.00000000 100116680.00000000 253503200.00000000 93153.32812500  7732308.50000000 6107501.00000000 
0.01000    160060768.00000000 99863832.00000000 252857728.00000000 92824.58593750  7708672.00000000 6088994.50000000 
0.01100    159605152.00000000 99585704.00000000 252145424.00000000 92462.65625000  7682620.50000000 6068552.50000000 
0.01200    159108912.00000000 99281456.00000000 251369856.00000000 92068.07031250  7654187.50000000 6046243.00000000 
0.01300    158570992.00000000 98952280.00000000 250528112.00000000 91640.53906250  7623422.00000000 6022092.00000000 
0.01400    157993760.00000000 98597224.00000000 249622544.00000000 91180.99218750  7590296.50000000 5996113.00000000 
0.01500    157376016.00000000 98218040.00000000 248653472.00000000 90690.24218750  7554864.50000000 5968308.50000000 
0.01600    156717920.00000000 97813608.00000000 247621520.00000000 90167.92187500  7517189.50000000 5938768.00000000 
0.01700    156020144.00000000 97385160.00000000 246527488.00000000 89614.78125000  7477258.00000000 5907439.50000000 
0.01800    155283328.00000000 96933096.00000000 245372896.00000000 89031.76562500  7435147.50000000 5874403.50000000 
0.01900    154507536.00000000 96457280.00000000 244157920.00000000 88419.75781250  7390842.00000000 5839633.50000000 
0.02000    153694224.00000000 95958096.00000000 242884384.00000000 87778.44531250  7344483.50000000 5803240.50000000 
0.02100    152844496.00000000 95436464.00000000 241552544.00000000 87109.22656250  7295976.00000000 5765196.50000000 
0.02200    151957776.00000000 94892256.00000000 240163200.00000000 86412.08593750  7245429.50000000 5725570.00000000 
0.02300    151037136.00000000 94326464.00000000 238718800.00000000 85688.05468750  7192920.00000000 5684348.50000000 
0.02400    150079632.00000000 93738400.00000000 237219088.00000000 84938.16406250  7138450.50000000 5641569.00000000 
0.02500    149088112.00000000 93129976.00000000 235664752.00000000 84162.94531250  7082092.00000000 5597368.00000000 
0.02600    148063408.00000000 92500496.00000000 234058320.00000000 83362.66406250  7023873.50000000 5551666.50000000 
0.02700    147005728.00000000 91851104.00000000 232401504.00000000 82538.92187500  6963838.00000000 5504546.50000000 
0.02800    145917312.00000000 91181864.00000000 230693968.00000000 81692.13281250  6902069.50000000 5456069.00000000 
0.02900    144797184.00000000 90493616.00000000 228937664.00000000 80822.97656250  6838608.00000000 5406246.50000000 
0.03000    143646512.00000000 89786984.00000000 227133392.00000000 79932.51562500  6773520.50000000 5355153.50000000 
0.03100    142466704.00000000 89061880.00000000 225284336.00000000 79021.59375000  6706826.00000000 5302813.00000000 
0.03200    141258288.00000000 88319584.00000000 223391264.00000000 78090.81250000  6638621.00000000 5249238.50000000 
0.03300    140023248.00000000 87559896.00000000 221453424.00000000 77141.26562500  6568950.50000000 5194523.50000000 
0.03400    138760512.00000000 86783952.00000000 219473440.00000000 76174.08593750  6497844.50000000 5138670.00000000 
0.03500    137472896.00000000 85992176.00000000 217453936.00000000 75189.65625000  6425406.00000000 5081807.00000000 
0.03600    136160336.00000000 85185288.00000000 215396224.00000000 74189.30468750  6351656.00000000 5023873.50000000 
0.03700    134823456.00000000 84363616.00000000 213299840.00000000 73174.00000000  6276682.50000000 4964994.50000000 
0.03800    133464896.00000000 83527744.00000000 211168256.00000000 72144.14062500  6200539.00000000 4905195.00000000 
0.03900    132084376.00000000 82678448.00000000 209002144.00000000 71100.91406250  6123286.00000000 4844501.50000000 
0.04000    130682776.00000000 81815768.00000000 206804064.00000000 70045.44531250  6044981.50000000 4782969.00000000 
0.04100    129261488.00000000 80941600.00000000 204573360.00000000 68978.71093750  5965710.00000000 4720688.00000000 
0.04200    127821784.00000000 80055408.00000000 202313264.00000000 67901.54687500  5885509.50000000 4657667.00000000 
0.04300    126363872.00000000 79157736.00000000 200026288.00000000 66814.57031250  5804437.00000000 4593956.00000000 
0.04400    124889488.00000000 78250632.00000000 197712016.00000000 65719.42187500  5722588.00000000 4529625.50000000 
0.04500    123398920.00000000 77332688.00000000 195373552.00000000 64616.30859375  5639975.50000000 4464701.50000000 
0.04600    121894688.00000000 76406040.00000000 193012112.00000000 63506.83593750  5556760.00000000 4399245.00000000 
0.04700    120375808.00000000 75470648.00000000 190627392.00000000 62391.46093750  5472860.50000000 4333333.00000000 
0.04800    118844416.00000000 74527384.00000000 188224432.00000000 61271.36328125  5388463.00000000 4266941.50000000 
0.04900    117302048.00000000 73576536.00000000 185802368.00000000 60147.29296875  5303566.50000000 4200212.00000000 
0.05000    115748944.00000000 72619296.00000000 183362256.00000000 59019.85546875  5218260.50000000 4133119.25000000 
0.05100    114186080.00000000 71656120.00000000 180908480.00000000 57890.83984375  5132617.50000000 4065754.75000000 
0.05200    112614728.00000000 70687392.00000000 178440944.00000000 56760.64843750  5046691.50000000 3998153.75000000 
0.05300    111035776.00000000 69714160.00000000 175962160.00000000 55630.13671875  4960507.00000000 3930349.50000000 
0.05400    109450432.00000000 68736208.00000000 173471200.00000000 54500.21875000  4874165.00000000 3862412.50000000 
0.05500    107859584.00000000 67754744.00000000 170971792.00000000 53371.38281250  4787708.50000000 3794377.25000000 
0.05600    106264200.00000000 66770084.00000000 168465552.00000000 52245.13671875  4701197.50000000 3726282.25000000 
0.05700    104665392.00000000 65783308.00000000 165953264.00000000 51122.12890625  4614694.50000000 3658190.25000000 
0.05800    103064280.00000000 64794292.00000000 163435872.00000000 50002.73437500  4528261.00000000 3590142.75000000 
0.05900    101460424.00000000 63804596.00000000 160916592.00000000 48888.21484375  4441966.00000000 3522188.75000000 
0.06000    99857048.00000000 62813948.00000000 158394912.00000000 47779.11718750  4355816.50000000 3454341.00000000 
0.06100    98253968.00000000 61823336.00000000 155874688.00000000 46676.23437500  4269923.00000000 3386696.00000000 
0.06200    96651872.00000000 60833244.00000000 153355808.00000000 45580.55468750  4184287.50000000 3319244.75000000 
0.06300    95051672.00000000 59844024.00000000 150839712.00000000 44492.55468750  4099022.00000000 3252065.50000000 
0.06400    93454624.00000000 58856576.00000000 148327104.00000000 43412.91796875  4014119.50000000 3185165.00000000 
0.06500    91861192.00000000 57871208.00000000 145821136.00000000 42342.49218750  3929681.25000000 3118608.75000000 
0.06600    90272968.00000000 56888320.00000000 143322048.00000000 41281.65625000  3845723.00000000 3052437.75000000 
0.06700    88690008.00000000 55908932.00000000 140831328.00000000 40231.11328125  3762288.00000000 2986662.50000000 
0.06800    87113640.00000000 54932888.00000000 138351360.00000000 39191.62890625  3679445.75000000 2921334.50000000 
0.06900    85544672.00000000 53961668.00000000 135881776.00000000 38163.79687500  3597245.25000000 2856500.50000000 
0.07000    83983096.00000000 52994360.00000000 133424000.00000000 37148.00000000  3515700.00000000 2792191.50000000 
0.07100    82431032.00000000 52032556.00000000 130980152.00000000 36145.00000000  3434869.00000000 2728430.25000000 
0.07200    80887856.00000000 51076296.00000000 128550360.00000000 35155.18359375  3354799.00000000 2665236.75000000 
0.07300    79355360.00000000 50126252.00000000 126136288.00000000 34178.99609375  3275525.75000000 2602674.50000000 
0.07400    77833336.00000000 49182420.00000000 123739528.00000000 33216.76953125  3197073.50000000 2540733.75000000 
0.07500    76323480.00000000 48245684.00000000 121360784.00000000 32269.20703125  3119502.50000000 2479485.50000000 
0.07600    74825760.00000000 47316144.00000000 119000312.00000000 31336.65429688  3042820.00000000 2418916.25000000 
0.07700    73340560.00000000 46394068.00000000 116660056.00000000 30419.34960938  2967061.00000000 2359102.75000000 
0.07800    71869440.00000000 45480496.00000000 114340456.00000000 29517.88867188  2892295.25000000 2300011.50000000 
0.07900    70411880.00000000 44575084.00000000 112043200.00000000 28632.30078125  2818512.50000000 2241709.25000000 
0.08000    68968752.00000000 43678460.00000000 109768096.00000000 27763.12695312  2745754.50000000 2184204.75000000 
0.08100    67541120.00000000 42791124.00000000 107516952.00000000 26910.49609375  2674035.25000000 2127512.00000000 
0.08200    66129752.00000000 41913228.00000000 105290320.00000000 26074.81054688  2603404.50000000 2071641.12500000 
0.08300    64734112.00000000 41044944.00000000 103088624.00000000 25256.14843750  2533859.00000000 2016639.62500000 
0.08400    63355364.00000000 40186808.00000000 100912944.00000000 24454.75976562  2465456.75000000 1962512.12500000 
0.08500    61993552.00000000 39339076.00000000 98763880.00000000 23670.97851562  2398158.50000000 1909270.87500000 
0.08600    60649524.00000000 38501724.00000000 96641696.00000000 22904.64062500  2332037.50000000 1856937.62500000 
0.08700    59323464.00000000 37675284.00000000 94548416.00000000 22156.03710938  2267101.75000000 1805519.75000000 
0.08800    58015596.00000000 36860064.00000000 92482432.00000000 21425.23437500  2203338.75000000 1755020.87500000 
0.08900    56726484.00000000 36056076.00000000 90446608.00000000 20712.36914062  2140791.50000000 1705467.00000000 
0.09000    55456308.00000000 35263436.00000000 88439760.00000000 20017.54687500  2079435.25000000 1656866.87500000 
0.09100    54205368.00000000 34482776.00000000 86462784.00000000 19340.60937500  2019328.87500000 1609216.62500000 
0.09200    52974052.00000000 33713616.00000000 84516064.00000000 18681.67773438  1960443.87500000 1562532.75000000 
0.09300    51762424.00000000 32956936.00000000 82600936.00000000 18040.75976562  1902804.87500000 1516828.00000000 
0.09400    50570984.00000000 32211710.00000000 80716496.00000000 17417.70312500  1846404.12500000 1472094.62500000 
0.09500    49399596.00000000 31479470.00000000 78864200.00000000 16812.52343750  1791263.62500000 1428332.75000000 
0.09600    48248732.00000000 30759344.00000000 77043200.00000000 16225.15136719  1737371.87500000 1385555.12500000 
0.09700    47118404.00000000 30051824.00000000 75253776.00000000 15655.54394531  1684736.75000000 1343762.37500000 
0.09800    46008840.00000000 29356700.00000000 73497936.00000000 15103.43554688  1633359.62500000 1302962.87500000 
0.09900    44919768.00000000 28674588.00000000 71773896.00000000 14568.70703125  1583241.50000000 1263143.50000000 
0.10000    43851944.00000000 28004914.00000000 70082360.00000000 14051.29882812  1534364.87500000 1224299.00000000 
0.10100    42805020.00000000 27348250.00000000 68423400.00000000 13550.88085938  1486739.12500000 1186437.00000000 
0.10200    41778844.00000000 26704396.00000000 66797460.00000000 13067.52343750  1440360.50000000 1149550.62500000 
0.10300    40773640.00000000 26073128.00000000 65204588.00000000 12600.75976562  1395214.25000000 1113633.87500000 
0.10400    39789600.00000000 25454882.00000000 63644484.00000000 12150.54882812  1351291.37500000 1078678.87500000 
0.10500    38826588.00000000 24849528.00000000 62117320.00000000 11716.51367188  1308600.62500000 1044691.00000000 
0.10600    37884396.00000000 24256996.00000000 60622672.00000000 11298.43847656  1267101.00000000 1011646.37500000 
0.10700    36963352.00000000 23677228.00000000 59160932.00000000 10896.11230469  1226816.50000000 979549.87500000 
0.10800    36062944.00000000 23110284.00000000 57731728.00000000 10509.18554688  1187711.62500000 948382.00000000 
0.10900    35183220.00000000 22555984.00000000 56335024.00000000 10137.39941406  1149780.25000000 918139.93750000 
0.11000    34324372.00000000 22014404.00000000 54970396.00000000 9780.49121094   1113011.50000000 888810.06250000 
0.11100    33485542.00000000 21485382.00000000 53638344.00000000 9438.17968750   1077391.50000000 860387.75000000 
0.11200    32667286.00000000 20968858.00000000 52337904.00000000 9109.98046875   1042890.62500000 832849.43750000 
0.11300    31869114.00000000 20464774.00000000 51069140.00000000 8795.66601562   1009509.18750000 806190.43750000 
0.11400    31091086.00000000 19972970.00000000 49831760.00000000 8494.99316406   977221.75000000 780396.37500000 
0.11500    30332710.00000000 19493602.00000000 48625704.00000000 8207.53125000   946013.93750000 755451.12500000 
0.11600    29594140.00000000 19026088.00000000 47450264.00000000 7932.86083984   915861.00000000 731342.06250000 
0.11700    28874742.00000000 18570514.00000000 46305432.00000000 7670.77246094   886760.43750000 708062.87500000 
0.11800    28174750.00000000 18126914.00000000 45190344.00000000 7420.75341797   858663.68750000 685581.75000000 
0.11900    27493456.00000000 17694870.00000000 44105540.00000000 7182.59521484   831572.00000000 663887.18750000 
0.12000    26830846.00000000 17274368.00000000 43049644.00000000 6955.80468750   805452.87500000 642970.18750000 
0.12100    26186744.00000000 16865404.00000000 42023036.00000000 6740.14843750   780304.12500000 622813.25000000 
0.12200    25560658.00000000 16467621.00000000 41024608.00000000 6535.15527344   756081.31250000 603396.12500000 
0.12300    24952370.00000000 16080907.00000000 40054328.00000000 6340.51171875   732779.12500000 584700.87500000 
0.12400    24361576.00000000 15704927.00000000 39111776.00000000 6155.78271484   710360.31250000 566713.87500000 
0.12500    23788040.00000000 15339807.00000000 38196284.00000000 5980.54150391   688809.87500000 549413.50000000 
0.12600    23231618.00000000 14985151.00000000 37307768.00000000 5814.66455078   668116.00000000 532787.25000000 
0.12700    22691682.00000000 14640842.00000000 36445352.00000000 5657.53417969   648234.81250000 516812.59375000 
0.12800    22167926.00000000 14306620.00000000 35608480.00000000 5508.92041016   629157.25000000 501471.28125000 
0.12900    21660166.00000000 13982380.00000000 34796888.00000000 5368.38183594   610851.93750000 486748.43750000 
0.13000    21168206.00000000 13667885.00000000 34009996.00000000 5235.63232422   593301.62500000 472624.84375000 
0.13100    20691262.00000000 13362868.00000000 33246948.00000000 5110.27197266   576474.06250000 459077.06250000 
0.13200    20229364.00000000 13067263.00000000 32507806.00000000 4991.93554688   560352.12500000 446094.03125000 
0.13300    19782186.00000000 12780702.00000000 31791572.00000000 4880.28515625   544917.31250000 433653.50000000 
0.13400    19349042.00000000 12503024.00000000 31098062.00000000 4775.02783203   530138.25000000 421740.50000000 
0.13500    18929834.00000000 12234156.00000000 30426408.00000000 4675.78857422   515995.28125000 410328.81250000 
0.13600    18524080.00000000 11973626.00000000 29776106.00000000 4582.19238281   502461.34375000 399409.31250000 
0.13700    18131586.00000000 11721546.00000000 29146836.00000000 4493.99902344   489518.81250000 388959.00000000 
0.13800    17751800.00000000 11477378.00000000 28537660.00000000 4410.85498047   477137.46875000 378961.03125000 
0.13900    17384670.00000000 11241058.00000000 27948468.00000000 4332.43750000   465303.18750000 369399.28125000 
0.14000    17029434.00000000 11012417.00000000 27378294.00000000 4258.47119141   453989.46875000 360256.50000000 
0.14100    16686067.00000000 10791092.00000000 26826970.00000000 4188.68505859   443175.68750000 351511.06250000 
0.14200    16354120.00000000 10577088.00000000 26293596.00000000 4122.71142578   432838.78125000 343152.50000000 
0.14300    16033017.00000000 10370005.00000000 25778028.00000000 4060.35278320   422956.40625000 335157.46875000 
0.14400    15722747.00000000 10169602.00000000 25278980.00000000 4001.25488281   413508.00000000 327510.81250000 
0.14500    15422712.00000000 9975755.00000000 24796600.00000000 3945.25976562   404475.75000000 320200.84375000 
0.14600    15132784.00000000 9788270.00000000 24330340.00000000 3892.08740234   395837.00000000 313207.31250000 
0.14700    14852490.00000000 9607001.00000000 23879354.00000000 3841.49731445   387574.62500000 306514.00000000 
0.14800    14581422.00000000 9431499.00000000 23443136.00000000 3793.19824219   379665.06250000 300110.93750000 
0.14900    14319329.00000000 9261720.00000000 23021318.00000000 3747.01586914   372090.75000000 293977.03125000 
0.15000    14065905.00000000 9097521.00000000 22613228.00000000 3702.72094727   364833.31250000 288101.46875000 
0.15100    13820838.00000000 8938573.00000000 22218284.00000000 3660.12841797   357875.78125000 282466.81250000 
0.15200    13583728.00000000 8784830.00000000 21836348.00000000 3619.08691406   351201.46875000 277066.21875000 
0.15300    13354340.00000000 8635937.00000000 21466716.00000000 3579.34277344   344791.78125000 271878.84375000 
0.15400    13132193.00000000 8491727.00000000 21108670.00000000 3540.70727539   338628.62500000 266892.84375000 
0.15500    12917213.00000000 8352130.50000000 20762046.00000000 3503.09838867   332702.81250000 262095.59375000 
0.15600    12708991.00000000 8216790.50000000 20426274.00000000 3466.27001953   326987.84375000 257477.03125000 
0.15700    12507205.00000000 8085699.50000000 20101078.00000000 3430.15283203   321481.25000000 253025.60937500 
0.15800    12311613.00000000 7958519.50000000 19785600.00000000 3394.55102539   316158.59375000 248725.82812500 
0.15900    12121955.00000000 7835193.50000000 19479688.00000000 3359.38964844   311013.84375000 244572.82812500 
0.16000    11937834.00000000 7715507.00000000 19182720.00000000 3324.51171875   306024.37500000 240550.42187500 
0.16100    11759249.00000000 7599358.50000000 18894686.00000000 3289.82592773   301189.59375000 236653.95312500 
0.16200    11585641.00000000 7486494.00000000 18614810.00000000 3255.25561523   296487.78125000 232867.57812500 
0.16300    11417016.00000000 7376827.00000000 18342710.00000000 3220.62915039   291913.71875000 229185.48437500 
0.16400    11252979.00000000 7270140.50000000 18078004.00000000 3185.95263672   287450.50000000 225599.70312500 
0.16500    11093279.00000000 7166307.50000000 17820658.00000000 3151.09765625   283091.56250000 222099.87500000 
0.16600    10937774.00000000 7065255.50000000 17569790.00000000 3116.03833008   278828.03125000 218679.15625000 
0.16700    10786146.00000000 6966722.00000000 17325272.00000000 3080.65527344   274645.90625000 215326.62500000 
0.16800    10638316.00000000 6870611.50000000 17086736.00000000 3044.93554688   270537.37500000 212038.51562500 
0.16900    10493972.00000000 6776896.00000000 16854290.00000000 3008.86987305   266500.34375000 208810.92187500 
0.17000    10352944.00000000 6685326.00000000 16626946.00000000 2972.35620117   262518.93750000 205631.25000000 
