# SAXS profile: number of points = 501, q_min = 0, q_max = 0.5, delta_q = 0.001
#    q    intensity 
0.00000    162233408.00000000 101202368.00000000 256270720.00000000 110035.84375000 8450362.00000000 6674061.50000000 
0.00100    162196544.00000000 101177368.00000000 256207856.00000000 109999.57031250 8447900.00000000 6672128.50000000 
0.00200    162082128.00000000 101103272.00000000 256020880.00000000 109892.31250000 8440539.00000000 6666363.00000000 
0.00300    161884384.00000000 100979288.00000000 255705104.00000000 109712.28125000 8428292.00000000 6656782.50000000 
0.00400    161604080.00000000 100807080.00000000 255265872.00000000 109461.10937500 8411270.00000000 6643292.00000000 
0.00500    161244032.00000000 100585512.00000000 254703040.00000000 109139.40625000 8389392.00000000 6626089.50000000 
0.00600    160805776.00000000 100314312.00000000 254015520.00000000 108747.85937500 8362742.00000000 6605116.00000000 
0.00700    160289136.00000000 99998048.00000000 253208336.00000000 108287.86718750 8331364.50000000 6580420.50000000 
0.00800    159696384.00000000 99633360.00000000 252280496.00000000 107759.20312500 8295346.00000000 6552092.00000000 
0.00900    159030576.00000000 99222672.00000000 251232608.00000000 107163.48437500 8254755.50000000 6520149.00000000 
0.01000    158290736.00000000 98766008.00000000 250069008.00000000 106503.96093750 8209674.50000000 6484726.00000000 
0.01100    157479264.00000000 98262768.00000000 248790304.00000000 105779.38281250 8160238.00000000 6445790.00000000 
0.01200    156594032.00000000 97716408.00000000 247399040.00000000 104993.32812500 8106469.50000000 6403515.00000000 
0.01300    155638288.00000000 97126904.00000000 245899088.00000000 104146.71093750 8048570.50000000 6357910.00000000 
0.01400    154615264.00000000 96494840.00000000 244291984.00000000 103242.35156250 7986623.00000000 6309146.50000000 
0.01500    153526912.00000000 95822632.00000000 242580416.00000000 102281.44531250 7920713.50000000 6257275.50000000 
0.01600    152373696.00000000 95110232.00000000 240767248.00000000 101266.57812500 7851009.00000000 6202445.50000000 
0.01700    151157952.00000000 94359792.00000000 238855792.00000000 100200.43750000 7777711.00000000 6144725.50000000 
0.01800    149882816.00000000 93571336.00000000 236852672.00000000 99083.86718750  7700853.00000000 6084233.00000000 
0.01900    148550064.00000000 92748144.00000000 234756464.00000000 97920.77343750  7620658.00000000 6021131.00000000 
0.02000    147160960.00000000 91889664.00000000 232572768.00000000 96713.71093750  7537296.00000000 5955455.50000000 
0.02100    145718848.00000000 90998928.00000000 230306608.00000000 95464.78906250  7450899.00000000 5887446.50000000 
0.02200    144227392.00000000 90076256.00000000 227958672.00000000 94176.50000000  7361644.50000000 5817193.50000000 
0.02300    142687424.00000000 89123768.00000000 225537200.00000000 92852.03125000  7269658.50000000 5744786.00000000 
0.02400    141101520.00000000 88143168.00000000 223042496.00000000 91493.76562500  7175221.50000000 5670384.50000000 
0.02500    139472144.00000000 87135248.00000000 220481712.00000000 90104.68750000  7078422.50000000 5594208.50000000 
0.02600    137804368.00000000 86103424.00000000 217856560.00000000 88688.22656250  6979463.00000000 5516209.00000000 
0.02700    136097280.00000000 85047272.00000000 215173088.00000000 87245.87500000  6878554.50000000 5436729.50000000 
0.02800    134356240.00000000 83969712.00000000 212433824.00000000 85781.42968750  6775831.00000000 5355822.50000000 
0.02900    132584784.00000000 82872152.00000000 209642464.00000000 84296.98437500  6671473.00000000 5273635.50000000 
0.03000    130782784.00000000 81756288.00000000 206806960.00000000 82796.70312500  6565721.00000000 5190284.00000000 
0.03100    128954384.00000000 80624144.00000000 203930288.00000000 81282.28906250  6458708.00000000 5105987.00000000 
0.03200    127102856.00000000 79476576.00000000 201013680.00000000 79756.30468750  6350606.00000000 5020768.00000000 
0.03300    125230400.00000000 78316224.00000000 198065136.00000000 78221.48437500  6241628.00000000 4934890.50000000 
0.03400    123339952.00000000 77144704.00000000 195088272.00000000 76681.50000000  6131941.00000000 4848496.50000000 
0.03500    121433232.00000000 75963784.00000000 192088320.00000000 75138.28125000  6021708.00000000 4761602.50000000 
0.03600    119514192.00000000 74773024.00000000 189064784.00000000 73594.13281250  5911113.00000000 4674447.00000000 
0.03700    117585664.00000000 73577016.00000000 186025104.00000000 72052.45312500  5800325.50000000 4587073.50000000 
0.03800    115649856.00000000 72374936.00000000 182975888.00000000 70514.35937500  5689468.00000000 4499682.50000000 
0.03900    113708392.00000000 71170352.00000000 179917472.00000000 68982.65625000  5578677.50000000 4412323.50000000 
0.04000    111764912.00000000 69963336.00000000 176854272.00000000 67459.80468750  5468225.50000000 4325203.00000000 
0.04100    109821256.00000000 68756464.00000000 173791568.00000000 65947.41406250  5358185.00000000 4238387.00000000 
0.04200    107880656.00000000 67550880.00000000 170732400.00000000 64447.99218750  5248667.50000000 4152008.50000000 
0.04300    105944856.00000000 66347808.00000000 167679744.00000000 62963.19921875  5139852.50000000 4066188.50000000 
0.04400    104015528.00000000 65148832.00000000 164638368.00000000 61494.88671875  5031877.50000000 3980989.25000000 
0.04500    102096256.00000000 63955772.00000000 161609920.00000000 60044.88671875  4924845.00000000 3896538.00000000 
0.04600    100187920.00000000 62768716.00000000 158599696.00000000 58614.69531250  4818892.50000000 3812910.50000000 
0.04700    98292200.00000000 61589404.00000000 155609952.00000000 57205.89453125  4714098.50000000 3730208.50000000 
0.04800    96412160.00000000 60419512.00000000 152644448.00000000 55819.61718750  4610572.00000000 3648525.25000000 
0.04900    94550120.00000000 59259928.00000000 149704560.00000000 54457.01171875  4508491.50000000 3567910.25000000 
0.05000    92705640.00000000 58112080.00000000 146794304.00000000 53119.58203125  4407833.50000000 3488468.75000000 
0.05100    90881752.00000000 56976072.00000000 143916656.00000000 51808.05078125  4308735.00000000 3410222.00000000 
0.05200    89079688.00000000 55853496.00000000 141072080.00000000 50522.90625000  4211308.00000000 3333262.25000000 
0.05300    87301072.00000000 54745224.00000000 138263744.00000000 49265.88281250  4115564.50000000 3257683.50000000 
0.05400    85547840.00000000 53652264.00000000 135495696.00000000 48036.72656250  4021573.25000000 3183454.75000000 
0.05500    83819848.00000000 52574888.00000000 132767536.00000000 46836.37890625  3929418.25000000 3110659.50000000 
0.05600    82119584.00000000 51514796.00000000 130080904.00000000 45665.32421875  3839103.75000000 3039326.75000000 
0.05700    80447112.00000000 50471676.00000000 127439800.00000000 44523.90625000  3750736.50000000 2969501.00000000 
0.05800    78802928.00000000 49446108.00000000 124843072.00000000 43411.90234375  3664282.75000000 2901230.00000000 
0.05900    77190080.00000000 48439548.00000000 122294320.00000000 42329.69531250  3579815.50000000 2834480.75000000 
0.06000    75607608.00000000 47451460.00000000 119792568.00000000 41277.71875000  3497378.25000000 2769324.50000000 
0.06100    74055760.00000000 46482588.00000000 117341504.00000000 40255.10937500  3416888.00000000 2705756.50000000 
0.06200    72536192.00000000 45534116.00000000 114940264.00000000 39262.36718750  3338452.50000000 2643765.75000000 
0.06300    71049160.00000000 44605440.00000000 112589880.00000000 38298.51562500  3262043.50000000 2583366.25000000 
0.06400    69594784.00000000 43696844.00000000 110290480.00000000 37364.12500000  3187651.25000000 2524570.00000000 
0.06500    68173464.00000000 42809140.00000000 108044352.00000000 36457.81250000  3115245.75000000 2467361.75000000 
0.06600    66784948.00000000 41942048.00000000 105849392.00000000 35580.38671875  3044842.50000000 2411721.25000000 
0.06700    65430496.00000000 41095140.00000000 103706960.00000000 34729.67968750  2976439.25000000 2357646.25000000 
0.06800    64108560.00000000 40268972.00000000 101618072.00000000 33906.47656250  2909989.50000000 2305113.50000000 
0.06900    62820672.00000000 39464044.00000000 99580832.00000000 33109.67187500  2845484.75000000 2254129.50000000 
0.07000    61565464.00000000 38679732.00000000 97597312.00000000 32338.42773438  2782840.25000000 2204607.25000000 
0.07100    60343536.00000000 37916340.00000000 95665416.00000000 31591.87890625  2722108.00000000 2156589.50000000 
0.07200    59154116.00000000 37172756.00000000 93785136.00000000 30870.06054688  2663161.25000000 2110015.00000000 
0.07300    57997304.00000000 36450248.00000000 91955640.00000000 30171.41601562  2606024.00000000 2064862.87500000 
0.07400    56872636.00000000 35747700.00000000 90178016.00000000 29495.31250000  2550636.75000000 2021099.50000000 
0.07500    55779152.00000000 35064776.00000000 88450416.00000000 28841.12500000  2496942.50000000 1978674.37500000 
0.07600    54717144.00000000 34401312.00000000 86772136.00000000 28207.24609375  2444892.75000000 1937541.12500000 
0.07700    53686340.00000000 33757640.00000000 85142120.00000000 27593.85937500  2394428.75000000 1897684.12500000 
0.07800    52684660.00000000 33132840.00000000 83559312.00000000 26999.52734375  2345551.25000000 1859045.37500000 
0.07900    51713108.00000000 32526478.00000000 82024240.00000000 26423.44531250  2298128.00000000 1821612.12500000 
0.08000    50769832.00000000 31938158.00000000 80534440.00000000 25864.77539062  2252168.75000000 1785319.00000000 
0.08100    49855312.00000000 31367562.00000000 79089336.00000000 25322.64257812  2207616.25000000 1750118.87500000 
0.08200    48967624.00000000 30814184.00000000 77687696.00000000 24796.34570312  2164362.25000000 1715966.87500000 
0.08300    48106700.00000000 30277848.00000000 76327872.00000000 24284.86718750  2122397.50000000 1682834.37500000 
0.08400    47271628.00000000 29757924.00000000 75010216.00000000 23787.39843750  2081666.25000000 1650684.25000000 
0.08500    46461408.00000000 29253962.00000000 73732304.00000000 23303.33007812  2042091.75000000 1619439.12500000 
0.08600    45675636.00000000 28765308.00000000 72492400.00000000 22831.67773438  2003606.12500000 1589089.12500000 
0.08700    44913368.00000000 28291296.00000000 71290888.00000000 22371.97460938  1966214.62500000 1559580.50000000 
0.08800    44173936.00000000 27831854.00000000 70124696.00000000 21923.33203125  1929813.12500000 1530868.87500000 
0.08900    43455896.00000000 27386524.00000000 68994104.00000000 21484.99218750  1894368.50000000 1502902.37500000 
0.09000    42759640.00000000 26954360.00000000 67896336.00000000 21056.61718750  1859848.12500000 1475671.75000000 
0.09100    42082980.00000000 26535026.00000000 66830716.00000000 20637.11328125  1826157.87500000 1449101.25000000 
0.09200    41426112.00000000 26128124.00000000 65796948.00000000 20226.49218750  1793285.25000000 1423187.75000000 
0.09300    40787584.00000000 25732996.00000000 64792208.00000000 19823.81250000  1761173.75000000 1397882.75000000 
0.09400    40166580.00000000 25349226.00000000 63816036.00000000 19428.89062500  1729774.75000000 1373125.75000000 
0.09500    39562892.00000000 24976372.00000000 62866392.00000000 19040.63476562  1699052.37500000 1348924.25000000 
0.09600    38975288.00000000 24613616.00000000 61943024.00000000 18659.42968750  1668981.75000000 1325212.12500000 
0.09700    38403456.00000000 24260854.00000000 61044704.00000000 18284.55078125  1639500.87500000 1301972.62500000 
0.09800    37845952.00000000 23917414.00000000 60168984.00000000 17915.66210938  1610585.25000000 1279187.87500000 
0.09900    37302760.00000000 23582926.00000000 59316096.00000000 17552.41992188  1582207.00000000 1256827.62500000 
0.10000    36772028.00000000 23256784.00000000 58484416.00000000 17194.29882812  1554308.50000000 1234840.37500000 
0.10100    36254692.00000000 22938634.00000000 57672380.00000000 16841.48828125  1526881.62500000 1213215.75000000 
0.10200    35748904.00000000 22627784.00000000 56879416.00000000 16493.49609375  1499900.50000000 1191948.25000000 
0.10300    35254152.00000000 22324354.00000000 56103932.00000000 16150.35449219  1473318.87500000 1170999.12500000 
0.10400    34770360.00000000 22027610.00000000 55345900.00000000 15811.51562500  1447136.75000000 1150362.50000000 
0.10500    34296488.00000000 21736930.00000000 54603416.00000000 15477.42089844  1421332.00000000 1129996.00000000 
0.10600    33831716.00000000 21452466.00000000 53876028.00000000 15147.54492188  1395860.50000000 1109915.37500000 
0.10700    33376380.00000000 21173586.00000000 53162620.00000000 14822.01660156  1370724.37500000 1090079.25000000 
0.10800    32928996.00000000 20899784.00000000 52462940.00000000 14500.66992188  1345908.62500000 1070497.50000000 
0.10900    32489528.00000000 20631012.00000000 51774972.00000000 14183.49902344  1321381.37500000 1051151.75000000 
0.11000    32057328.00000000 20366666.00000000 51098692.00000000 13870.41796875  1297150.87500000 1032011.75000000 
0.11100    31632362.00000000 20106742.00000000 50433796.00000000 13561.70605469  1273203.37500000 1013093.31250000 
0.11200    31213830.00000000 19850786.00000000 49778692.00000000 13257.13867188  1249508.50000000 994380.37500000 
0.11300    30801386.00000000 19598472.00000000 49133460.00000000 12956.78125000  1226079.62500000 975864.25000000 
0.11400    30394698.00000000 19349882.00000000 48496904.00000000 12660.70898438  1202928.00000000 957551.31250000 
0.11500    29993344.00000000 19104462.00000000 47869224.00000000 12369.04589844  1180016.50000000 939423.75000000 
0.11600    29597250.00000000 18862212.00000000 47249364.00000000 12081.75097656  1157338.62500000 921486.87500000 
0.11700    29205796.00000000 18622726.00000000 46636712.00000000 11798.90234375  1134905.25000000 903730.12500000 
0.11800    28818912.00000000 18385952.00000000 46030876.00000000 11520.57812500  1112723.87500000 886159.00000000 
0.11900    28436116.00000000 18151602.00000000 45431564.00000000 11246.82617188  1090773.37500000 868777.06250000 
0.12000    28057428.00000000 17919470.00000000 44838496.00000000 10977.79687500  1069065.87500000 851562.18750000 
0.12100    27682706.00000000 17689714.00000000 44251312.00000000 10713.49316406  1047608.81250000 834535.93750000 
0.12200    27311482.00000000 17461956.00000000 43669000.00000000 10453.90234375  1026379.81250000 817707.31250000 
0.12300    26943570.00000000 17236060.00000000 43092484.00000000 10199.33300781  1005403.93750000 801053.81250000 
0.12400    26579196.00000000 17012174.00000000 42520620.00000000 9949.49902344   984679.06250000 784590.75000000 
0.12500    26217668.00000000 16789844.00000000 41953500.00000000 9704.69140625   964193.12500000 768320.56250000 
0.12600    25859484.00000000 16569278.00000000 41390700.00000000 9465.00000000   943972.37500000 752238.87500000 
0.12700    25503990.00000000 16350173.00000000 40832348.00000000 9230.21093750   923997.43750000 736350.75000000 
0.12800    25151420.00000000 16132566.00000000 40278520.00000000 9000.48046875   904287.43750000 720662.18750000 
0.12900    24801602.00000000 15916511.00000000 39728488.00000000 8775.91210938   884833.50000000 705176.00000000 
0.13000    24454448.00000000 15701805.00000000 39181772.00000000 8556.37890625   865648.06250000 689894.37500000 
0.13100    24110016.00000000 15488376.00000000 38639472.00000000 8341.95117188   846726.81250000 674821.43750000 
0.13200    23768084.00000000 15276428.00000000 38100616.00000000 8132.57568359   828080.81250000 659956.18750000 
0.13300    23428744.00000000 15065768.00000000 37565780.00000000 7928.22314453   809711.75000000 645299.31250000 
0.13400    23091766.00000000 14856374.00000000 37034420.00000000 7728.98144531   791610.12500000 630861.25000000 
0.13500    22757460.00000000 14648271.00000000 36506592.00000000 7534.64160156   773789.43750000 616637.25000000 
0.13600    22425718.00000000 14441493.00000000 35982700.00000000 7345.28027344   756258.87500000 602630.25000000 
0.13700    22096470.00000000 14236129.00000000 35462192.00000000 7160.74218750   739002.81250000 588844.50000000 
0.13800    21769540.00000000 14031925.00000000 34945516.00000000 6980.96386719   722033.68750000 575282.81250000 
0.13900    21445566.00000000 13829020.00000000 34432600.00000000 6805.98193359   705349.68750000 561948.68750000 
0.14000    21123724.00000000 13627587.00000000 33922856.00000000 6635.57519531   688949.25000000 548837.12500000 
0.14100    20804438.00000000 13427363.00000000 33417206.00000000 6469.66796875   672841.81250000 535945.81250000 
0.14200    20487940.00000000 13228581.00000000 32915188.00000000 6308.21386719   657013.50000000 523285.31250000 
0.14300    20173912.00000000 13031089.00000000 32417264.00000000 6151.09228516   641481.00000000 510849.43750000 
0.14400    19862554.00000000 12835055.00000000 31922890.00000000 5998.16162109   626225.25000000 498637.96875000 
0.14500    19553806.00000000 12640557.00000000 31432878.00000000 5849.29248047   611261.31250000 486649.15625000 
0.14600    19248054.00000000 12447398.00000000 30946796.00000000 5704.48486328   596582.31250000 474892.21875000 
0.14700    18944866.00000000 12255890.00000000 30464690.00000000 5563.44189453   582181.43750000 463358.15625000 
0.14800    18644450.00000000 12065748.00000000 29986560.00000000 5426.17236328   568059.31250000 452047.75000000 
0.14900    18346968.00000000 11877310.00000000 29513024.00000000 5292.38769531   554220.43750000 440950.43750000 
0.15000    18052064.00000000 11690556.00000000 29043512.00000000 5162.16650391   540649.12500000 430082.03125000 
0.15100    17760374.00000000 11505235.00000000 28578456.00000000 5035.22070312   527352.87500000 419422.78125000 
0.15200    17471752.00000000 11321783.00000000 28117956.00000000 4911.57470703   514326.21875000 408983.96875000 
0.15300    17185676.00000000 11139925.00000000 27662020.00000000 4790.95703125   501562.78125000 398755.34375000 
0.15400    16902850.00000000 10959774.00000000 27210298.00000000 4673.26708984   489065.75000000 388735.46875000 
0.15500    16623079.00000000 10781455.00000000 26763634.00000000 4558.49218750   476822.56250000 378925.00000000 
0.15600    16346277.00000000 10604860.00000000 26321508.00000000 4446.37841797   464838.28125000 369316.46875000 
0.15700    16072695.00000000 10430205.00000000 25884216.00000000 4336.89062500   453101.50000000 359916.68750000 
0.15800    15802152.00000000 10257320.00000000 25451534.00000000 4229.90332031   441608.65625000 350706.18750000 
0.15900    15534728.00000000 10086395.00000000 25024002.00000000 4125.31640625   430361.31250000 341691.93750000 
0.16000    15270636.00000000 9917365.00000000 24601454.00000000 4023.00219727   419347.96875000 332870.78125000 
0.16100    15009696.00000000 9750253.00000000 24183908.00000000 3922.97436523   408571.87500000 324241.65625000 
0.16200    14752031.00000000 9585137.00000000 23771354.00000000 3825.04736328   398022.31250000 315791.06250000 
0.16300    14497613.00000000 9422025.00000000 23363660.00000000 3729.15161133   387699.56250000 307526.00000000 
0.16400    14246564.00000000 9260868.00000000 22961380.00000000 3635.23828125   377598.84375000 299439.75000000 
0.16500    13998787.00000000 9101755.00000000 22564402.00000000 3543.21044922   367711.84375000 291525.78125000 
0.16600    13754215.00000000 8944551.00000000 22172374.00000000 3453.04931641   358039.31250000 283784.96875000 
0.16700    13513069.00000000 8789702.00000000 21785850.00000000 3364.64746094   348575.87500000 276210.81250000 
0.16800    13275292.00000000 8636627.00000000 21404286.00000000 3277.98999023   339312.31250000 268801.59375000 
0.16900    13040880.00000000 8485886.00000000 21028430.00000000 3193.07592773   330251.87500000 261560.39062500 
0.17000    12809791.00000000 8337098.50000000 20657642.00000000 3109.77441406   321385.03125000 254469.92187500 
