# SAXS profile: number of points = 501, q_min = 0, q_max = 0.5, delta_q = 0.001
#    q    intensity 
0.00000    162230672.00000000 101202528.00000000 256268400.00000000 116184.94531250 8683316.00000000 6857979.00000000 
0.00100    162183472.00000000 101169672.00000000 256188096.00000000 116139.43750000 8680172.00000000 6855555.00000000 
0.00200    162035808.00000000 101073600.00000000 255944480.00000000 116004.03125000 8670841.00000000 6848240.50000000 
0.00300    161779808.00000000 100913456.00000000 255536528.00000000 115778.03906250 8655319.00000000 6836010.00000000 
0.00400    161414976.00000000 100690208.00000000 254968144.00000000 115462.72656250 8633682.00000000 6818934.00000000 
0.00500    160946880.00000000 100400760.00000000 254235664.00000000 115058.48437500 8605856.00000000 6797089.00000000 
0.00600    160381776.00000000 100051968.00000000 253347776.00000000 114567.07812500 8572055.00000000 6770502.00000000 
0.00700    159708560.00000000 99642232.00000000 252302864.00000000 113989.03125000 8532304.00000000 6739209.50000000 
0.00800    158946080.00000000 99171536.00000000 251102688.00000000 113326.91406250 8486646.00000000 6703359.50000000 
0.00900    158086464.00000000 98641568.00000000 249749408.00000000 112582.64843750 8435375.00000000 6663031.00000000 
0.01000    157134640.00000000 98052048.00000000 248249648.00000000 111757.50000000 8378467.50000000 6618303.00000000 
0.01100    156086352.00000000 97406160.00000000 246604448.00000000 110853.10937500 8316163.50000000 6569195.50000000 
0.01200    154947296.00000000 96702384.00000000 244817376.00000000 109874.24218750 8248563.00000000 6516027.50000000 
0.01300    153722992.00000000 95947352.00000000 242894656.00000000 108821.57812500 8175800.50000000 6458802.50000000 
0.01400    152415648.00000000 95139920.00000000 240836928.00000000 107699.42187500 8098219.00000000 6397697.00000000 
0.01500    151024800.00000000 94280880.00000000 238652960.00000000 106508.38281250 8015796.50000000 6332892.00000000 
0.01600    149556768.00000000 93374216.00000000 236345120.00000000 105254.34375000 7928911.50000000 6264475.00000000 
0.01700    148012320.00000000 92420224.00000000 233917696.00000000 103939.60937500 7837650.50000000 6192670.50000000 
0.01800    146396896.00000000 91422672.00000000 231379040.00000000 102567.51562500 7742348.50000000 6117611.00000000 
0.01900    144712384.00000000 90383424.00000000 228732192.00000000 101140.85937500 7643147.50000000 6039583.50000000 
0.02000    142964464.00000000 89302472.00000000 225982576.00000000 99664.05468750  7540350.00000000 5958637.00000000 
0.02100    141156176.00000000 88184784.00000000 223137296.00000000 98141.37500000  7434150.00000000 5875059.50000000 
0.02200    139289712.00000000 87030776.00000000 220201824.00000000 96574.98437500  7324783.00000000 5788931.50000000 
0.02300    137371568.00000000 85844032.00000000 217185312.00000000 94970.39062500  7212550.00000000 5700600.00000000 
0.02400    135402240.00000000 84626248.00000000 214088832.00000000 93330.48437500  7097684.00000000 5610125.50000000 
0.02500    133388680.00000000 83381072.00000000 210922720.00000000 91659.49218750  6980395.50000000 5517812.50000000 
0.02600    131335504.00000000 82110640.00000000 207689824.00000000 89960.80468750  6861032.00000000 5423792.50000000 
0.02700    129245216.00000000 80815856.00000000 204401088.00000000 88239.40625000  6739801.50000000 5328275.00000000 
0.02800    127120984.00000000 79500840.00000000 201060000.00000000 86497.83593750  6616947.50000000 5231517.50000000 
0.02900    124970392.00000000 78167832.00000000 197671664.00000000 84741.34375000  6492777.00000000 5133659.00000000 
0.03000    122793896.00000000 76820232.00000000 194246464.00000000 82971.79687500  6367489.50000000 5034975.00000000 
0.03100    120596136.00000000 75459824.00000000 190787792.00000000 81194.68750000  6241362.00000000 4935585.50000000 
0.03200    118382704.00000000 74088432.00000000 187302720.00000000 79412.71875000  6114620.00000000 4835756.00000000 
0.03300    116157736.00000000 72708136.00000000 183798304.00000000 77629.98437500  5987551.50000000 4735574.50000000 
0.03400    113923928.00000000 71323328.00000000 180279600.00000000 75848.51562500  5860283.00000000 4635292.00000000 
0.03500    111684952.00000000 69934032.00000000 176752144.00000000 74072.82812500  5733123.00000000 4535015.50000000 
0.03600    109445280.00000000 68543880.00000000 173223536.00000000 72305.32031250  5606302.50000000 4435039.50000000 
0.03700    107208864.00000000 67154816.00000000 169698896.00000000 70549.87500000  5480019.50000000 4335478.00000000 
0.03800    104978160.00000000 65770072.00000000 166183216.00000000 68808.58593750  5354466.50000000 4236480.50000000 
0.03900    102758752.00000000 64390848.00000000 162683968.00000000 67085.61718750  5229872.50000000 4138174.25000000 
0.04000    100551904.00000000 63019372.00000000 159203904.00000000 65381.27734375  5106415.50000000 4040787.25000000 
0.04100    98360752.00000000 61657560.00000000 155749392.00000000 63699.21484375  4984216.00000000 3944410.00000000 
0.04200    96189408.00000000 60307816.00000000 152324704.00000000 62042.40625000  4863548.50000000 3849180.75000000 
0.04300    94040352.00000000 58970892.00000000 148934224.00000000 60412.38281250  4744482.00000000 3755228.75000000 
0.04400    91916800.00000000 57649672.00000000 145585472.00000000 58810.45703125  4627178.00000000 3662673.50000000 
0.04500    89820944.00000000 56345020.00000000 142279440.00000000 57239.26562500  4511812.00000000 3571592.50000000 
0.04600    87755680.00000000 55059068.00000000 139018320.00000000 55699.94921875  4398474.00000000 3482145.00000000 
0.04700    85723536.00000000 53792692.00000000 135810080.00000000 54193.94921875  4287332.00000000 3394393.50000000 
0.04800    83725808.00000000 52547516.00000000 132657224.00000000 52722.05468750  4178386.25000000 3308374.75000000 
0.04900    81764528.00000000 51325528.00000000 129560072.00000000 51286.00781250  4071848.25000000 3224232.75000000 
0.05000    79843024.00000000 50126796.00000000 126524064.00000000 49886.76562500  3967723.50000000 3141995.50000000 
0.05100    77960656.00000000 48953048.00000000 123552360.00000000 48524.60156250  3866081.75000000 3061739.75000000 
0.05200    76120168.00000000 47805560.00000000 120645248.00000000 47200.07031250  3767025.50000000 2983480.75000000 
0.05300    74323640.00000000 46683816.00000000 117806200.00000000 45913.50390625  3670608.50000000 2907273.75000000 
0.05400    72570808.00000000 45590140.00000000 115037144.00000000 44665.59765625  3576828.75000000 2833167.75000000 
0.05500    70862992.00000000 44524216.00000000 112339240.00000000 43456.27343750  3485716.75000000 2761186.75000000 
0.05600    69203008.00000000 43486764.00000000 109713240.00000000 42285.59765625  3397307.50000000 2691308.75000000 
0.05700    67588824.00000000 42478900.00000000 107162600.00000000 41152.92187500  3311620.25000000 2623589.25000000 
0.05800    66022096.00000000 41499632.00000000 104685192.00000000 40058.64453125  3228639.50000000 2557974.00000000 
0.05900    64503304.00000000 40550608.00000000 102284152.00000000 39002.11328125  3148348.00000000 2494496.50000000 
0.06000    63032452.00000000 39631236.00000000 99959176.00000000 37982.05859375  3070755.75000000 2433150.75000000 
0.06100    61610332.00000000 38741672.00000000 97709360.00000000 36998.61718750  2995800.50000000 2373915.00000000 
0.06200    60235836.00000000 37882520.00000000 95536296.00000000 36051.05078125  2923514.00000000 2316740.00000000 
0.06300    58908988.00000000 37053348.00000000 93438344.00000000 35139.05468750  2853795.25000000 2261605.00000000 
0.06400    57630016.00000000 36253712.00000000 91415152.00000000 34260.53125000  2786619.75000000 2208502.00000000 
0.06500    56398368.00000000 35483720.00000000 89468256.00000000 33415.73046875  2721966.25000000 2157334.75000000 
0.06600    55213140.00000000 34743184.00000000 87594000.00000000 32602.47070312  2659705.25000000 2108139.50000000 
0.06700    54074120.00000000 34031192.00000000 85793224.00000000 31821.01757812  2599877.75000000 2060800.50000000 
0.06800    52980548.00000000 33347904.00000000 84063768.00000000 31069.10937500  2542323.75000000 2015304.75000000 
0.06900    51931292.00000000 32692830.00000000 82405312.00000000 30346.07226562  2487029.00000000 1971575.50000000 
0.07000    50926252.00000000 32064828.00000000 80816456.00000000 29651.19726562  2433883.25000000 1929556.50000000 
0.07100    49962724.00000000 31463516.00000000 79294504.00000000 28982.70117188  2382866.00000000 1889215.25000000 
0.07200    49041376.00000000 30888920.00000000 77838016.00000000 28339.58984375  2333850.00000000 1850463.00000000 
0.07300    48159820.00000000 30339080.00000000 76447000.00000000 27720.56445312  2286767.75000000 1813238.37500000 
0.07400    47317852.00000000 29814636.00000000 75117304.00000000 27124.79492188  2241571.75000000 1777514.25000000 
0.07500    46513976.00000000 29313922.00000000 73847600.00000000 26550.89843750  2198135.00000000 1743163.00000000 
0.07600    45745844.00000000 28836472.00000000 72636912.00000000 25997.20117188  2156372.25000000 1710171.62500000 
0.07700    45013556.00000000 28381342.00000000 71481784.00000000 25463.40625000  2116215.00000000 1678464.87500000 
0.07800    44315112.00000000 27947720.00000000 70381160.00000000 24948.00585938  2077624.75000000 1647963.37500000 
0.07900    43648868.00000000 27535090.00000000 69332296.00000000 24449.65039062  2040446.12500000 1618602.12500000 
0.08000    43014204.00000000 27142006.00000000 68333448.00000000 23967.77148438  2004654.25000000 1590330.37500000 
0.08100    42408968.00000000 26768040.00000000 67382232.00000000 23501.01757812  1970138.37500000 1563081.12500000 
0.08200    41832364.00000000 26412128.00000000 66474560.00000000 23048.40039062  1936839.00000000 1536799.25000000 
0.08300    41281932.00000000 26073156.00000000 65610740.00000000 22609.16992188  1904666.12500000 1511418.25000000 
0.08400    40757260.00000000 25750462.00000000 64788020.00000000 22182.32226562  1873548.75000000 1486857.12500000 
0.08500    40256504.00000000 25443042.00000000 64002840.00000000 21766.94726562  1843417.62500000 1463097.37500000 
0.08600    39778336.00000000 25150212.00000000 63254368.00000000 21362.41601562  1814218.00000000 1440061.37500000 
0.08700    39321432.00000000 24870872.00000000 62540008.00000000 20967.83789062  1785867.87500000 1417698.62500000 
0.08800    38884048.00000000 24604250.00000000 61856380.00000000 20582.48632812  1758293.87500000 1395965.12500000 
0.08900    38465096.00000000 24349374.00000000 61202760.00000000 20205.79101562  1731454.62500000 1374809.87500000 
0.09000    38063560.00000000 24105352.00000000 60576416.00000000 19836.91992188  1705289.75000000 1354181.75000000 
0.09100    37677648.00000000 23871864.00000000 59975636.00000000 19475.62890625  1679727.25000000 1334034.62500000 
0.09200    37306296.00000000 23647560.00000000 59397804.00000000 19121.39648438  1654727.62500000 1314343.62500000 
0.09300    36948500.00000000 23431960.00000000 58841512.00000000 18773.40820312  1630261.50000000 1295058.37500000 
0.09400    36602284.00000000 23223888.00000000 58304448.00000000 18431.59375000  1606252.75000000 1276141.00000000 
0.09500    36267584.00000000 23022940.00000000 57785268.00000000 18095.33398438  1582676.25000000 1257552.75000000 
0.09600    35942600.00000000 22828140.00000000 57281804.00000000 17764.31835938  1559479.25000000 1239284.50000000 
0.09700    35626480.00000000 22639216.00000000 56792836.00000000 17438.58398438  1536654.62500000 1221284.25000000 
0.09800    35317820.00000000 22455182.00000000 56315740.00000000 17117.41601562  1514124.00000000 1203542.75000000 
0.09900    35016864.00000000 22275596.00000000 55850184.00000000 16800.80078125  1491905.00000000 1186019.37500000 
0.10000    34721320.00000000 22099674.00000000 55393684.00000000 16488.49804688  1469944.00000000 1168713.00000000 
0.10100    34430524.00000000 21926974.00000000 54945752.00000000 16180.43945312  1448208.87500000 1151564.75000000 
0.10200    34144720.00000000 21756960.00000000 54504000.00000000 15876.33789062  1426694.50000000 1134603.75000000 
0.10300    33861748.00000000 21589166.00000000 54067968.00000000 15576.16699219  1405376.00000000 1117787.37500000 
0.10400    33582420.00000000 21422978.00000000 53636184.00000000 15279.84277344  1384247.75000000 1101114.87500000 
0.10500    33304726.00000000 21257858.00000000 53207884.00000000 14987.34179688  1363287.00000000 1084568.62500000 
0.10600    33028610.00000000 21093460.00000000 52781200.00000000 14698.29101562  1342481.50000000 1068133.37500000 
0.10700    32753390.00000000 20929762.00000000 52355676.00000000 14413.12695312  1321811.12500000 1051803.00000000 
0.10800    32478422.00000000 20766046.00000000 51931096.00000000 14131.43945312  1301273.00000000 1035581.12500000 
0.10900    32203504.00000000 20601906.00000000 51505700.00000000 13853.53710938  1280862.00000000 1019437.43750000 
0.11000    31928060.00000000 20437244.00000000 51079272.00000000 13579.17968750  1260578.00000000 1003401.31250000 
0.11100    31651484.00000000 20271614.00000000 50650732.00000000 13308.37109375  1240417.37500000 987442.68750000 
0.11200    31373400.00000000 20104904.00000000 50219792.00000000 13041.30468750  1220358.62500000 971566.68750000 
0.11300    31094170.00000000 19936736.00000000 49786220.00000000 12777.73437500  1200410.87500000 955780.75000000 
0.11400    30812856.00000000 19767300.00000000 49349116.00000000 12517.98242188  1180590.12500000 940079.25000000 
0.11500    30529334.00000000 19595934.00000000 48907768.00000000 12261.76171875  1160871.87500000 924463.12500000 
0.11600    30243394.00000000 19422996.00000000 48462736.00000000 12009.18554688  1141285.50000000 908923.43750000 
0.11700    29954904.00000000 19247768.00000000 48012960.00000000 11760.45605469  1121818.00000000 893474.62500000 
0.11800    29664116.00000000 19070722.00000000 47558548.00000000 11515.21972656  1102447.50000000 878112.12500000 
0.11900    29370068.00000000 18891430.00000000 47099172.00000000 11273.70019531  1083207.75000000 862843.68750000 
0.12000    29073476.00000000 18709828.00000000 46634612.00000000 11035.94921875  1064097.62500000 847666.75000000 
0.12100    28773944.00000000 18526302.00000000 46165424.00000000 10801.92382812  1045112.37500000 832590.68750000 
0.12200    28471460.00000000 18340166.00000000 45690964.00000000 10571.46093750  1026265.25000000 817611.68750000 
0.12300    28166068.00000000 18151988.00000000 45211428.00000000 10344.70117188  1007565.25000000 802753.25000000 
0.12400    27857888.00000000 17961692.00000000 44726688.00000000 10121.60644531  989007.93750000 787988.75000000 
0.12500    27546972.00000000 17769028.00000000 44236636.00000000 9902.14355469   970589.56250000 773344.37500000 
0.12600    27233350.00000000 17574514.00000000 43742532.00000000 9686.28222656   952344.43750000 758820.68750000 
0.12700    26916748.00000000 17377644.00000000 43243572.00000000 9474.07714844   934240.50000000 744415.43750000 
0.12800    26598084.00000000 17178848.00000000 42739580.00000000 9265.30468750   916304.56250000 730136.81250000 
0.12900    26276774.00000000 16978138.00000000 42231576.00000000 9060.17480469   898536.06250000 715989.00000000 
0.13000    25953330.00000000 16775580.00000000 41719884.00000000 8858.42285156   880951.75000000 701971.50000000 
0.13100    25627790.00000000 16571459.00000000 41204028.00000000 8660.09375000   863521.50000000 688100.37500000 
0.13200    25300304.00000000 16365560.00000000 40684724.00000000 8465.22851562   846289.06250000 674355.43750000 
0.13300    24971074.00000000 16158385.00000000 40162156.00000000 8273.62304688   829240.12500000 660770.68750000 
0.13400    24640452.00000000 15949748.00000000 39636928.00000000 8085.41650391   812380.50000000 647323.81250000 
0.13500    24308330.00000000 15739878.00000000 39108748.00000000 7900.47265625   795711.75000000 634023.31250000 
0.13600    23975032.00000000 15529030.00000000 38578956.00000000 7718.68750000   779233.31250000 620890.56250000 
0.13700    23641002.00000000 15317268.00000000 38046816.00000000 7540.16503906   762958.75000000 607909.93750000 
0.13800    23306552.00000000 15104665.00000000 37513444.00000000 7364.64062500   746891.50000000 595088.75000000 
0.13900    22971366.00000000 14891569.00000000 36978748.00000000 7192.35791016   731021.12500000 582427.50000000 
0.14000    22636084.00000000 14678083.00000000 36443752.00000000 7023.06201172   715367.81250000 569935.93750000 
0.14100    22300504.00000000 14464109.00000000 35908144.00000000 6856.83837891   699916.56250000 557604.68750000 
0.14200    21965498.00000000 14250133.00000000 35372688.00000000 6693.60009766   684684.37500000 545448.31250000 
0.14300    21630892.00000000 14036308.00000000 34837708.00000000 6533.30859375   669674.00000000 533461.00000000 
0.14400    21297088.00000000 13822501.00000000 34303380.00000000 6375.93505859   654868.75000000 521648.21875000 
0.14500    20963854.00000000 13609098.00000000 33770216.00000000 6221.55908203   640294.81250000 510003.68750000 
0.14600    20632022.00000000 13396370.00000000 33238760.00000000 6070.13671875   625932.87500000 498543.43750000 
0.14700    20301722.00000000 13184235.00000000 32709504.00000000 5921.52197266   611796.87500000 487257.90625000 
0.14800    19972778.00000000 12972897.00000000 32182248.00000000 5775.79736328   597889.81250000 476150.59375000 
0.14900    19645912.00000000 12762461.00000000 31657662.00000000 5632.87011719   584210.12500000 465223.34375000 
0.15000    19320862.00000000 12553229.00000000 31136328.00000000 5492.88134766   570760.43750000 454475.37500000 
0.15100    18998100.00000000 12345295.00000000 30618122.00000000 5355.76513672   557535.75000000 443907.96875000 
0.15200    18677830.00000000 12138713.00000000 30103664.00000000 5221.52441406   544537.87500000 433530.50000000 
0.15300    18360130.00000000 11933697.00000000 29593426.00000000 5090.15087891   531776.00000000 423331.53125000 
0.15400    18045022.00000000 11730267.00000000 29087358.00000000 4961.60546875   519243.53125000 413315.21875000 
0.15500    17733292.00000000 11528770.00000000 28585980.00000000 4835.93017578   506939.78125000 403485.21875000 
0.15600    17424352.00000000 11329025.00000000 28089342.00000000 4713.16308594   494867.81250000 393832.96875000 
0.15700    17118994.00000000 11131426.00000000 27597850.00000000 4593.29394531   483035.28125000 384370.75000000 
0.15800    16816848.00000000 10935883.00000000 27111920.00000000 4476.25537109   471429.87500000 375092.34375000 
0.15900    16518532.00000000 10742534.00000000 26631656.00000000 4362.18994141   460058.46875000 365999.03125000 
0.16000    16223794.00000000 10551572.00000000 26157038.00000000 4251.00634766   448919.18750000 357083.62500000 
0.16100    15932837.00000000 10363048.00000000 25688708.00000000 4142.74462891   438012.40625000 348359.96875000 
0.16200    15645900.00000000 10176863.00000000 25226532.00000000 4037.37597656   427332.59375000 339810.87500000 
0.16300    15362809.00000000 9993259.00000000 24770816.00000000 3934.91918945   416883.21875000 331449.09375000 
0.16400    15084019.00000000 9812322.00000000 24321512.00000000 3835.34619141   406666.59375000 323265.15625000 
0.16500    14809335.00000000 9634002.00000000 23879034.00000000 3738.68310547   396673.46875000 315262.84375000 
0.16600    14539000.00000000 9458401.00000000 23443358.00000000 3644.93017578   386906.90625000 307439.59375000 
0.16700    14273006.00000000 9285535.00000000 23014376.00000000 3554.00463867   377360.75000000 299788.81250000 
0.16800    14011229.00000000 9115591.00000000 22592442.00000000 3465.89575195   368037.31250000 292315.96875000 
0.16900    13753985.00000000 8948339.00000000 22177708.00000000 3380.71606445   358933.71875000 285015.40625000 
0.17000    13501195.00000000 8783953.00000000 21769980.00000000 3298.30175781   350047.25000000 277885.56250000 
