# SAXS profile: number of points = 501, q_min = 0, q_max = 0.5, delta_q = 0.001
#    q    intensity 
0.00000    162234880.00000000 101202144.00000000 256270368.00000000 103509.79687500 8195941.00000000 6473166.50000000 
0.00100    162199472.00000000 101178504.00000000 256211952.00000000 103481.33593750 8193884.00000000 6471490.00000000 
0.00200    162091456.00000000 101109264.00000000 256035088.00000000 103395.50781250 8187604.00000000 6466593.00000000 
0.00300    161905776.00000000 100992936.00000000 255740864.00000000 103252.84375000 8177201.00000000 6458384.00000000 
0.00400    161644096.00000000 100831872.00000000 255330544.00000000 103053.56250000 8162650.00000000 6446955.50000000 
0.00500    161306656.00000000 100624456.00000000 254802368.00000000 102797.85937500 8144016.50000000 6432289.00000000 
0.00600    160896608.00000000 100369536.00000000 254155552.00000000 102486.46093750 8121256.50000000 6414390.50000000 
0.00700    160414096.00000000 100071368.00000000 253398464.00000000 102119.55468750 8094510.00000000 6393313.00000000 
0.00800    159856448.00000000 99729072.00000000 252527760.00000000 101698.33593750 8063766.00000000 6369099.00000000 
0.00900    159230736.00000000 99343616.00000000 251543904.00000000 101223.21875000 8029065.50000000 6341839.00000000 
0.01000    158534656.00000000 98913624.00000000 250449664.00000000 100695.78125000 7990493.00000000 6311479.00000000 
0.01100    157771472.00000000 98440920.00000000 249246448.00000000 100115.82031250 7948105.50000000 6278125.50000000 
0.01200    156940288.00000000 97926200.00000000 247937296.00000000 99485.58593750  7902011.50000000 6241890.50000000 
0.01300    156039488.00000000 97369640.00000000 246524112.00000000 98805.29687500  7852273.50000000 6202712.50000000 
0.01400    155074656.00000000 96772984.00000000 245008512.00000000 98076.84375000  7798940.50000000 6160744.00000000 
0.01500    154046864.00000000 96137592.00000000 243391792.00000000 97301.60937500  7742158.00000000 6116057.00000000 
0.01600    152959584.00000000 95464008.00000000 241679280.00000000 96480.77343750  7681939.50000000 6068687.00000000 
0.01700    151809296.00000000 94753960.00000000 239870336.00000000 95615.64843750  7618554.00000000 6018776.50000000 
0.01800    150602080.00000000 94007016.00000000 237971456.00000000 94708.02343750  7551925.50000000 5966375.50000000 
0.01900    149338800.00000000 93225040.00000000 235983792.00000000 93760.25000000  7482284.50000000 5911522.50000000 
0.02000    148020896.00000000 92409256.00000000 233909504.00000000 92772.78906250  7409694.00000000 5854354.00000000 
0.02100    146650256.00000000 91561680.00000000 231754768.00000000 91748.48437500  7334288.50000000 5795059.00000000 
0.02200    145228992.00000000 90682920.00000000 229519664.00000000 90688.47656250  7256195.50000000 5733519.50000000 
0.02300    143760624.00000000 89773920.00000000 227207376.00000000 89593.95312500  7175508.00000000 5670015.00000000 
0.02400    142245456.00000000 88835416.00000000 224823216.00000000 88468.29687500  7092408.00000000 5604612.00000000 
0.02500    140687232.00000000 87871600.00000000 222371504.00000000 87312.09375000  7007045.50000000 5537373.50000000 
0.02600    139088160.00000000 86880928.00000000 219854624.00000000 86128.59375000  6919448.00000000 5468392.00000000 
0.02700    137448960.00000000 85866080.00000000 217275168.00000000 84918.78125000  6829869.00000000 5397849.00000000 
0.02800    135774144.00000000 84828968.00000000 214638592.00000000 83684.56250000  6738424.00000000 5325865.00000000 
0.02900    134064464.00000000 83769800.00000000 211949072.00000000 82428.07812500  6645206.50000000 5252387.00000000 
0.03000    132324272.00000000 82691392.00000000 209208224.00000000 81151.97656250  6550371.00000000 5177747.50000000 
0.03100    130553912.00000000 81594744.00000000 206420832.00000000 79857.81250000  6454077.50000000 5101878.00000000 
0.03200    128756632.00000000 80481528.00000000 203592752.00000000 78547.68750000  6356446.00000000 5024963.00000000 
0.03300    126936080.00000000 79352496.00000000 200724480.00000000 77223.38281250  6257660.00000000 4947145.50000000 
0.03400    125093272.00000000 78209392.00000000 197822128.00000000 75886.88281250  6157821.50000000 4868464.00000000 
0.03500    123231336.00000000 77054600.00000000 194889408.00000000 74540.54687500  6057090.00000000 4789105.50000000 
0.03600    121351088.00000000 75889696.00000000 191929120.00000000 73185.83593750  5955588.50000000 4709084.50000000 
0.03700    119457936.00000000 74715848.00000000 188947056.00000000 71824.77343750  5853442.50000000 4628638.50000000 
0.03800    117552480.00000000 73533856.00000000 185945648.00000000 70459.57812500  5750822.50000000 4547783.00000000 
0.03900    115636840.00000000 72345240.00000000 182926672.00000000 69091.45312500  5647842.00000000 4466590.50000000 
0.04000    113714136.00000000 71151568.00000000 179896576.00000000 67722.74218750  5544625.00000000 4385256.00000000 
0.04100    111785808.00000000 69954384.00000000 176858784.00000000 66354.89062500  5441331.50000000 4303797.50000000 
0.04200    109855176.00000000 68755656.00000000 173815776.00000000 64990.03125000  5338080.50000000 4222409.00000000 
0.04300    107923768.00000000 67556344.00000000 170772048.00000000 63629.02734375  5234985.00000000 4141060.75000000 
0.04400    105994320.00000000 66357664.00000000 167730432.00000000 62273.96093750  5132107.50000000 4059957.25000000 
0.04500    104068368.00000000 65161036.00000000 164693408.00000000 60926.67187500  5029643.00000000 3979120.50000000 
0.04600    102148816.00000000 63967824.00000000 161666672.00000000 59587.82812500  4927657.00000000 3898710.00000000 
0.04700    100236416.00000000 62779284.00000000 158652256.00000000 58259.48828125  4826304.00000000 3818750.75000000 
0.04800    98334864.00000000 61596532.00000000 155651232.00000000 56942.87500000  4725645.50000000 3739314.00000000 
0.04900    96443256.00000000 60420768.00000000 152669056.00000000 55639.03125000  4625766.00000000 3660545.75000000 
0.05000    94566000.00000000 59253144.00000000 149707456.00000000 54349.71875000  4526809.50000000 3582444.75000000 
0.05100    92704144.00000000 58094948.00000000 146769488.00000000 53075.50000000  4428835.50000000 3505114.25000000 
0.05200    90858360.00000000 56946444.00000000 143858288.00000000 51817.28125000  4331882.00000000 3428645.75000000 
0.05300    89030968.00000000 55809476.00000000 140976032.00000000 50576.57031250  4236122.50000000 3353064.00000000 
0.05400    87224304.00000000 54684152.00000000 138125168.00000000 49354.15625000  4141602.25000000 3278431.75000000 
0.05500    85438464.00000000 53572296.00000000 135305728.00000000 48151.03906250  4048371.25000000 3204829.00000000 
0.05600    83674736.00000000 52474132.00000000 132523456.00000000 46967.27734375  3956485.25000000 3132280.75000000 
0.05700    81935912.00000000 51390692.00000000 129778128.00000000 45804.74218750  3866037.50000000 3060868.25000000 
0.05800    80221272.00000000 50322496.00000000 127072256.00000000 44662.76171875  3777046.25000000 2990602.00000000 
0.05900    78533792.00000000 49270852.00000000 124406296.00000000 43542.69140625  3689608.00000000 2921531.50000000 
0.06000    76872656.00000000 48235616.00000000 121784000.00000000 42444.85546875  3603742.00000000 2853659.25000000 
0.06100    75239872.00000000 47217972.00000000 119205840.00000000 41369.95312500  3519450.75000000 2787128.00000000 
0.06200    73636360.00000000 46217824.00000000 116673008.00000000 40317.65625000  3436806.50000000 2721832.00000000 
0.06300    72061936.00000000 45236368.00000000 114186824.00000000 39288.36718750  3355852.25000000 2657892.00000000 
0.06400    70518184.00000000 44273388.00000000 111748096.00000000 38283.19921875  3276580.50000000 2595257.75000000 
0.06500    69006080.00000000 43329564.00000000 109358576.00000000 37301.25390625  3199059.75000000 2533998.00000000 
0.06600    67524312.00000000 42405448.00000000 107018480.00000000 36342.91406250  3123261.50000000 2474103.25000000 
0.06700    66075072.00000000 41500644.00000000 104728120.00000000 35408.74609375  3049213.75000000 2415572.00000000 
0.06800    64657684.00000000 40616372.00000000 102488696.00000000 34497.90625000  2976930.50000000 2358435.75000000 
0.06900    63273088.00000000 39752000.00000000 100300592.00000000 33610.32812500  2906421.50000000 2302698.25000000 
0.07000    61920636.00000000 38908072.00000000 98164664.00000000 32746.79687500  2837650.25000000 2248343.25000000 
0.07100    60601664.00000000 38084160.00000000 96079728.00000000 31906.48046875  2770617.50000000 2195369.25000000 
0.07200    59315508.00000000 37281068.00000000 94046568.00000000 31088.93945312  2705357.50000000 2143795.50000000 
0.07300    58062196.00000000 36498296.00000000 92065680.00000000 30294.62890625  2641833.50000000 2093560.62500000 
0.07400    56841568.00000000 35736304.00000000 90137064.00000000 29522.67578125  2580048.75000000 2044681.75000000 
0.07500    55653880.00000000 34994100.00000000 88259448.00000000 28772.84570312  2519935.75000000 1997178.62500000 
0.07600    54498364.00000000 34272712.00000000 86433672.00000000 28044.95898438  2461500.25000000 1950997.87500000 
0.07700    53374952.00000000 33571424.00000000 84658128.00000000 27338.14648438  2404758.50000000 1906115.12500000 
0.07800    52283988.00000000 32889844.00000000 82933328.00000000 26652.40039062  2349631.75000000 1862544.62500000 
0.07900    51223856.00000000 32228212.00000000 81258896.00000000 25987.12695312  2296108.25000000 1820223.62500000 
0.08000    50195252.00000000 31586366.00000000 79633080.00000000 25341.76171875  2244178.50000000 1779145.75000000 
0.08100    49197504.00000000 30963438.00000000 78055848.00000000 24716.18554688  2193795.50000000 1739293.75000000 
0.08200    48229712.00000000 30359122.00000000 76526680.00000000 24109.25000000  2144862.25000000 1700635.62500000 
0.08300    47291540.00000000 29773572.00000000 75044176.00000000 23520.89648438  2097435.25000000 1663142.75000000 
0.08400    46382444.00000000 29206242.00000000 73607800.00000000 22950.20898438  2051439.37500000 1626778.75000000 
0.08500    45501880.00000000 28656886.00000000 72216528.00000000 22397.03515625  2006851.37500000 1591506.62500000 
0.08600    44649020.00000000 28125008.00000000 70869216.00000000 21860.42382812  1963601.25000000 1557326.37500000 
0.08700    43823084.00000000 27610276.00000000 69565408.00000000 21340.04101562  1921662.87500000 1524174.50000000 
0.08800    43024260.00000000 27112046.00000000 68303304.00000000 20835.46875000  1880994.87500000 1492033.12500000 
0.08900    42250484.00000000 26630068.00000000 67082484.00000000 20345.82421875  1841573.12500000 1460858.62500000 
0.09000    41501704.00000000 26163910.00000000 65900588.00000000 19870.67968750  1803314.12500000 1430636.00000000 
0.09100    40777460.00000000 25713008.00000000 64757476.00000000 19409.35546875  1766208.50000000 1401315.00000000 
0.09200    40076416.00000000 25276866.00000000 63651864.00000000 18961.43164062  1730206.62500000 1372863.75000000 
0.09300    39397832.00000000 24855108.00000000 62582184.00000000 18526.41210938  1695270.50000000 1345255.25000000 
0.09400    38741520.00000000 24447090.00000000 61546980.00000000 18103.62500000  1661338.37500000 1318445.25000000 
0.09500    38106076.00000000 24052336.00000000 60545084.00000000 17692.69140625  1628387.37500000 1292410.87500000 
0.09600    37491332.00000000 23670830.00000000 59575832.00000000 17293.07226562  1596356.37500000 1267125.62500000 
0.09700    36895796.00000000 23301394.00000000 58637796.00000000 16904.17578125  1565235.12500000 1242532.12500000 
0.09800    36319212.00000000 22943816.00000000 57729544.00000000 16525.46289062  1534959.50000000 1218628.50000000 
0.09900    35760608.00000000 22597828.00000000 56850164.00000000 16156.72558594  1505505.37500000 1195359.50000000 
0.10000    35218924.00000000 22262512.00000000 55997800.00000000 15797.37695312  1476813.50000000 1172713.62500000 
0.10100    34693984.00000000 21937698.00000000 55171648.00000000 15446.94531250  1448874.75000000 1150646.75000000 
0.10200    34184324.00000000 21622618.00000000 54370340.00000000 15105.14941406  1421623.50000000 1129133.37500000 
0.10300    33689880.00000000 21317400.00000000 53592708.00000000 14771.58593750  1395055.62500000 1108145.12500000 
0.10400    33209642.00000000 21020754.00000000 52837816.00000000 14445.67968750  1369106.00000000 1087655.87500000 
0.10500    32742740.00000000 20732804.00000000 52104532.00000000 14127.37597656  1343774.12500000 1067661.25000000 
0.10600    32288368.00000000 20452976.00000000 51390964.00000000 13816.06738281  1318992.87500000 1048097.31250000 
0.10700    31846256.00000000 20180582.00000000 50697100.00000000 13511.66308594  1294743.12500000 1028963.56250000 
0.10800    31415394.00000000 19915784.00000000 50021156.00000000 13213.74902344  1271025.00000000 1010231.87500000 
0.10900    30995530.00000000 19657592.00000000 49362224.00000000 12922.01953125  1247781.75000000 991878.50000000 
0.11000    30585622.00000000 19405750.00000000 48719472.00000000 12636.35449219  1224994.00000000 973889.50000000 
0.11100    30185234.00000000 19159870.00000000 48091776.00000000 12356.51855469  1202639.37500000 956233.56250000 
0.11200    29793774.00000000 18919682.00000000 47478328.00000000 12082.06835938  1180690.50000000 938908.00000000 
0.11300    29410746.00000000 18684744.00000000 46878152.00000000 11812.92773438  1159130.12500000 921878.56250000 
0.11400    29035462.00000000 18454780.00000000 46290728.00000000 11549.01367188  1137944.87500000 905143.75000000 
0.11500    28667574.00000000 18229468.00000000 45714464.00000000 11290.10644531  1117105.62500000 888674.25000000 
0.11600    28306498.00000000 18008124.00000000 45148868.00000000 11036.01562500  1096597.50000000 872467.68750000 
0.11700    27951910.00000000 17791140.00000000 44593752.00000000 10786.57519531  1076401.37500000 856506.81250000 
0.11800    27603020.00000000 17577522.00000000 44047676.00000000 10541.50000000  1056500.25000000 840774.75000000 
0.11900    27259710.00000000 17367564.00000000 43510280.00000000 10301.03417969  1036889.56250000 825268.12500000 
0.12000    26921494.00000000 17160398.00000000 42980912.00000000 10064.88867188  1017548.37500000 809966.25000000 
0.12100    26588232.00000000 16956690.00000000 42459088.00000000 9832.95703125   998473.75000000 794881.50000000 
0.12200    26259262.00000000 16755311.00000000 41944360.00000000 9605.20410156   979651.50000000 779976.93750000 
0.12300    25934268.00000000 16556457.00000000 41435596.00000000 9381.52539062   961065.00000000 765269.37500000 
0.12400    25613100.00000000 16359902.00000000 40932744.00000000 9161.85839844   942718.31250000 750740.12500000 
0.12500    25295402.00000000 16165364.00000000 40435420.00000000 8946.07910156   924596.50000000 736381.00000000 
0.12600    24981060.00000000 15972838.00000000 39943336.00000000 8734.36132812   906689.62500000 722191.06250000 
0.12700    24669450.00000000 15782003.00000000 39455212.00000000 8526.37792969   889006.31250000 708172.56250000 
0.12800    24360970.00000000 15592645.00000000 38971220.00000000 8322.28125000   871532.68750000 694309.06250000 
0.12900    24054834.00000000 15404926.00000000 38491800.00000000 8121.98535156   854257.87500000 680605.06250000 
0.13000    23751270.00000000 15218476.00000000 38015768.00000000 7925.44677734   837186.25000000 667058.68750000 
0.13100    23449924.00000000 15033372.00000000 37542904.00000000 7732.60693359   820324.18750000 653660.43750000 
0.13200    23150338.00000000 14849281.00000000 37073324.00000000 7543.50048828   803654.06250000 640415.87500000 
0.13300    22853200.00000000 14666350.00000000 36606572.00000000 7358.10302734   787182.62500000 627321.87500000 
0.13400    22557824.00000000 14484328.00000000 36142604.00000000 7176.36083984   770910.00000000 614385.18750000 
0.13500    22264236.00000000 14303315.00000000 35681164.00000000 6998.26269531   754825.43750000 601590.31250000 
0.13600    21972322.00000000 14123143.00000000 35222168.00000000 6823.77050781   738936.50000000 588941.93750000 
0.13700    21681842.00000000 13943847.00000000 34765348.00000000 6652.89599609   723246.56250000 576448.06250000 
0.13800    21393298.00000000 13765198.00000000 34311252.00000000 6485.51171875   707749.12500000 564101.62500000 
0.13900    21106018.00000000 13587469.00000000 33859036.00000000 6321.79150391   692447.12500000 551912.87500000 
0.14000    20820508.00000000 13410379.00000000 33409378.00000000 6161.51123047   677341.12500000 539864.62500000 
0.14100    20536422.00000000 13234080.00000000 32961442.00000000 6004.80566406   662436.43750000 527975.25000000 
0.14200    20253852.00000000 13058472.00000000 32515442.00000000 5851.43798828   647724.31250000 516235.25000000 
0.14300    19972710.00000000 12883602.00000000 32071880.00000000 5701.57958984   633217.12500000 504655.59375000 
0.14400    19693062.00000000 12709325.00000000 31630254.00000000 5555.06347656   618907.68750000 493225.18750000 
0.14500    19415036.00000000 12535788.00000000 31190684.00000000 5411.94921875   604804.06250000 481956.90625000 
0.14600    19138366.00000000 12363186.00000000 30753462.00000000 5272.15136719   590900.18750000 470844.06250000 
0.14700    18863474.00000000 12191211.00000000 30318552.00000000 5135.61962891   577201.87500000 459892.03125000 
0.14800    18589996.00000000 12020064.00000000 29885670.00000000 5002.27636719   563707.18750000 449095.12500000 
0.14900    18318212.00000000 11849712.00000000 29455232.00000000 4872.13769531   550419.75000000 438462.81250000 
0.15000    18048134.00000000 11680151.00000000 29027052.00000000 4745.13037109   537335.37500000 427988.21875000 
0.15100    17779716.00000000 11511551.00000000 28601356.00000000 4621.15429688   524461.93750000 417679.31250000 
0.15200    17513130.00000000 11343795.00000000 28178244.00000000 4500.29003906   511797.43750000 407538.62500000 
0.15300    17248386.00000000 11177041.00000000 27757802.00000000 4382.31005859   499340.81250000 397555.28125000 
0.15400    16985450.00000000 11011196.00000000 27340102.00000000 4267.29443359   487092.34375000 387736.87500000 
0.15500    16724389.00000000 10846313.00000000 26925068.00000000 4155.06152344   475056.81250000 378087.40625000 
0.15600    16465403.00000000 10682543.00000000 26512894.00000000 4045.67529297   463223.59375000 368599.90625000 
0.15700    16208478.00000000 10519918.00000000 26103986.00000000 3939.01342773   451605.18750000 359283.12500000 
0.15800    15953449.00000000 10358294.00000000 25697846.00000000 3834.98364258   440189.68750000 350123.34375000 
0.15900    15700768.00000000 10197936.00000000 25294828.00000000 3733.59887695   428985.62500000 341133.50000000 
0.16000    15450005.00000000 10038703.00000000 24895190.00000000 3634.69018555   417985.93750000 332305.75000000 
0.16100    15201716.00000000 9880757.00000000 24499318.00000000 3538.32226562   407198.18750000 323647.06250000 
0.16200    14955604.00000000 9724162.00000000 24106276.00000000 3444.33984375   396611.81250000 315147.46875000 
0.16300    14711778.00000000 9568795.00000000 23717080.00000000 3352.69482422   386230.15625000 306813.03125000 
0.16400    14470487.00000000 9414800.00000000 23331336.00000000 3263.34985352   376051.62500000 298641.15625000 
0.16500    14231391.00000000 9262137.00000000 22949448.00000000 3176.22753906   366073.25000000 290628.75000000 
0.16600    13994982.00000000 9111035.00000000 22571272.00000000 3091.29321289   356295.65625000 282778.56250000 
0.16700    13760967.00000000 8961335.00000000 22196676.00000000 3008.42504883   346714.18750000 275086.75000000 
0.16800    13529437.00000000 8813083.00000000 21826418.00000000 2927.63891602   337330.21875000 267548.28125000 
0.16900    13300654.00000000 8666446.00000000 21459890.00000000 2848.83251953   328143.21875000 260170.04687500 
0.17000    13074361.00000000 8521251.00000000 21097376.00000000 2771.99609375   319146.06250000 252945.90625000 
