# SAXS profile: number of points = 501, q_min = 0, q_max = 0.5, delta_q = 0.001
#    q    intensity 
0.00000    162237616.00000000 101201896.00000000 256271536.00000000 105914.22656250 8290534.50000000 6547891.00000000 
0.00100    162206256.00000000 101181792.00000000 256221440.00000000 105887.53125000 8288687.50000000 6546396.50000000 
0.00200    162111728.00000000 101122464.00000000 256070032.00000000 105807.71875000 8283079.00000000 6541990.50000000 
0.00300    161952192.00000000 101024040.00000000 255818832.00000000 105675.20312500 8273699.50000000 6534637.00000000 
0.00400    161727760.00000000 100885896.00000000 255466256.00000000 105489.74218750 8260629.00000000 6524359.00000000 
0.00500    161439168.00000000 100709208.00000000 255014768.00000000 105251.87500000 8243814.50000000 6511173.00000000 
0.00600    161087344.00000000 100493328.00000000 254464720.00000000 104961.31250000 8223367.50000000 6495109.00000000 
0.00700    160672432.00000000 100237776.00000000 253814064.00000000 104620.28125000 8199192.50000000 6476115.50000000 
0.00800    160196112.00000000 99945080.00000000 253067376.00000000 104227.09375000 8171424.50000000 6454324.00000000 
0.00900    159656832.00000000 99614168.00000000 252224512.00000000 103784.26562500 8140093.00000000 6429742.00000000 
0.01000    159057360.00000000 99246048.00000000 251284432.00000000 103290.90625000 8105214.00000000 6402355.50000000 
0.01100    158398080.00000000 98841528.00000000 250250464.00000000 102748.45312500 8066863.50000000 6372208.50000000 
0.01200    157680864.00000000 98399648.00000000 249123888.00000000 102157.90625000 8025052.50000000 6339393.50000000 
0.01300    156904016.00000000 97922336.00000000 247905584.00000000 101520.64843750 7979889.00000000 6303947.50000000 
0.01400    156070720.00000000 97409248.00000000 246597184.00000000 100836.50000000 7931424.50000000 6265883.50000000 
0.01500    155179392.00000000 96861224.00000000 245199936.00000000 100107.09375000 7879718.50000000 6225282.00000000 
0.01600    154232864.00000000 96279088.00000000 243715760.00000000 99333.66406250  7824851.00000000 6182169.50000000 
0.01700    153232160.00000000 95663656.00000000 242147520.00000000 98517.27343750  7766875.50000000 6136657.50000000 
0.01800    152180128.00000000 95016168.00000000 240496240.00000000 97658.91406250  7705895.00000000 6088771.50000000 
0.01900    151076192.00000000 94337272.00000000 238763488.00000000 96760.14843750  7642011.50000000 6038588.50000000 
0.02000    149922528.00000000 93627072.00000000 236953296.00000000 95823.03906250  7575269.50000000 5986158.00000000 
0.02100    148718512.00000000 92886488.00000000 235065776.00000000 94847.19531250  7505804.00000000 5931587.50000000 
0.02200    147468816.00000000 92117416.00000000 233105072.00000000 93835.39062500  7433668.50000000 5874937.50000000 
0.02300    146173632.00000000 91320408.00000000 231071776.00000000 92788.93750000  7358972.00000000 5816269.50000000 
0.02400    144833456.00000000 90495160.00000000 228968944.00000000 91709.34375000  7281869.50000000 5755677.50000000 
0.02500    143452208.00000000 89644664.00000000 226801168.00000000 90598.02343750  7202383.00000000 5693257.00000000 
0.02600    142029072.00000000 88768560.00000000 224568400.00000000 89455.56250000  7120675.00000000 5629024.00000000 
0.02700    140567696.00000000 87869040.00000000 222273872.00000000 88285.60937500  7036848.00000000 5563122.00000000 
0.02800    139068784.00000000 86944728.00000000 219920192.00000000 87089.07031250  6950955.50000000 5495628.50000000 
0.02900    137534816.00000000 85999992.00000000 217511728.00000000 85866.78125000  6863173.50000000 5426661.50000000 
0.03000    135966848.00000000 85033752.00000000 215049072.00000000 84621.11718750  6773584.00000000 5356246.00000000 
0.03100    134366640.00000000 84047168.00000000 212537920.00000000 83353.86718750  6682315.00000000 5284473.00000000 
0.03200    132737184.00000000 83042336.00000000 209978352.00000000 82066.73437500  6589501.00000000 5211502.50000000 
0.03300    131078744.00000000 82020160.00000000 207374000.00000000 80761.32812500  6495208.50000000 5137362.00000000 
0.03400    129393952.00000000 80981336.00000000 204727568.00000000 79439.09375000  6399563.50000000 5062179.50000000 
0.03500    127685704.00000000 79927256.00000000 202044720.00000000 78102.26562500  6302730.50000000 4985995.50000000 
0.03600    125954064.00000000 78858504.00000000 199324352.00000000 76751.82812500  6204748.00000000 4908945.50000000 
0.03700    124202752.00000000 77778256.00000000 196572128.00000000 75390.31250000  6105810.00000000 4831130.00000000 
0.03800    122431984.00000000 76685192.00000000 193790464.00000000 74019.08593750  6005993.00000000 4752606.00000000 
0.03900    120644800.00000000 75581688.00000000 190981168.00000000 72640.09375000  5905429.50000000 4673511.50000000 
0.04000    118842472.00000000 74468816.00000000 188147872.00000000 71254.31250000  5804229.00000000 4593853.50000000 
0.04100    117027120.00000000 73347632.00000000 185294864.00000000 69864.29687500  5702502.50000000 4513803.00000000 
0.04200    115201368.00000000 72219560.00000000 182425456.00000000 68471.10937500  5600355.00000000 4433410.50000000 
0.04300    113366072.00000000 71085528.00000000 179538480.00000000 67077.04687500  5497956.00000000 4352831.50000000 
0.04400    111522464.00000000 69946496.00000000 176640816.00000000 65682.79687500  5395294.00000000 4272016.00000000 
0.04500    109674088.00000000 68803536.00000000 173732448.00000000 64290.28515625  5292578.00000000 4191148.25000000 
0.04600    107821904.00000000 67657408.00000000 170819008.00000000 62900.84765625  5189887.00000000 4110285.50000000 
0.04700    105967664.00000000 66510048.00000000 167901968.00000000 61516.38671875  5087324.00000000 4029509.50000000 
0.04800    104112840.00000000 65362280.00000000 164983808.00000000 60137.89843750  4985013.50000000 3948905.00000000 
0.04900    102259240.00000000 64214836.00000000 162067120.00000000 58767.06640625  4882986.50000000 3868571.75000000 
0.05000    100409456.00000000 63069052.00000000 159154832.00000000 57404.87109375  4781440.50000000 3788534.00000000 
0.05100    98563840.00000000 61925848.00000000 156250304.00000000 56053.37890625  4680348.50000000 3708911.25000000 
0.05200    96724448.00000000 60786056.00000000 153352688.00000000 54712.92578125  4579922.50000000 3629732.75000000 
0.05300    94893280.00000000 59650764.00000000 150469808.00000000 53385.32421875  4480170.50000000 3551110.50000000 
0.05400    93070640.00000000 58521136.00000000 147600640.00000000 52071.41015625  4381215.50000000 3473091.50000000 
0.05500    91260056.00000000 57397968.00000000 144747184.00000000 50772.60546875  4283117.00000000 3395724.75000000 
0.05600    89460904.00000000 56281924.00000000 141913856.00000000 49489.44140625  4185951.00000000 3319108.25000000 
0.05700    87676264.00000000 55173980.00000000 139100048.00000000 48223.19921875  4089797.25000000 3243291.50000000 
0.05800    85906248.00000000 54074768.00000000 136311344.00000000 46974.93750000  3994763.50000000 3168293.50000000 
0.05900    84151824.00000000 52985100.00000000 133546744.00000000 45745.66406250  3900857.75000000 3094210.50000000 
0.06000    82415392.00000000 51906224.00000000 130808400.00000000 44535.44531250  3808188.00000000 3021054.25000000 
0.06100    80697072.00000000 50838248.00000000 128098408.00000000 43345.84375000  3716790.25000000 2948921.00000000 
0.06200    78998840.00000000 49782284.00000000 125420472.00000000 42176.92968750  3626731.25000000 2877824.00000000 
0.06300    77321312.00000000 48738924.00000000 122774224.00000000 41029.89062500  3538072.50000000 2807789.75000000 
0.06400    75665064.00000000 47708436.00000000 120161736.00000000 39904.85546875  3450842.25000000 2738897.75000000 
0.06500    74031832.00000000 46691628.00000000 117584008.00000000 38802.44531250  3365074.00000000 2671156.00000000 
0.06600    72422328.00000000 45689276.00000000 115043432.00000000 37723.42187500  3280852.00000000 2604606.50000000 
0.06700    70836776.00000000 44701708.00000000 112540712.00000000 36667.53125000  3198187.25000000 2539254.25000000 
0.06800    69276600.00000000 43729216.00000000 110077032.00000000 35635.96093750  3117097.00000000 2475189.50000000 
0.06900    67742728.00000000 42772780.00000000 107653952.00000000 34628.71093750  3037666.25000000 2412377.25000000 
0.07000    66234740.00000000 41832500.00000000 105272224.00000000 33645.53515625  2959876.75000000 2350859.00000000 
0.07100    64754172.00000000 40908512.00000000 102932744.00000000 32686.84960938  2883743.00000000 2290637.25000000 
0.07200    63301008.00000000 40001304.00000000 100636616.00000000 31753.32421875  2809324.50000000 2231752.75000000 
0.07300    61875984.00000000 39111324.00000000 98384096.00000000 30844.19726562  2736606.00000000 2174207.25000000 
0.07400    60479460.00000000 38238912.00000000 96176048.00000000 29960.09375000  2665607.75000000 2118018.25000000 
0.07500    59111592.00000000 37383788.00000000 94013456.00000000 29100.67578125  2596323.00000000 2063160.87500000 
0.07600    57773292.00000000 36546968.00000000 91896176.00000000 28266.08984375  2528775.25000000 2009670.75000000 
0.07700    56463920.00000000 35728036.00000000 89825352.00000000 27456.02148438  2462983.00000000 1957550.50000000 
0.07800    55184324.00000000 34927112.00000000 87800584.00000000 26670.51953125  2398907.25000000 1906784.62500000 
0.07900    53934616.00000000 34144548.00000000 85822616.00000000 25909.03906250  2336563.25000000 1857386.75000000 
0.08000    52714468.00000000 33380260.00000000 83891104.00000000 25171.63476562  2275942.50000000 1809334.75000000 
0.08100    51524608.00000000 32634658.00000000 82007632.00000000 24457.85937500  2217029.00000000 1762610.37500000 
0.08200    50364412.00000000 31907422.00000000 80169648.00000000 23767.62109375  2159808.25000000 1717233.25000000 
0.08300    49233612.00000000 31198338.00000000 78378472.00000000 23100.46093750  2104274.75000000 1673187.75000000 
0.08400    48132880.00000000 30507772.00000000 76634968.00000000 22455.61328125  2050408.12500000 1630440.75000000 
0.08500    47061676.00000000 29835388.00000000 74937216.00000000 21833.16796875  1998178.00000000 1588982.75000000 
0.08600    46019860.00000000 29181094.00000000 73286088.00000000 21232.41406250  1947564.25000000 1548808.12500000 
0.08700    45006976.00000000 28544994.00000000 71680672.00000000 20653.10937500  1898550.25000000 1509882.12500000 
0.08800    44023096.00000000 27926696.00000000 70120528.00000000 20094.38476562  1851111.75000000 1472190.75000000 
0.08900    43067672.00000000 27326160.00000000 68605488.00000000 19556.07031250  1805191.25000000 1435726.87500000 
0.09000    42140824.00000000 26743174.00000000 67134728.00000000 19037.59765625  1760801.50000000 1400443.87500000 
0.09100    41241496.00000000 26177538.00000000 65708108.00000000 18538.16992188  1717870.25000000 1366331.50000000 
0.09200    40369288.00000000 25628786.00000000 64324932.00000000 18057.46484375  1676397.87500000 1333350.00000000 
0.09300    39524792.00000000 25097018.00000000 62984300.00000000 17594.73046875  1636321.75000000 1301484.00000000 
0.09400    38706360.00000000 24581594.00000000 61685144.00000000 17149.48828125  1597614.12500000 1270697.75000000 
0.09500    37913900.00000000 24082364.00000000 60427020.00000000 16721.02148438  1560244.12500000 1240962.00000000 
0.09600    37146824.00000000 23599332.00000000 59209488.00000000 16308.98242188  1524167.25000000 1212255.37500000 
0.09700    36405124.00000000 23131792.00000000 58031536.00000000 15912.54785156  1489357.25000000 1184546.50000000 
0.09800    35687856.00000000 22679522.00000000 56892608.00000000 15531.23730469  1455764.62500000 1157803.62500000 
0.09900    34994148.00000000 22242146.00000000 55790892.00000000 15164.15332031  1423350.37500000 1131990.75000000 
0.10000    34323700.00000000 21819228.00000000 54725576.00000000 14811.12304688  1392057.37500000 1107087.87500000 
0.10100    33676004.00000000 21410648.00000000 53696864.00000000 14471.15820312  1361868.37500000 1083038.75000000 
0.10200    33049968.00000000 21015994.00000000 52702292.00000000 14144.00585938  1332741.00000000 1059829.00000000 
0.10300    32445456.00000000 20634466.00000000 51741896.00000000 13828.67968750  1304621.50000000 1037420.06250000 
0.10400    31861762.00000000 20266284.00000000 50814428.00000000 13524.88867188  1277479.00000000 1015799.81250000 
0.10500    31298260.00000000 19910586.00000000 49919256.00000000 13232.08691406  1251269.25000000 994911.68750000 
0.10600    30753922.00000000 19567246.00000000 49054016.00000000 12949.37988281  1225954.25000000 974735.37500000 
0.10700    30228340.00000000 19235558.00000000 48219008.00000000 12676.54589844  1201486.50000000 955234.00000000 
0.10800    29720966.00000000 18915478.00000000 47413000.00000000 12412.85156250  1177827.37500000 936377.25000000 
0.10900    29230848.00000000 18606384.00000000 46634224.00000000 12157.85644531  1154948.62500000 918143.25000000 
0.11000    28757294.00000000 18307786.00000000 45882200.00000000 11910.98925781  1132811.37500000 900489.43750000 
0.11100    28300236.00000000 18019508.00000000 45155852.00000000 11671.78613281  1111358.62500000 883390.56250000 
0.11200    27858268.00000000 17740978.00000000 44454272.00000000 11439.84277344  1090568.62500000 866821.43750000 
0.11300    27431246.00000000 17471762.00000000 43775892.00000000 11214.56542969  1070413.12500000 850757.56250000 
0.11400    27018272.00000000 17211632.00000000 43120260.00000000 10995.62402344  1050844.87500000 835163.37500000 
0.11500    26618814.00000000 16960126.00000000 42486320.00000000 10782.51171875  1031826.25000000 820004.43750000 
0.11600    26232142.00000000 16716779.00000000 41872676.00000000 10574.88085938  1013336.62500000 805269.56250000 
0.11700    25857826.00000000 16481300.00000000 41278596.00000000 10372.40625000  995333.43750000 790926.68750000 
0.11800    25494864.00000000 16253205.00000000 40703188.00000000 10174.44531250  977789.18750000 776949.68750000 
0.11900    25143110.00000000 16032026.00000000 40145128.00000000 9980.96191406   960680.50000000 763318.31250000 
0.12000    24801668.00000000 15817674.00000000 39604052.00000000 9791.34765625   943963.18750000 750011.56250000 
0.12100    24470222.00000000 15609686.00000000 39078708.00000000 9605.59960938   927626.62500000 737001.87500000 
0.12200    24148112.00000000 15407578.00000000 38568368.00000000 9423.31152344   911643.18750000 724275.25000000 
0.12300    23834540.00000000 15211154.00000000 38072048.00000000 9244.14257812   895979.68750000 711811.18750000 
0.12400    23529408.00000000 15020009.00000000 37588892.00000000 9067.95312500   880616.31250000 699585.43750000 
0.12500    23231946.00000000 14833845.00000000 37117980.00000000 8894.35253906   865530.50000000 687585.31250000 
0.12600    22941668.00000000 14652476.00000000 36659144.00000000 8723.36035156   850707.75000000 675789.50000000 
0.12700    22658158.00000000 14475410.00000000 36211064.00000000 8554.62988281   836115.93750000 664188.93750000 
0.12800    22380866.00000000 14302329.00000000 35772776.00000000 8388.03222656   821748.93750000 652763.75000000 
0.12900    22109720.00000000 14133155.00000000 35344232.00000000 8223.52636719   807586.87500000 641503.25000000 
0.13000    21843806.00000000 13967452.00000000 34924300.00000000 8060.81445312   793607.56250000 630394.50000000 
0.13100    21582914.00000000 13805000.00000000 34512352.00000000 7899.77734375   779802.81250000 619422.25000000 
0.13200    21326866.00000000 13645608.00000000 34108256.00000000 7740.44726562   766157.12500000 608577.81250000 
0.13300    21075060.00000000 13489022.00000000 33711044.00000000 7582.65087891   752664.93750000 597858.75000000 
0.13400    20827006.00000000 13334915.00000000 33320038.00000000 7426.38476562   739297.93750000 587246.31250000 
0.13500    20582884.00000000 13183263.00000000 32935056.00000000 7271.57910156   726065.56250000 576735.37500000 
0.13600    20342010.00000000 13033740.00000000 32555142.00000000 7118.07568359   712949.12500000 566322.75000000 
0.13700    20104056.00000000 12886250.00000000 32180488.00000000 6965.93505859   699947.18750000 555997.18750000 
0.13800    19868866.00000000 12740308.00000000 31810064.00000000 6815.18798828   687049.68750000 545755.00000000 
0.13900    19636374.00000000 12596210.00000000 31443768.00000000 6665.71630859   674250.68750000 535590.68750000 
0.14000    19405966.00000000 12453470.00000000 31081130.00000000 6517.64697266   661541.31250000 525506.06250000 
0.14100    19177822.00000000 12312103.00000000 30721716.00000000 6370.91796875   648929.87500000 515490.03125000 
0.14200    18951470.00000000 12171928.00000000 30365272.00000000 6225.51855469   636403.12500000 505544.71875000 
0.14300    18726870.00000000 12032831.00000000 30011576.00000000 6081.55566406   623961.87500000 495670.62500000 
0.14400    18503634.00000000 11894597.00000000 29660374.00000000 5939.05468750   611605.18750000 485857.96875000 
0.14500    18281996.00000000 11757363.00000000 29311412.00000000 5797.96142578   599339.81250000 476117.12500000 
0.14600    18061462.00000000 11620777.00000000 28964182.00000000 5658.47167969   587149.12500000 466442.37500000 
0.14700    17842126.00000000 11484941.00000000 28618950.00000000 5520.51953125   575055.31250000 456832.31250000 
0.14800    17623782.00000000 11349623.00000000 28274834.00000000 5384.23535156   563039.62500000 447290.34375000 
0.14900    17406274.00000000 11214854.00000000 27932484.00000000 5249.58886719   551111.81250000 437818.43750000 
0.15000    17189696.00000000 11080632.00000000 27591440.00000000 5116.68017578   539281.12500000 428417.46875000 
0.15100    16973904.00000000 10946721.00000000 27251500.00000000 4985.62695312   527543.31250000 419088.65625000 
0.15200    16758963.00000000 10813300.00000000 26912572.00000000 4856.46826172   515902.59375000 409836.25000000 
0.15300    16544684.00000000 10680267.00000000 26574862.00000000 4729.24316406   504361.84375000 400664.87500000 
0.15400    16331013.00000000 10547501.00000000 26237826.00000000 4603.94140625   492924.00000000 391568.96875000 
0.15500    16118059.00000000 10415082.00000000 25901892.00000000 4480.78320312   481593.40625000 382559.28125000 
0.15600    15905672.00000000 10282992.00000000 25566872.00000000 4359.71923828   470377.43750000 373637.18750000 
0.15700    15693962.00000000 10151152.00000000 25232786.00000000 4240.88769531   459279.68750000 364809.09375000 
0.15800    15482961.00000000 10019615.00000000 24899268.00000000 4124.20214844   448301.93750000 356071.15625000 
0.15900    15272469.00000000 9888430.00000000 24566882.00000000 4009.88012695   437448.40625000 347431.62500000 
0.16000    15062672.00000000 9757494.00000000 24235374.00000000 3897.87255859   426722.37500000 338891.12500000 
0.16100    14853707.00000000 9626901.00000000 23904956.00000000 3788.27685547   416138.93750000 330460.40625000 
0.16200    14645480.00000000 9496670.00000000 23575520.00000000 3681.07324219   405690.78125000 322136.50000000 
0.16300    14437996.00000000 9366753.00000000 23247082.00000000 3576.32910156   395384.84375000 313922.71875000 
0.16400    14231350.00000000 9237312.00000000 22920104.00000000 3474.12573242   385230.53125000 305827.03125000 
0.16500    14025668.00000000 9108203.00000000 22593954.00000000 3374.43408203   375226.25000000 297849.71875000 
0.16600    13820777.00000000 8979557.00000000 22269318.00000000 3277.30761719   365382.37500000 289995.31250000 
0.16700    13616908.00000000 8851405.00000000 21946004.00000000 3182.71655273   355692.21875000 282265.56250000 
0.16800    13414108.00000000 8723759.00000000 21624200.00000000 3090.73291016   346164.96875000 274660.90625000 
0.16900    13212461.00000000 8596716.00000000 21303976.00000000 3001.35229492   336810.68750000 267191.03125000 
0.17000    13011939.00000000 8470194.00000000 20985408.00000000 2914.55761719   327625.25000000 259853.12500000 
