# SAXS profile: number of points = 501, q_min = 0, q_max = 0.5, delta_q = 0.001
#    q    intensity 
0.00000    162232880.00000000 101202448.00000000 256269568.00000000 111439.82812500 8504119.00000000 6716500.50000000 
0.00100    162186848.00000000 101170968.00000000 256191824.00000000 111396.70312500 8501105.00000000 6714123.50000000 
0.00200    162043504.00000000 101078880.00000000 255957680.00000000 111266.50000000 8492231.00000000 6707099.00000000 
0.00300    161797568.00000000 100925424.00000000 255566976.00000000 111048.98437500 8477325.00000000 6695425.00000000 
0.00400    161449520.00000000 100710864.00000000 255021520.00000000 110746.41406250 8456523.00000000 6679114.00000000 
0.00500    161000112.00000000 100434120.00000000 254318208.00000000 110358.32031250 8429900.00000000 6658162.50000000 
0.00600    160458512.00000000 100099544.00000000 253467600.00000000 109886.76562500 8397494.00000000 6632671.50000000 
0.00700    159811392.00000000 99705592.00000000 252465232.00000000 109332.86718750 8359391.00000000 6602705.00000000 
0.00800    159078848.00000000 99254368.00000000 251311936.00000000 108697.37500000 8315710.00000000 6568359.00000000 
0.00900    158253920.00000000 98746448.00000000 250015600.00000000 107983.19531250 8266563.50000000 6529742.00000000 
0.01000    157341312.00000000 98180456.00000000 248577584.00000000 107192.24218750 8211990.50000000 6486836.00000000 
0.01100    156335808.00000000 97560128.00000000 246996320.00000000 106325.78125000 8152281.50000000 6439842.00000000 
0.01200    155241920.00000000 96885784.00000000 245281248.00000000 105386.25781250 8087496.50000000 6388871.50000000 
0.01300    154066720.00000000 96159880.00000000 243434864.00000000 104377.78125000 8017754.00000000 6334068.00000000 
0.01400    152810096.00000000 95384192.00000000 241458288.00000000 103301.21093750 7943350.50000000 6275525.00000000 
0.01500    151472800.00000000 94560352.00000000 239359632.00000000 102161.85937500 7864361.50000000 6213358.50000000 
0.01600    150062032.00000000 93687936.00000000 237142256.00000000 100960.75000000 7781058.00000000 6147839.50000000 
0.01700    148577744.00000000 92772024.00000000 234809360.00000000 99701.36718750  7693576.50000000 6079038.00000000 
0.01800    147024992.00000000 91812656.00000000 232370032.00000000 98387.14062500  7602142.50000000 6007080.00000000 
0.01900    145405680.00000000 90813056.00000000 229822720.00000000 97022.82031250  7506994.50000000 5932217.00000000 
0.02000    143724352.00000000 89773528.00000000 227177424.00000000 95610.75000000  7408406.00000000 5854628.50000000 
0.02100    141981984.00000000 88697672.00000000 224440912.00000000 94154.57812500  7306547.50000000 5774436.50000000 
0.02200    140185552.00000000 87586960.00000000 221616128.00000000 92657.39062500  7201591.50000000 5691869.00000000 
0.02300    138337584.00000000 86443848.00000000 218709024.00000000 91123.69531250  7093928.50000000 5607108.00000000 
0.02400    136440352.00000000 85271464.00000000 215726240.00000000 89558.47656250  6983710.00000000 5520300.00000000 
0.02500    134499104.00000000 84070848.00000000 212673616.00000000 87963.38281250  6871162.50000000 5431732.00000000 
0.02600    132518152.00000000 82845584.00000000 209555728.00000000 86343.09375000  6756578.50000000 5341526.00000000 
0.02700    130501488.00000000 81597312.00000000 206383408.00000000 84700.80468750  6640214.50000000 5249883.00000000 
0.02800    128450952.00000000 80328128.00000000 203157440.00000000 83040.85156250  6522227.50000000 5156945.00000000 
0.02900    126372496.00000000 79040632.00000000 199885680.00000000 81366.92187500  6402950.50000000 5062984.00000000 
0.03000    124268976.00000000 77738032.00000000 196574272.00000000 79682.21093750  6282597.50000000 4968165.50000000 
0.03100    122144504.00000000 76422720.00000000 193232368.00000000 77990.27343750  6161423.50000000 4872725.00000000 
0.03200    120002840.00000000 75096232.00000000 189861376.00000000 76295.21093750  6039661.50000000 4776799.50000000 
0.03300    117848448.00000000 73761280.00000000 186466064.00000000 74599.00781250  5917473.50000000 4680534.50000000 
0.03400    115683216.00000000 72419176.00000000 183057040.00000000 72906.94531250  5795186.50000000 4584151.50000000 
0.03500    113512832.00000000 71073160.00000000 179637152.00000000 71220.71093750  5672942.00000000 4487795.00000000 
0.03600    111340392.00000000 69724528.00000000 176215488.00000000 69543.54687500  5550965.50000000 4391627.50000000 
0.03700    109168456.00000000 68376368.00000000 172793936.00000000 67877.75000000  5429502.00000000 4295840.00000000 
0.03800    107001344.00000000 67030776.00000000 169380112.00000000 66227.21875000  5308670.50000000 4200552.50000000 
0.03900    104842600.00000000 65690476.00000000 165976064.00000000 64594.45703125  5188744.00000000 4105979.75000000 
0.04000    102695064.00000000 64355660.00000000 162590816.00000000 62980.98046875  5069829.00000000 4012209.00000000 
0.04100    100560528.00000000 63029880.00000000 159224832.00000000 61389.74609375  4952217.50000000 3919397.75000000 
0.04200    98443784.00000000 61714224.00000000 155885824.00000000 59822.73828125  4835898.50000000 3827659.25000000 
0.04300    96346528.00000000 60409976.00000000 152578768.00000000 58281.81250000  4721185.00000000 3737113.00000000 
0.04400    94272592.00000000 59119612.00000000 149306672.00000000 56768.68750000  4608098.00000000 3647848.50000000 
0.04500    92222624.00000000 57844588.00000000 146072800.00000000 55285.21093750  4496823.00000000 3560033.75000000 
0.04600    90200904.00000000 56585960.00000000 142882976.00000000 53832.45312500  4387483.50000000 3473710.50000000 
0.04700    88208584.00000000 55345372.00000000 139739408.00000000 52412.42578125  4280178.50000000 3388977.25000000 
0.04800    86248448.00000000 54124280.00000000 136645104.00000000 51025.27343750  4174985.75000000 3305937.25000000 
0.04900    84321648.00000000 52923572.00000000 133603696.00000000 49672.48828125  4072023.50000000 3224633.50000000 
0.05000    82430448.00000000 51744828.00000000 130618024.00000000 48354.49218750  3971360.50000000 3145078.75000000 
0.05100    80577032.00000000 50589424.00000000 127691184.00000000 47071.92187500  3873035.00000000 3067441.50000000 
0.05200    78761456.00000000 49457220.00000000 124823064.00000000 45825.84765625  3777163.25000000 2991697.00000000 
0.05300    76985928.00000000 48349708.00000000 122018632.00000000 44615.65625000  3683793.75000000 2917889.75000000 
0.05400    75251528.00000000 47267640.00000000 119279392.00000000 43442.03906250  3592907.00000000 2846058.00000000 
0.05500    73560272.00000000 46211856.00000000 116605792.00000000 42305.34765625  3504536.25000000 2776222.25000000 
0.05600    71911008.00000000 45181884.00000000 113999784.00000000 41204.53515625  3418730.25000000 2708412.00000000 
0.05700    70305080.00000000 44179476.00000000 111461832.00000000 40139.76562500  3335486.25000000 2642585.25000000 
0.05800    68743800.00000000 43204448.00000000 108993856.00000000 39110.89843750  3254809.50000000 2578804.75000000 
0.05900    67226888.00000000 42256772.00000000 106596320.00000000 38117.30078125  3176670.00000000 2517034.25000000 
0.06000    65755252.00000000 41337332.00000000 104270048.00000000 37158.05468750  3101058.75000000 2457261.25000000 
0.06100    64328756.00000000 40445360.00000000 102013144.00000000 36233.62109375  3027992.50000000 2399480.75000000 
0.06200    62946772.00000000 39581344.00000000 99828424.00000000 35341.50781250  2957399.25000000 2343642.75000000 
0.06300    61609440.00000000 38745988.00000000 97714184.00000000 34482.10546875  2889236.25000000 2289733.25000000 
0.06400    60316944.00000000 37938244.00000000 95670472.00000000 33654.06640625  2823458.50000000 2237719.75000000 
0.06500    59068868.00000000 37157892.00000000 93697160.00000000 32856.66796875  2760056.75000000 2187588.75000000 
0.06600    57864704.00000000 36405036.00000000 91793152.00000000 32088.53515625  2698962.25000000 2139242.25000000 
0.06700    56703500.00000000 35679244.00000000 89957128.00000000 31349.24218750  2640095.00000000 2092700.50000000 
0.06800    55584744.00000000 34980096.00000000 88188080.00000000 30636.92382812  2583401.25000000 2047862.00000000 
0.06900    54507992.00000000 34307740.00000000 86485768.00000000 29951.16210938  2528806.00000000 2004684.75000000 
0.07000    53472424.00000000 33660672.00000000 84848640.00000000 29290.06054688  2476274.00000000 1963158.12500000 
0.07100    52476276.00000000 33038992.00000000 83274816.00000000 28653.20312500  2425693.50000000 1923163.12500000 
0.07200    51519492.00000000 32441724.00000000 81762480.00000000 28039.09179688  2377007.00000000 1884677.37500000 
0.07300    50601200.00000000 31868570.00000000 80311064.00000000 27446.50000000  2330107.75000000 1847626.75000000 
0.07400    49718916.00000000 31318480.00000000 78918088.00000000 26874.27343750  2285004.25000000 1811956.37500000 
0.07500    48872492.00000000 30791018.00000000 77581784.00000000 26321.43750000  2241540.25000000 1777597.12500000 
0.07600    48060740.00000000 30285274.00000000 76300176.00000000 25787.05859375  2199628.75000000 1744494.62500000 
0.07700    47282372.00000000 29800846.00000000 75071416.00000000 25269.66601562  2159211.50000000 1712587.25000000 
0.07800    46535724.00000000 29336256.00000000 73894176.00000000 24768.33593750  2120229.00000000 1681800.87500000 
0.07900    45820252.00000000 28891598.00000000 72765096.00000000 24282.21289062  2082609.75000000 1652089.37500000 
0.08000    45133320.00000000 28465592.00000000 71683656.00000000 23810.08593750  2046249.12500000 1623371.75000000 
0.08100    44474928.00000000 28057512.00000000 70646440.00000000 23351.20312500  2011073.37500000 1595613.62500000 
0.08200    43842668.00000000 27666028.00000000 69651368.00000000 22904.43945312  1976999.62500000 1568737.50000000 
0.08300    43236524.00000000 27290906.00000000 68697576.00000000 22469.13867188  1944002.62500000 1542680.62500000 
0.08400    42653620.00000000 26931132.00000000 67781488.00000000 22044.41796875  1911964.00000000 1517416.87500000 
0.08500    42093836.00000000 26585678.00000000 66902508.00000000 21629.67773438  1880828.00000000 1492864.87500000 
0.08600    41555772.00000000 26254212.00000000 66057684.00000000 21223.85351562  1850536.87500000 1468988.25000000 
0.08700    41037452.00000000 25935328.00000000 65243976.00000000 20826.82421875  1821035.87500000 1445713.62500000 
0.08800    40537948.00000000 25628668.00000000 64460804.00000000 20437.29882812  1792232.37500000 1423034.12500000 
0.08900    40056320.00000000 25333152.00000000 63705868.00000000 20055.57812500  1764119.00000000 1400867.37500000 
0.09000    39590732.00000000 25048190.00000000 62977476.00000000 19680.42382812  1736602.62500000 1379188.37500000 
0.09100    39140432.00000000 24772652.00000000 62272488.00000000 19311.89453125  1709640.37500000 1357956.25000000 
0.09200    38703804.00000000 24506252.00000000 61590828.00000000 18948.98632812  1683206.25000000 1337116.62500000 
0.09300    38280336.00000000 24248074.00000000 60929428.00000000 18591.89062500  1657233.25000000 1316661.50000000 
0.09400    37868620.00000000 23997596.00000000 60286504.00000000 18240.01367188  1631680.50000000 1296528.50000000 
0.09500    37467660.00000000 23754106.00000000 59660680.00000000 17893.15820312  1606524.00000000 1276712.75000000 
0.09600    37076416.00000000 23516426.00000000 59050692.00000000 17551.30664062  1581729.62500000 1257162.12500000 
0.09700    36693816.00000000 23284556.00000000 58455080.00000000 17213.97460938  1557254.75000000 1237877.62500000 
0.09800    36319344.00000000 23057612.00000000 57871604.00000000 16880.66601562  1533084.12500000 1218820.25000000 
0.09900    35952024.00000000 22835424.00000000 57299352.00000000 16551.92382812  1509181.87500000 1199966.12500000 
0.10000    35590280.00000000 22616662.00000000 56736820.00000000 16227.34765625  1485509.37500000 1181310.50000000 
0.10100    35234404.00000000 22401434.00000000 56183088.00000000 15906.79394531  1462065.50000000 1162825.50000000 
0.10200    34883220.00000000 22189356.00000000 55637144.00000000 15590.31640625  1438844.62500000 1144494.87500000 
0.10300    34535912.00000000 21979606.00000000 55097032.00000000 15277.79296875  1415810.87500000 1126323.37500000 
0.10400    34192624.00000000 21772184.00000000 54562712.00000000 14969.23535156  1392971.37500000 1108286.75000000 
0.10500    33851480.00000000 21566308.00000000 54032604.00000000 14664.68750000  1370292.37500000 1090379.12500000 
0.10600    33513412.00000000 21361636.00000000 53506084.00000000 14363.94238281  1347767.37500000 1072584.25000000 
0.10700    33176790.00000000 21158288.00000000 52982160.00000000 14067.38964844  1325398.75000000 1054914.12500000 
0.10800    32841492.00000000 20955422.00000000 52460164.00000000 13774.68847656  1303208.00000000 1037357.56250000 
0.10900    32507174.00000000 20752926.00000000 51939384.00000000 13486.13183594  1281142.12500000 1019902.75000000 
0.11000    32173502.00000000 20550586.00000000 51419920.00000000 13201.72753906  1259234.87500000 1002571.00000000 
0.11100    31840342.00000000 20348648.00000000 50900060.00000000 12921.35253906  1237470.75000000 985334.81250000 
0.11200    31506932.00000000 20146068.00000000 50380328.00000000 12645.17480469  1215864.62500000 968216.18750000 
0.11300    31173590.00000000 19943426.00000000 49859848.00000000 12373.18847656  1194383.00000000 951204.43750000 
0.11400    30839770.00000000 19740320.00000000 49338760.00000000 12105.44921875  1173081.87500000 934310.37500000 
0.11500    30505606.00000000 19536262.00000000 48816428.00000000 11841.93847656  1151921.75000000 917529.87500000 
0.11600    30170628.00000000 19331738.00000000 48292268.00000000 11582.75097656  1130925.12500000 900862.12500000 
0.11700    29834680.00000000 19126200.00000000 47766808.00000000 11327.96679688  1110085.00000000 884334.56250000 
0.11800    29498100.00000000 18919966.00000000 47239124.00000000 11077.25488281  1089438.37500000 867926.31250000 
0.11900    29160214.00000000 18712712.00000000 46710152.00000000 10831.13281250  1068946.75000000 851651.37500000 
0.12000    28821752.00000000 18504486.00000000 46178540.00000000 10589.00292969  1048641.50000000 835510.75000000 
0.12100    28482368.00000000 18295466.00000000 45645876.00000000 10351.41503906  1028521.87500000 819523.87500000 
0.12200    28141960.00000000 18085408.00000000 45111044.00000000 10118.07031250  1008605.12500000 803673.62500000 
0.12300    27800722.00000000 17874626.00000000 44574588.00000000 9889.06152344   988880.43750000 787988.18750000 
0.12400    27458868.00000000 17663068.00000000 44036084.00000000 9664.17382812   969368.68750000 772454.50000000 
0.12500    27116070.00000000 17450426.00000000 43496364.00000000 9443.49218750   950067.00000000 757083.25000000 
0.12600    26772798.00000000 17237338.00000000 42954916.00000000 9226.98339844   930986.43750000 741885.31250000 
0.12700    26428986.00000000 17023526.00000000 42412368.00000000 9014.52441406   912115.50000000 726859.12500000 
0.12800    26084582.00000000 16808922.00000000 41869036.00000000 8806.08984375   893479.12500000 712002.75000000 
0.12900    25740332.00000000 16594171.00000000 41324544.00000000 8601.60253906   875075.06250000 697337.43750000 
0.13000    25395922.00000000 16378893.00000000 40779848.00000000 8400.95214844   856911.00000000 682851.43750000 
0.13100    25051372.00000000 16163240.00000000 40234936.00000000 8204.17480469   838982.93750000 668553.68750000 
0.13200    24707228.00000000 15947500.00000000 39689456.00000000 8011.16308594   821294.68750000 654453.00000000 
0.13300    24363260.00000000 15731765.00000000 39144612.00000000 7821.81787109   803856.37500000 640539.50000000 
0.13400    24019994.00000000 15515938.00000000 38600216.00000000 7635.92578125   786664.75000000 626824.68750000 
0.13500    23677516.00000000 15300228.00000000 38056448.00000000 7453.64453125   769724.18750000 613307.06250000 
0.13600    23335732.00000000 15084864.00000000 37513780.00000000 7274.75195312   753036.12500000 599991.43750000 
0.13700    22995250.00000000 14869908.00000000 36972440.00000000 7099.20410156   736602.87500000 586878.18750000 
0.13800    22655774.00000000 14655456.00000000 36432740.00000000 6926.88183594   720431.68750000 573968.68750000 
0.13900    22317638.00000000 14441598.00000000 35895180.00000000 6757.75537109   704503.25000000 561267.43750000 
0.14000    21981298.00000000 14228474.00000000 35359444.00000000 6591.76904297   688842.87500000 548766.37500000 
0.14100    21646752.00000000 14016295.00000000 34826544.00000000 6428.88183594   673441.25000000 536468.18750000 
0.14200    21313800.00000000 13804994.00000000 34296184.00000000 6268.93212891   658286.50000000 524380.00000000 
0.14300    20983308.00000000 13594959.00000000 33769128.00000000 6111.91845703   643394.25000000 512499.15625000 
0.14400    20654850.00000000 13385886.00000000 33245256.00000000 5957.77929688   628755.68750000 500809.65625000 
0.14500    20328750.00000000 13178286.00000000 32724774.00000000 5806.52587891   614362.43750000 489336.59375000 
0.14600    20005168.00000000 12972097.00000000 32208140.00000000 5658.03222656   600233.12500000 478059.43750000 
0.14700    19684286.00000000 12767423.00000000 31695598.00000000 5512.32324219   586353.93750000 466987.40625000 
0.14800    19366214.00000000 12564309.00000000 31187244.00000000 5369.27880859   572729.81250000 456112.71875000 
0.14900    19050982.00000000 12362969.00000000 30683248.00000000 5229.01562500   559346.25000000 445440.31250000 
0.15000    18738840.00000000 12163354.00000000 30183898.00000000 5091.35693359   546207.18750000 434964.71875000 
0.15100    18429874.00000000 11965527.00000000 29689598.00000000 4956.40576172   533319.37500000 424683.78125000 
0.15200    18124040.00000000 11769773.00000000 29200346.00000000 4824.11425781   520666.68750000 414599.34375000 
0.15300    17821760.00000000 11576014.00000000 28716384.00000000 4694.46923828   508262.03125000 404708.25000000 
0.15400    17522656.00000000 11384343.00000000 28237536.00000000 4567.46679688   496092.03125000 395004.18750000 
0.15500    17227268.00000000 11194698.00000000 27764488.00000000 4443.14257812   484154.53125000 385488.34375000 
0.15600    16935502.00000000 11007360.00000000 27296682.00000000 4321.40576172   472457.09375000 376161.68750000 
0.15700    16647324.00000000 10822301.00000000 26834840.00000000 4202.43066406   460993.56250000 367021.37500000 
0.15800    16363012.00000000 10639442.00000000 26378826.00000000 4086.06030273   449747.21875000 358057.68750000 
0.15900    16082238.00000000 10459034.00000000 25928890.00000000 3972.39355469   438734.03125000 349279.56250000 
0.16000    15805443.00000000 10280935.00000000 25484704.00000000 3861.42675781   427943.75000000 340676.18750000 
0.16100    15532698.00000000 10105293.00000000 25046908.00000000 3753.22729492   417377.93750000 332254.37500000 
0.16200    15263570.00000000 9932076.00000000 24615218.00000000 3647.69653320   407027.12500000 324004.34375000 
0.16300    14998524.00000000 9761282.00000000 24189838.00000000 3544.93481445   396890.40625000 315927.93750000 
0.16400    14737453.00000000 9592956.00000000 23770690.00000000 3444.98632812   386973.03125000 308022.84375000 
0.16500    14480372.00000000 9427123.00000000 23357646.00000000 3347.76123047   377267.12500000 300280.68750000 
0.16600    14227177.00000000 9263873.00000000 22951170.00000000 3253.31298828   367770.68750000 292705.31250000 
0.16700    13977974.00000000 9103113.00000000 22550766.00000000 3161.63867188   358479.03125000 285291.90625000 
0.16800    13732796.00000000 8944827.00000000 22156892.00000000 3072.78759766   349389.09375000 278042.93750000 
0.16900    13491522.00000000 8789031.00000000 21769280.00000000 2986.69775391   340499.96875000 270950.65625000 
0.17000    13254209.00000000 8635683.00000000 21387836.00000000 2903.39990234   331813.25000000 264014.68750000 
