# SAXS profile: number of points = 501, q_min = 0, q_max = 0.5, delta_q = 0.001
#    q    intensity 
0.00000    162238672.00000000 101201584.00000000 256271856.00000000 104094.08593750 8219041.50000000 6491353.50000000 
0.00100    162204432.00000000 101180280.00000000 256217888.00000000 104067.92187500 8217107.50000000 6489864.00000000 
0.00200    162102400.00000000 101116576.00000000 256055712.00000000 103989.03125000 8211393.00000000 6485358.00000000 
0.00300    161931616.00000000 101010072.00000000 255787088.00000000 103858.42187500 8201827.00000000 6477854.00000000 
0.00400    161691424.00000000 100861368.00000000 255408736.00000000 103675.32812500 8188498.50000000 6467339.50000000 
0.00500    161383296.00000000 100671080.00000000 254923040.00000000 103440.12500000 8171362.50000000 6453852.00000000 
0.00600    161006960.00000000 100438560.00000000 254332416.00000000 103153.86718750 8150479.50000000 6437416.00000000 
0.00700    160564512.00000000 100164232.00000000 253633824.00000000 102816.18750000 8125890.50000000 6418035.00000000 
0.00800    160054384.00000000 99848600.00000000 252833088.00000000 102428.39062500 8097587.50000000 6395761.50000000 
0.00900    159477360.00000000 99492376.00000000 251927584.00000000 101990.52343750 8065622.50000000 6370598.00000000 
0.01000    158835312.00000000 99096008.00000000 250919312.00000000 101502.77343750 8030049.50000000 6342629.50000000 
0.01100    158130992.00000000 98660264.00000000 249810880.00000000 100966.73437500 7990925.00000000 6311803.50000000 
0.01200    157363296.00000000 98185200.00000000 248602704.00000000 100383.26562500 7948304.50000000 6278258.50000000 
0.01300    156534608.00000000 97670992.00000000 247295008.00000000 99752.24218750  7902242.50000000 6242000.50000000 
0.01400    155641632.00000000 97119360.00000000 245890480.00000000 99075.52343750  7852759.00000000 6203061.50000000 
0.01500    154689328.00000000 96529696.00000000 244392800.00000000 98353.88281250  7800028.00000000 6161500.50000000 
0.01600    153678000.00000000 95903776.00000000 242802400.00000000 97587.74218750  7743998.00000000 6117434.50000000 
0.01700    152609776.00000000 95241680.00000000 241121488.00000000 96779.27343750  7684852.50000000 6070833.50000000 
0.01800    151485072.00000000 94546200.00000000 239350960.00000000 95928.91406250  7622614.00000000 6021825.50000000 
0.01900    150304944.00000000 93816376.00000000 237494976.00000000 95038.28906250  7557334.00000000 5970464.00000000 
0.02000    149072256.00000000 93053064.00000000 235554976.00000000 94108.01562500  7489220.00000000 5916800.00000000 
0.02100    147787744.00000000 92257872.00000000 233534032.00000000 93139.87500000  7418240.00000000 5860911.50000000 
0.02200    146453360.00000000 91431656.00000000 231433520.00000000 92135.95312500  7344536.50000000 5802858.00000000 
0.02300    145070768.00000000 90575632.00000000 229257632.00000000 91096.39843750  7268235.50000000 5742782.50000000 
0.02400    143640912.00000000 89689944.00000000 227007680.00000000 90023.31250000  7189377.50000000 5680687.50000000 
0.02500    142165360.00000000 88776984.00000000 224687200.00000000 88917.92968750  7108102.50000000 5616706.00000000 
0.02600    140649184.00000000 87837448.00000000 222299472.00000000 87782.25781250  7024559.00000000 5550887.50000000 
0.02700    139090976.00000000 86872424.00000000 219846912.00000000 86617.31250000  6938804.00000000 5483375.50000000 
0.02800    137493376.00000000 85882640.00000000 217330960.00000000 85424.89062500  6850942.50000000 5414165.00000000 
0.02900    135857296.00000000 84870296.00000000 214756528.00000000 84207.00000000  6761080.00000000 5343383.50000000 
0.03000    134187392.00000000 83835224.00000000 212127760.00000000 82964.39843750  6669395.00000000 5271174.50000000 
0.03100    132483400.00000000 82779752.00000000 209445184.00000000 81699.77343750  6575941.50000000 5197582.00000000 
0.03200    130748544.00000000 81705000.00000000 206715168.00000000 80414.06250000  6480828.00000000 5122668.00000000 
0.03300    128984568.00000000 80612272.00000000 203937168.00000000 79109.48437500  6384270.00000000 5046608.00000000 
0.03400    127193136.00000000 79502088.00000000 201117344.00000000 77786.75000000  6286313.00000000 4969416.50000000 
0.03500    125376480.00000000 78377024.00000000 198256672.00000000 76448.75000000  6187021.50000000 4891230.50000000 
0.03600    123536816.00000000 77236224.00000000 195359984.00000000 75096.28125000  6086635.50000000 4812097.50000000 
0.03700    121676864.00000000 76083520.00000000 192430672.00000000 73731.13281250  5985163.50000000 4732196.50000000 
0.03800    119797384.00000000 74918640.00000000 189473232.00000000 72356.27343750  5882794.50000000 4651531.50000000 
0.03900    117901184.00000000 73743664.00000000 186487280.00000000 70971.44531250  5779644.50000000 4570275.00000000 
0.04000    115990992.00000000 72559032.00000000 183478528.00000000 69579.45312500  5675795.00000000 4488452.00000000 
0.04100    114068408.00000000 71366464.00000000 180450160.00000000 68181.52343750  5571437.00000000 4406184.00000000 
0.04200    112134800.00000000 70167888.00000000 177404656.00000000 66779.55468750  5466584.00000000 4323569.50000000 
0.04300    110192896.00000000 68963464.00000000 174346864.00000000 65375.22656250  5361454.00000000 4240705.00000000 
0.04400    108245016.00000000 67755616.00000000 171278384.00000000 63969.82031250  5256080.00000000 4157663.25000000 
0.04500    106292880.00000000 66544672.00000000 168203440.00000000 62565.13281250  5150624.00000000 4074537.50000000 
0.04600    104337720.00000000 65331840.00000000 165123696.00000000 61162.44140625  5045149.50000000 3991431.25000000 
0.04700    102382552.00000000 64118872.00000000 162042224.00000000 59763.70312500  4939846.00000000 3908394.25000000 
0.04800    100428880.00000000 62906536.00000000 158965200.00000000 58369.84375000  4834775.50000000 3825526.25000000 
0.04900    98478416.00000000 61696448.00000000 155893712.00000000 56982.41406250  4730003.50000000 3742948.00000000 
0.05000    96533944.00000000 60488912.00000000 152828080.00000000 55603.16406250  4625648.50000000 3660693.00000000 
0.05100    94596336.00000000 59286700.00000000 149774384.00000000 54233.16406250  4521849.00000000 3578855.50000000 
0.05200    92666952.00000000 58089080.00000000 146736016.00000000 52873.69531250  4418715.00000000 3497509.00000000 
0.05300    90749184.00000000 56898132.00000000 143712432.00000000 51526.06640625  4316280.50000000 3416739.50000000 
0.05400    88843296.00000000 55714804.00000000 140708576.00000000 50191.28906250  4214662.50000000 3336601.75000000 
0.05500    86951360.00000000 54539644.00000000 137726912.00000000 48870.92187500  4113965.50000000 3257184.00000000 
0.05600    85075256.00000000 53374236.00000000 134769520.00000000 47565.80468750  4014252.00000000 3178516.50000000 
0.05700    83215992.00000000 52219268.00000000 131838240.00000000 46277.16406250  3915601.75000000 3100715.50000000 
0.05800    81375832.00000000 51075544.00000000 128936696.00000000 45005.92578125  3818099.75000000 3023786.25000000 
0.05900    79555168.00000000 49944424.00000000 126066000.00000000 43752.78125000  3721845.75000000 2947839.50000000 
0.06000    77755664.00000000 48826076.00000000 123229168.00000000 42519.17578125  3626878.00000000 2872898.25000000 
0.06100    75979384.00000000 47721364.00000000 120427800.00000000 41305.60156250  3533259.00000000 2799019.75000000 
0.06200    74226064.00000000 46631540.00000000 117663400.00000000 40112.87890625  3441064.50000000 2726259.75000000 
0.06300    72498384.00000000 45557444.00000000 114938784.00000000 38941.77734375  3350365.00000000 2654672.00000000 
0.06400    70796648.00000000 44499160.00000000 112254320.00000000 37793.12500000  3261181.75000000 2584295.75000000 
0.06500    69122640.00000000 43457788.00000000 109613664.00000000 36667.14453125  3173594.25000000 2515160.50000000 
0.06600    67476104.00000000 42433940.00000000 107016008.00000000 35564.67578125  3087654.25000000 2447303.25000000 
0.06700    65858436.00000000 41427460.00000000 104464824.00000000 34486.41796875  3003381.25000000 2380773.50000000 
0.06800    64271508.00000000 40439600.00000000 101960072.00000000 33432.34765625  2920839.50000000 2315591.75000000 
0.06900    62714980.00000000 39470884.00000000 99503768.00000000 32403.11718750  2840045.50000000 2251801.25000000 
0.07000    61189564.00000000 38521484.00000000 97097392.00000000 31399.29687500  2761057.50000000 2189419.75000000 
0.07100    59696560.00000000 37591844.00000000 94741072.00000000 30420.58593750  2683867.00000000 2128428.00000000 
0.07200    58236236.00000000 36682388.00000000 92436040.00000000 29467.73437500  2608515.50000000 2068902.50000000 
0.07300    56808908.00000000 35793556.00000000 90182784.00000000 28540.77539062  2535033.25000000 2010863.37500000 
0.07400    55415156.00000000 34925540.00000000 87982936.00000000 27639.91406250  2463416.75000000 1954278.75000000 
0.07500    54055376.00000000 34078008.00000000 85836208.00000000 26764.81640625  2393710.75000000 1899172.25000000 
0.07600    52729968.00000000 33252158.00000000 83743320.00000000 25915.90039062  2325887.50000000 1845564.50000000 
0.07700    51439152.00000000 32447716.00000000 81705464.00000000 25093.15429688  2259960.50000000 1793466.37500000 
0.07800    50182880.00000000 31664590.00000000 79721272.00000000 24296.24804688  2195935.25000000 1742854.50000000 
0.07900    48961276.00000000 30903156.00000000 77792552.00000000 23525.21289062  2133829.50000000 1693742.50000000 
0.08000    47774808.00000000 30163280.00000000 75918256.00000000 22780.04687500  2073604.75000000 1646126.75000000 
0.08100    46623476.00000000 29445242.00000000 74099344.00000000 22060.14257812  2015296.87500000 1600005.12500000 
0.08200    45506488.00000000 28748502.00000000 72335672.00000000 21365.48828125  1958844.12500000 1555356.62500000 
0.08300    44424504.00000000 28073574.00000000 70626312.00000000 20695.88281250  1904276.37500000 1512179.75000000 
0.08400    43377048.00000000 27420098.00000000 68971368.00000000 20050.88085938  1851531.50000000 1470463.75000000 
0.08500    42364088.00000000 26787920.00000000 67370640.00000000 19430.00781250  1800642.87500000 1430188.50000000 
0.08600    41385052.00000000 26176822.00000000 65823688.00000000 18833.19921875  1751546.87500000 1391333.62500000 
0.08700    40440116.00000000 25586834.00000000 64329760.00000000 18259.74804688  1704233.00000000 1353878.75000000 
0.08800    39528144.00000000 25017442.00000000 62889028.00000000 17709.28710938  1658669.25000000 1317814.12500000 
0.08900    38649192.00000000 24468822.00000000 61500404.00000000 17181.39453125  1614824.87500000 1283100.62500000 
0.09000    37802812.00000000 23940268.00000000 60162044.00000000 16675.26171875  1572678.87500000 1249720.12500000 
0.09100    36988600.00000000 23431684.00000000 58875168.00000000 16190.85546875  1532191.50000000 1217647.75000000 
0.09200    36205744.00000000 22942702.00000000 57637416.00000000 15727.07714844  1493304.75000000 1186854.37500000 
0.09300    35453756.00000000 22473050.00000000 56448880.00000000 15283.85351562  1456028.37500000 1157316.37500000 
0.09400    34732028.00000000 22022118.00000000 55307504.00000000 14860.20410156  1420286.62500000 1128981.50000000 
0.09500    34039796.00000000 21589692.00000000 54213528.00000000 14455.61230469  1386036.12500000 1101845.75000000 
0.09600    33376672.00000000 21175358.00000000 53164656.00000000 14069.74218750  1353256.00000000 1075850.62500000 
0.09700    32741778.00000000 20778618.00000000 52161352.00000000 13701.70019531  1321895.12500000 1050985.00000000 
0.09800    32134322.00000000 20399160.00000000 51200416.00000000 13350.89843750  1291900.87500000 1027198.81250000 
0.09900    31553632.00000000 20036382.00000000 50282776.00000000 13016.54882812  1263233.37500000 1004464.75000000 
0.10000    30998982.00000000 19689756.00000000 49405480.00000000 12698.28613281  1235848.50000000 982739.62500000 
0.10100    30469278.00000000 19358824.00000000 48568044.00000000 12395.12109375  1209699.00000000 961987.81250000 
0.10200    29964012.00000000 19043210.00000000 47769044.00000000 12106.71582031  1184733.25000000 942178.25000000 
0.10300    29482310.00000000 18742298.00000000 47007520.00000000 11832.21093750  1160904.00000000 923266.75000000 
0.10400    29023150.00000000 18455462.00000000 46281708.00000000 11570.98242188  1138168.12500000 905219.68750000 
0.10500    28585796.00000000 18182482.00000000 45590468.00000000 11322.52636719  1116479.37500000 887998.81250000 
0.10600    28169334.00000000 17922368.00000000 44932352.00000000 11085.89355469  1095774.00000000 871562.06250000 
0.10700    27772966.00000000 17675060.00000000 44305952.00000000 10860.69335938  1076031.00000000 855868.50000000 
0.10800    27395640.00000000 17439786.00000000 43709832.00000000 10646.24707031  1057179.75000000 840895.56250000 
0.10900    27036856.00000000 17216014.00000000 43142732.00000000 10441.87109375  1039178.31250000 826587.75000000 
0.11000    26695540.00000000 17003082.00000000 42603516.00000000 10247.02343750  1021982.37500000 812920.37500000 
0.11100    26370394.00000000 16800688.00000000 42090320.00000000 10060.95312500  1005543.75000000 799854.12500000 
0.11200    26061336.00000000 16608130.00000000 41602160.00000000 9883.21777344   989813.81250000 787352.93750000 
0.11300    25766814.00000000 16424789.00000000 41137308.00000000 9713.25781250   974753.37500000 775384.93750000 
0.11400    25486258.00000000 16250326.00000000 40694476.00000000 9550.53125000   960319.68750000 763902.37500000 
0.11500    25219034.00000000 16084195.00000000 40273092.00000000 9394.28808594   946464.37500000 752882.37500000 
0.11600    24963834.00000000 15925662.00000000 39870512.00000000 9244.31640625   933143.18750000 742287.68750000 
0.11700    24720112.00000000 15774546.00000000 39486568.00000000 9099.92578125   920323.62500000 732086.18750000 
0.11800    24487054.00000000 15629888.00000000 39119044.00000000 8960.54296875   907955.75000000 722258.12500000 
0.11900    24263706.00000000 15491645.00000000 38767548.00000000 8825.84960938   896008.25000000 712743.62500000 
0.12000    24049380.00000000 15359122.00000000 38430148.00000000 8695.40429688   884432.93750000 703540.43750000 
0.12100    23843390.00000000 15231809.00000000 38106232.00000000 8568.73632812   873208.87500000 694610.37500000 
0.12200    23645086.00000000 15109215.00000000 37794240.00000000 8445.40722656   862286.93750000 685923.50000000 
0.12300    23453428.00000000 14991002.00000000 37493128.00000000 8325.15332031   851649.12500000 677456.50000000 
0.12400    23267924.00000000 14876793.00000000 37201780.00000000 8207.46777344   841242.93750000 669180.00000000 
0.12500    23087810.00000000 14765899.00000000 36918964.00000000 8092.07470703   831060.87500000 661073.06250000 
0.12600    22912606.00000000 14658228.00000000 36644072.00000000 7978.72070312   821055.43750000 653123.25000000 
0.12700    22741548.00000000 14553082.00000000 36375604.00000000 7866.99365234   811210.56250000 645286.00000000 
0.12800    22573996.00000000 14450302.00000000 36112944.00000000 7756.68457031   801497.31250000 637553.37500000 
0.12900    22409418.00000000 14349351.00000000 35855028.00000000 7647.50537109   791884.06250000 629907.00000000 
0.13000    22247412.00000000 14250032.00000000 35600892.00000000 7539.30957031   782360.00000000 622332.68750000 
0.13100    22086968.00000000 14151934.00000000 35350080.00000000 7431.74511719   772892.62500000 614800.81250000 
0.13200    21928138.00000000 14054618.00000000 35101044.00000000 7324.66552734   763469.81250000 607303.75000000 
0.13300    21770290.00000000 13958019.00000000 34853920.00000000 7217.98095703   754069.62500000 599830.75000000 
0.13400    21612846.00000000 13861684.00000000 34607448.00000000 7111.50537109   744680.68750000 592360.87500000 
0.13500    21455470.00000000 13765446.00000000 34361004.00000000 7005.03222656   735281.68750000 584882.62500000 
0.13600    21297658.00000000 13668896.00000000 34113948.00000000 6898.48925781   725857.50000000 577392.06250000 
0.13700    21139178.00000000 13572003.00000000 33866004.00000000 6791.81005859   716404.12500000 569872.12500000 
0.13800    20979698.00000000 13474462.00000000 33616396.00000000 6684.87500000   706906.43750000 562315.56250000 
0.13900    20818850.00000000 13375995.00000000 33364574.00000000 6577.64453125   697354.81250000 554720.00000000 
0.14000    20656398.00000000 13276623.00000000 33110020.00000000 6470.08789062   687745.56250000 547074.87500000 
0.14100    20492098.00000000 13175917.00000000 32852786.00000000 6362.15527344   678065.37500000 539374.18750000 
0.14200    20325698.00000000 13073915.00000000 32591906.00000000 6253.82763672   668314.12500000 531621.37500000 
0.14300    20156934.00000000 12970383.00000000 32327416.00000000 6145.09912109   658484.56250000 523796.53125000 
0.14400    19985722.00000000 12865278.00000000 32058782.00000000 6035.95703125   648575.25000000 515912.40625000 
0.14500    19811840.00000000 12758441.00000000 31786086.00000000 5926.47216797   638586.56250000 507966.28125000 
0.14600    19635034.00000000 12649723.00000000 31508748.00000000 5816.69287109   628520.31250000 499953.50000000 
0.14700    19455610.00000000 12539266.00000000 31226886.00000000 5706.57714844   618371.50000000 491875.15625000 
0.14800    19272978.00000000 12426791.00000000 30940064.00000000 5596.28515625   608141.25000000 483732.53125000 
0.14900    19087448.00000000 12312366.00000000 30648414.00000000 5485.79003906   597832.62500000 475529.06250000 
0.15000    18898796.00000000 12195864.00000000 30351868.00000000 5375.18212891   587453.75000000 467262.96875000 
0.15100    18706910.00000000 12077312.00000000 30050162.00000000 5264.56835938   577006.12500000 458943.15625000 
0.15200    18512226.00000000 11956841.00000000 29743694.00000000 5154.04248047   566494.43750000 450573.78125000 
0.15300    18314366.00000000 11834303.00000000 29432002.00000000 5043.64111328   555925.87500000 442151.50000000 
0.15400    18113372.00000000 11709729.00000000 29115504.00000000 4933.46386719   545300.50000000 433686.21875000 
0.15500    17909512.00000000 11583160.00000000 28794008.00000000 4823.69628906   534637.12500000 425188.43750000 
0.15600    17702634.00000000 11454620.00000000 28467698.00000000 4714.33593750   523932.87500000 416656.68750000 
0.15700    17493094.00000000 11324169.00000000 28137124.00000000 4605.55859375   513200.25000000 408100.00000000 
0.15800    17280734.00000000 11191928.00000000 27801694.00000000 4497.36718750   502443.37500000 399526.40625000 
0.15900    17065802.00000000 11057875.00000000 27462004.00000000 4389.97705078   491682.12500000 390940.00000000 
0.16000    16848244.00000000 10922051.00000000 27118318.00000000 4283.43896484   480913.43750000 382347.34375000 
0.16100    16628562.00000000 10784761.00000000 26770676.00000000 4177.91650391   470152.71875000 373763.59375000 
0.16200    16406569.00000000 10645835.00000000 26419276.00000000 4073.44628906   459411.28125000 365186.15625000 
0.16300    16182512.00000000 10505479.00000000 26064710.00000000 3970.11523438   448692.12500000 356631.81250000 
0.16400    15956744.00000000 10363767.00000000 25706788.00000000 3868.11987305   438011.43750000 348100.93750000 
0.16500    15729142.00000000 10220879.00000000 25345938.00000000 3767.47509766   427376.75000000 339606.56250000 
0.16600    15500087.00000000 10076819.00000000 24982606.00000000 3668.31298828   416796.28125000 331153.71875000 
0.16700    15269666.00000000 9931748.00000000 24616800.00000000 3570.71142578   406281.56250000 322748.96875000 
0.16800    15038053.00000000 9785828.00000000 24248972.00000000 3474.74584961   395842.37500000 314401.25000000 
0.16900    14805583.00000000 9639105.00000000 23879598.00000000 3380.55175781   385488.03125000 306123.15625000 
0.17000    14572369.00000000 9491722.00000000 23508824.00000000 3288.12988281   375229.15625000 297917.18750000 
