# SAXS profile: number of points = 501, q_min = 0, q_max = 0.5, delta_q = 0.001
#    q    intensity 
0.00000    162233360.00000000 101202216.00000000 256269520.00000000 100661.76562500 8082365.50000000 6383433.50000000 
0.00100    162197312.00000000 101177904.00000000 256210048.00000000 100629.96093750 8080130.00000000 6381705.00000000 
0.00200    162085152.00000000 101105832.00000000 256027584.00000000 100536.70312500 8073430.50000000 6376430.50000000 
0.00300    161893968.00000000 100986464.00000000 255722480.00000000 100381.17187500 8062284.50000000 6367639.00000000 
0.00400    161621808.00000000 100818720.00000000 255294080.00000000 100163.35937500 8046704.50000000 6355425.50000000 
0.00500    161271616.00000000 100603736.00000000 254748160.00000000 99884.83593750  8026687.00000000 6339681.50000000 
0.00600    160844416.00000000 100340224.00000000 254077792.00000000 99545.46093750  8002348.00000000 6320530.50000000 
0.00700    160341408.00000000 100032424.00000000 253292928.00000000 99145.75781250  7973685.50000000 6298006.50000000 
0.00800    159760672.00000000 99678584.00000000 252389456.00000000 98687.82812500  7940746.00000000 6272162.50000000 
0.00900    159110544.00000000 99278736.00000000 251369104.00000000 98171.51562500  7903636.50000000 6243015.00000000 
0.01000    158390400.00000000 98835048.00000000 250236208.00000000 97597.42187500  7862372.50000000 6210594.00000000 
0.01100    157599216.00000000 98346464.00000000 248990160.00000000 96967.91406250  7817066.00000000 6174954.00000000 
0.01200    156735536.00000000 97813888.00000000 247633888.00000000 96283.69531250  7767832.00000000 6136272.50000000 
0.01300    155800352.00000000 97239512.00000000 246170144.00000000 95547.45312500  7714753.00000000 6094554.50000000 
0.01400    154800496.00000000 96623072.00000000 244601888.00000000 94758.62500000  7657889.50000000 6049830.50000000 
0.01500    153736496.00000000 95967616.00000000 242929408.00000000 93920.68750000  7597315.00000000 6002281.50000000 
0.01600    152608544.00000000 95272416.00000000 241159584.00000000 93034.28125000  7533224.00000000 5951907.00000000 
0.01700    151417376.00000000 94540272.00000000 239289968.00000000 92101.79687500  7465778.50000000 5898865.00000000 
0.01800    150167360.00000000 93769776.00000000 237329040.00000000 91124.92187500  7395015.00000000 5843231.00000000 
0.01900    148861040.00000000 92964144.00000000 235274528.00000000 90106.04687500  7321073.00000000 5785133.00000000 
0.02000    147496176.00000000 92124016.00000000 233134464.00000000 89046.18750000  7244085.50000000 5724597.00000000 
0.02100    146079776.00000000 91250824.00000000 230909632.00000000 87948.32031250  7164232.50000000 5661806.50000000 
0.02200    144612128.00000000 90346288.00000000 228605392.00000000 86814.17968750  7081599.00000000 5596849.00000000 
0.02300    143096096.00000000 89410880.00000000 226222032.00000000 85646.61718750  6996416.50000000 5529826.00000000 
0.02400    141532656.00000000 88447192.00000000 223767376.00000000 84446.96875000  6908757.00000000 5460908.00000000 
0.02500    139926464.00000000 87455312.00000000 221243760.00000000 83218.22656250  6818805.00000000 5390160.50000000 
0.02600    138278112.00000000 86437920.00000000 218654528.00000000 81962.60156250  6726722.50000000 5317716.00000000 
0.02700    136591008.00000000 85396624.00000000 216002272.00000000 80681.59375000  6632648.00000000 5243716.50000000 
0.02800    134866640.00000000 84331616.00000000 213293760.00000000 79378.55468750  6536728.00000000 5168236.00000000 
0.02900    133110160.00000000 83246912.00000000 210532032.00000000 78055.37500000  6439172.50000000 5091480.50000000 
0.03000    131321528.00000000 82142432.00000000 207720432.00000000 76714.48437500  6340083.50000000 5013523.50000000 
0.03100    129504240.00000000 81019352.00000000 204863376.00000000 75358.74218750  6239609.50000000 4934453.00000000 
0.03200    127661864.00000000 79879512.00000000 201964672.00000000 73989.17968750  6138018.50000000 4854463.50000000 
0.03300    125794896.00000000 78725744.00000000 199030272.00000000 72609.25781250  6035337.50000000 4773659.00000000 
0.03400    123907672.00000000 77558432.00000000 196062128.00000000 71220.67968750  5931803.00000000 4692139.50000000 
0.03500    122003008.00000000 76380440.00000000 193064656.00000000 69825.92968750  5827553.00000000 4610079.50000000 
0.03600    120082008.00000000 75191976.00000000 190042208.00000000 68426.99218750  5722759.00000000 4527500.00000000 
0.03700    118147528.00000000 73995656.00000000 186998576.00000000 67026.07031250  5617551.00000000 4444646.00000000 
0.03800    116203264.00000000 72791304.00000000 183937888.00000000 65625.12500000  5511994.50000000 4361489.00000000 
0.03900    114250720.00000000 71581376.00000000 180863840.00000000 64225.90625000  5406293.00000000 4278277.50000000 
0.04000    112293032.00000000 70367032.00000000 177780512.00000000 62830.77343750  5300707.50000000 4195054.50000000 
0.04100    110331312.00000000 69151240.00000000 174692784.00000000 61441.74218750  5195176.50000000 4111851.50000000 
0.04200    108369536.00000000 67934328.00000000 171602480.00000000 60060.53906250  5090023.00000000 4028948.50000000 
0.04300    106408848.00000000 66717640.00000000 168513808.00000000 58688.31640625  4985207.50000000 3946332.25000000 
0.04400    104452008.00000000 65503344.00000000 165430336.00000000 57327.91406250  4880981.00000000 3864158.00000000 
0.04500    102501016.00000000 64291980.00000000 162356288.00000000 55979.90625000  4777372.00000000 3782449.00000000 
0.04600    100558528.00000000 63085396.00000000 159293248.00000000 54646.53515625  4674564.50000000 3701351.25000000 
0.04700    98625128.00000000 61884340.00000000 156244944.00000000 53328.04296875  4572576.00000000 3620929.25000000 
0.04800    96704016.00000000 60690268.00000000 153215584.00000000 52026.96875000  4471627.50000000 3541280.00000000 
0.04900    94796896.00000000 59504400.00000000 150208160.00000000 50744.13281250  4371754.00000000 3462475.25000000 
0.05000    92904560.00000000 58327664.00000000 147222544.00000000 49480.70312500  4273044.50000000 3384574.50000000 
0.05100    91029720.00000000 57161536.00000000 144266912.00000000 48237.55859375  4175627.00000000 3307663.75000000 
0.05200    89174832.00000000 56006596.00000000 141340016.00000000 47015.90234375  4079499.25000000 3231821.00000000 
0.05300    87340776.00000000 54864028.00000000 138444096.00000000 45816.64062500  3984863.00000000 3157065.50000000 
0.05400    85528200.00000000 53734836.00000000 135582928.00000000 44640.39843750  3891678.00000000 3083486.75000000 
0.05500    83739744.00000000 52619864.00000000 132759544.00000000 43488.16015625  3800069.50000000 3011128.25000000 
0.05600    81974816.00000000 51520008.00000000 129973472.00000000 42360.32812500  3710063.00000000 2940032.25000000 
0.05700    80237480.00000000 50435988.00000000 127227168.00000000 41257.02734375  3621731.25000000 2870238.00000000 
0.05800    78525704.00000000 49368500.00000000 124524120.00000000 40179.11718750  3535098.50000000 2801784.00000000 
0.05900    76842200.00000000 48317920.00000000 121864952.00000000 39127.62890625  3450227.75000000 2734686.25000000 
0.06000    75188696.00000000 47285736.00000000 119250320.00000000 38101.53906250  3367172.25000000 2669021.00000000 
0.06100    73565104.00000000 46271220.00000000 116684240.00000000 37101.83203125  3285916.25000000 2604777.75000000 
0.06200    71971256.00000000 45275736.00000000 114165440.00000000 36128.26562500  3206502.00000000 2541977.75000000 
0.06300    70409336.00000000 44299516.00000000 111696008.00000000 35181.05859375  3128958.25000000 2480651.50000000 
0.06400    68879552.00000000 43342868.00000000 109276200.00000000 34260.13671875  3053297.50000000 2420796.75000000 
0.06500    67382096.00000000 42406560.00000000 106908112.00000000 33365.21484375  2979530.00000000 2362434.00000000 
0.06600    65917724.00000000 41490068.00000000 104591192.00000000 32496.74609375  2907641.00000000 2305531.75000000 
0.06700    64486396.00000000 40594624.00000000 102326360.00000000 31653.77734375  2837642.50000000 2250162.75000000 
0.06800    63088476.00000000 39719404.00000000 100114536.00000000 30836.41992188  2769505.50000000 2196248.75000000 
0.06900    61724044.00000000 38865192.00000000 97955840.00000000 30044.59375000  2703286.25000000 2143806.25000000 
0.07000    60394212.00000000 38032284.00000000 95849912.00000000 29277.30468750  2638899.25000000 2092845.87500000 
0.07100    59097440.00000000 37220076.00000000 93797824.00000000 28534.52343750  2576381.25000000 2043324.87500000 
0.07200    57834884.00000000 36429088.00000000 91799048.00000000 27815.51171875  2515684.50000000 1995249.25000000 
0.07300    56605876.00000000 35659340.00000000 89853040.00000000 27119.85937500  2456790.50000000 1948623.87500000 
0.07400    55410732.00000000 34910284.00000000 87960592.00000000 26447.04687500  2399676.75000000 1903398.25000000 
0.07500    54248560.00000000 34181844.00000000 86121408.00000000 25796.85742188  2344309.50000000 1859512.87500000 
0.07600    53119624.00000000 33474500.00000000 84333920.00000000 25168.04882812  2290637.50000000 1817018.12500000 
0.07700    52023536.00000000 32787566.00000000 82598080.00000000 24560.32812500  2238673.50000000 1775828.62500000 
0.07800    50959988.00000000 32120772.00000000 80913632.00000000 23973.16210938  2188331.50000000 1735956.75000000 
0.07900    49927940.00000000 31473846.00000000 79279264.00000000 23405.79101562  2139574.75000000 1697346.00000000 
0.08000    48927384.00000000 30846866.00000000 77695416.00000000 22857.24804688  2092425.75000000 1659970.37500000 
0.08100    47958016.00000000 30239486.00000000 76159784.00000000 22327.26562500  2046777.62500000 1623787.12500000 
0.08200    47018904.00000000 29651128.00000000 74673784.00000000 21815.02929688  2002596.25000000 1588785.87500000 
0.08300    46109460.00000000 29081418.00000000 73233816.00000000 21319.61718750  1959854.00000000 1554924.12500000 
0.08400    45228940.00000000 28529930.00000000 71839656.00000000 20840.69140625  1918485.37500000 1522156.00000000 
0.08500    44377272.00000000 27996790.00000000 70491976.00000000 20377.48242188  1878457.25000000 1490444.75000000 
0.08600    43552820.00000000 27481010.00000000 69187648.00000000 19929.06445312  1839721.62500000 1459767.00000000 
0.08700    42755976.00000000 26982222.00000000 67926384.00000000 19495.01562500  1802243.87500000 1430062.12500000 
0.08800    41984800.00000000 26500474.00000000 66707620.00000000 19074.66015625  1765956.75000000 1401334.37500000 
0.08900    41240116.00000000 26034758.00000000 65529404.00000000 18667.32617188  1730822.87500000 1373494.62500000 
0.09000    40519572.00000000 25584884.00000000 64391020.00000000 18272.23828125  1696786.87500000 1346550.00000000 
0.09100    39823216.00000000 25150100.00000000 63290612.00000000 17888.98828125  1663812.00000000 1320434.75000000 
0.09200    39149876.00000000 24730364.00000000 62226788.00000000 17516.87500000  1631849.75000000 1295136.25000000 
0.09300    38499232.00000000 24324958.00000000 61199724.00000000 17155.34570312  1600857.62500000 1270598.37500000 
0.09400    37870820.00000000 23933234.00000000 60206700.00000000 16803.81835938  1570784.75000000 1246807.12500000 
0.09500    37262328.00000000 23554654.00000000 59247064.00000000 16461.81250000  1541576.12500000 1223697.25000000 
0.09600    36674480.00000000 23188972.00000000 58319244.00000000 16128.71679688  1513227.87500000 1201253.12500000 
0.09700    36105828.00000000 22835972.00000000 57423028.00000000 15804.29980469  1485668.87500000 1179465.87500000 
0.09800    35555680.00000000 22494274.00000000 56555688.00000000 15487.69042969  1458855.62500000 1158260.62500000 
0.09900    35023288.00000000 22164262.00000000 55716940.00000000 15178.67285156  1432764.62500000 1137627.50000000 
0.10000    34507464.00000000 21845092.00000000 54905236.00000000 14876.94238281  1407351.62500000 1117528.37500000 
0.10100    34008200.00000000 21536146.00000000 54118984.00000000 14581.83007812  1382572.87500000 1097947.25000000 
0.10200    33523984.00000000 21237050.00000000 53358000.00000000 14293.18554688  1358411.37500000 1078847.62500000 
0.10300    33054472.00000000 20947238.00000000 52620076.00000000 14010.71093750  1334807.25000000 1060211.87500000 
0.10400    32599076.00000000 20666654.00000000 51904916.00000000 13733.80371094  1311748.75000000 1041990.87500000 
0.10500    32157124.00000000 20394208.00000000 51210288.00000000 13462.39941406  1289218.00000000 1024191.12500000 
0.10600    31727118.00000000 20129896.00000000 50536032.00000000 13196.14550781  1267146.75000000 1006765.25000000 
0.10700    31309114.00000000 19873104.00000000 49881080.00000000 12934.83007812  1245533.00000000 989699.81250000 
0.10800    30902656.00000000 19623638.00000000 49243384.00000000 12678.16015625  1224358.00000000 972972.06250000 
0.10900    30506516.00000000 19380890.00000000 48622908.00000000 12426.01953125  1203586.00000000 956567.81250000 
0.11000    30120350.00000000 19144582.00000000 48017860.00000000 12178.16113281  1183190.50000000 940462.87500000 
0.11100    29743636.00000000 18913970.00000000 47428488.00000000 11934.25195312  1163146.00000000 924647.50000000 
0.11200    29375382.00000000 18688990.00000000 46852772.00000000 11694.44921875  1143446.25000000 909096.06250000 
0.11300    29015462.00000000 18469104.00000000 46289796.00000000 11458.37109375  1124058.37500000 893796.00000000 
0.11400    28663418.00000000 18254336.00000000 45739508.00000000 11226.05664062  1104977.12500000 878739.31250000 
0.11500    28318566.00000000 18044072.00000000 45200196.00000000 10997.18652344  1086188.25000000 863902.93750000 
0.11600    27979970.00000000 17837910.00000000 44671916.00000000 10771.84277344  1067673.75000000 849278.31250000 
0.11700    27647760.00000000 17635762.00000000 44153372.00000000 10550.03320312  1049418.00000000 834864.68750000 
0.11800    27321552.00000000 17437016.00000000 43643660.00000000 10331.43066406  1031393.68750000 820642.75000000 
0.11900    27000436.00000000 17241638.00000000 43142660.00000000 10116.09277344  1013614.87500000 806591.87500000 
0.12000    26684402.00000000 17049344.00000000 42649192.00000000 9903.94042969   996051.87500000 792723.18750000 
0.12100    26372892.00000000 16859854.00000000 42162848.00000000 9695.00195312   978713.68750000 779022.12500000 
0.12200    26065620.00000000 16673135.00000000 41683272.00000000 9489.19140625   961577.00000000 765478.50000000 
0.12300    25762200.00000000 16488464.00000000 41209752.00000000 9286.46582031   944641.18750000 752100.12500000 
0.12400    25462046.00000000 16306004.00000000 40741776.00000000 9086.77734375   927892.75000000 738864.00000000 
0.12500    25165588.00000000 16125362.00000000 40278020.00000000 8890.12207031   911333.12500000 725765.18750000 
0.12600    24872182.00000000 15946676.00000000 39819852.00000000 8696.59472656   894961.31250000 712816.68750000 
0.12700    24581210.00000000 15769372.00000000 39365436.00000000 8505.92968750   878758.37500000 700003.43750000 
0.12800    24292926.00000000 15593475.00000000 38914624.00000000 8318.35156250   862735.12500000 687327.93750000 
0.12900    24006738.00000000 15418933.00000000 38467280.00000000 8133.82714844   846883.31250000 674775.12500000 
0.13000    23722678.00000000 15245472.00000000 38022944.00000000 7952.21484375   831199.37500000 662352.87500000 
0.13100    23440616.00000000 15072878.00000000 37581824.00000000 7773.53027344   815671.50000000 650057.87500000 
0.13200    23160136.00000000 14901166.00000000 37142660.00000000 7597.84326172   800318.43750000 637891.18750000 
0.13300    22881352.00000000 14730265.00000000 36705844.00000000 7425.07128906   785127.18750000 625851.18750000 
0.13400    22604004.00000000 14560070.00000000 36270772.00000000 7255.26318359   770094.37500000 613936.12500000 
0.13500    22327834.00000000 14390431.00000000 35837964.00000000 7088.38720703   755222.68750000 602139.50000000 
0.13600    22052996.00000000 14221356.00000000 35406784.00000000 6924.36523438   740523.31250000 590466.62500000 
0.13700    21779448.00000000 14052657.00000000 34976680.00000000 6763.26611328   725969.81250000 578914.75000000 
0.13800    21506554.00000000 13884294.00000000 34548280.00000000 6605.01660156   711576.75000000 567495.56250000 
0.13900    21235026.00000000 13716510.00000000 34121048.00000000 6449.63378906   697349.37500000 556192.37500000 
0.14000    20964262.00000000 13548912.00000000 33694764.00000000 6297.04101562   683281.75000000 545012.56250000 
0.14100    20694156.00000000 13381561.00000000 33269432.00000000 6147.33935547   669374.93750000 533957.56250000 
0.14200    20425058.00000000 13214505.00000000 32845316.00000000 6000.33837891   655631.25000000 523029.15625000 
0.14300    20156810.00000000 13047691.00000000 32422114.00000000 5856.16064453   642047.75000000 512219.59375000 
0.14400    19889300.00000000 12881053.00000000 31999822.00000000 5714.64404297   628620.68750000 501537.84375000 
0.14500    19622566.00000000 12714653.00000000 31578100.00000000 5575.83789062   615363.87500000 490983.81250000 
0.14600    19356552.00000000 12548472.00000000 31157890.00000000 5439.71435547   602271.00000000 480552.50000000 
0.14700    19091592.00000000 12382601.00000000 30738382.00000000 5306.18798828   589342.25000000 470256.28125000 
0.14800    18827082.00000000 12216897.00000000 30319850.00000000 5175.30078125   576573.12500000 460082.09375000 
0.14900    18563544.00000000 12051522.00000000 29902084.00000000 5046.91406250   563969.56250000 450036.96875000 
0.15000    18301020.00000000 11886422.00000000 29485496.00000000 4921.12011719   551531.87500000 440120.31250000 
0.15100    18039276.00000000 11721629.00000000 29070120.00000000 4797.73730469   539261.18750000 430332.09375000 
0.15200    17778392.00000000 11557073.00000000 28655992.00000000 4676.91308594   527156.81250000 420676.18750000 
0.15300    17518490.00000000 11392996.00000000 28243042.00000000 4558.46582031   515221.06250000 411149.15625000 
0.15400    17259630.00000000 11229354.00000000 27831254.00000000 4442.37402344   503449.34375000 401752.43750000 
0.15500    17001998.00000000 11066095.00000000 27420912.00000000 4328.63964844   491845.25000000 392486.78125000 
0.15600    16745377.00000000 10903336.00000000 27012384.00000000 4217.22460938   480408.09375000 383354.71875000 
0.15700    16490200.00000000 10741118.00000000 26605410.00000000 4108.07031250   469145.53125000 374355.43750000 
0.15800    16236083.00000000 10579512.00000000 26199870.00000000 4001.13012695   458041.62500000 365481.84375000 
0.15900    15983265.00000000 10418549.00000000 25796658.00000000 3896.49511719   447112.81250000 356746.00000000 
0.16000    15731797.00000000 10258214.00000000 25394962.00000000 3793.97583008   436350.71875000 348141.62500000 
0.16100    15481903.00000000 10098620.00000000 24995678.00000000 3693.64013672   425760.43750000 339670.56250000 
0.16200    15233339.00000000 9939813.00000000 24598330.00000000 3595.43774414   415335.09375000 331332.46875000 
0.16300    14986594.00000000 9781876.00000000 24203614.00000000 3499.30053711   405077.18750000 323130.06250000 
0.16400    14741461.00000000 9624779.00000000 23811222.00000000 3405.29418945   394992.34375000 315059.21875000 
0.16500    14498022.00000000 9468616.00000000 23421394.00000000 3313.31005859   385075.34375000 307119.28125000 
0.16600    14256426.00000000 9313572.00000000 23034206.00000000 3223.33593750   375326.00000000 299313.18750000 
0.16700    14016690.00000000 9159496.00000000 22650016.00000000 3135.41918945   365743.68750000 291641.25000000 
0.16800    13778953.00000000 9006500.00000000 22268442.00000000 3049.44580078   356329.37500000 284103.78125000 
0.16900    13543354.00000000 8854730.00000000 21890522.00000000 2965.49731445   347087.25000000 276697.65625000 
0.17000    13309674.00000000 8704095.00000000 21515426.00000000 2883.49218750   338013.81250000 269427.28125000 
