# SAXS profile: number of points = 501, q_min = 0, q_max = 0.5, delta_q = 0.001
#    q    intensity 
0.00000    162231504.00000000 101202632.00000000 256269712.00000000 102796.18750000 8167656.00000000 6450775.00000000 
0.00100    162194704.00000000 101176744.00000000 256204992.00000000 102759.96093750 8165161.50000000 6448850.00000000 
0.00200    162078352.00000000 101099864.00000000 256013328.00000000 102652.92187500 8157709.50000000 6442978.50000000 
0.00300    161877040.00000000 100974136.00000000 255689024.00000000 102473.68750000 8145357.50000000 6433271.50000000 
0.00400    161588272.00000000 100796800.00000000 255238944.00000000 102224.74218750 8128105.00000000 6419709.00000000 
0.00500    161214512.00000000 100568248.00000000 254657200.00000000 101905.89843750 8105947.50000000 6402303.50000000 
0.00600    160765056.00000000 100290776.00000000 253952832.00000000 101517.39843750 8079000.00000000 6381126.50000000 
0.00700    160227888.00000000 99965464.00000000 253122624.00000000 101060.67968750 8047271.00000000 6356215.00000000 
0.00800    159618224.00000000 99592784.00000000 252168000.00000000 100537.07031250 8011002.50000000 6327678.50000000 
0.00900    158936016.00000000 99171400.00000000 251093536.00000000 99947.28906250  7969968.00000000 6295418.50000000 
0.01000    158177920.00000000 98702680.00000000 249898336.00000000 99294.70312500  7924557.00000000 6259730.50000000 
0.01100    157342560.00000000 98188312.00000000 248586832.00000000 98579.27343750  7874726.00000000 6220605.50000000 
0.01200    156432000.00000000 97628288.00000000 247162640.00000000 97803.30468750  7820624.00000000 6178034.50000000 
0.01300    155451712.00000000 97024248.00000000 245623536.00000000 96968.70312500  7762376.50000000 6132260.50000000 
0.01400    154405056.00000000 96379344.00000000 243977856.00000000 96078.46875000  7700087.00000000 6083297.50000000 
0.01500    153288928.00000000 95691824.00000000 242227616.00000000 95133.89843750  7633901.50000000 6031277.50000000 
0.01600    152107552.00000000 94965168.00000000 240373632.00000000 94137.46093750  7564034.00000000 5976295.00000000 
0.01700    150865120.00000000 94198544.00000000 238421232.00000000 93091.31250000  7490593.00000000 5918531.00000000 
0.01800    149561840.00000000 93395624.00000000 236374160.00000000 91999.65625000  7413732.00000000 5858106.00000000 
0.01900    148199424.00000000 92556200.00000000 234236944.00000000 90863.71093750  7333563.50000000 5795082.00000000 
0.02000    146783504.00000000 91682896.00000000 232011936.00000000 89686.34375000  7250407.50000000 5729604.50000000 
0.02100    145314016.00000000 90776576.00000000 229704496.00000000 88470.70312500  7164308.00000000 5661885.00000000 
0.02200    143794800.00000000 89839312.00000000 227318160.00000000 87219.61718750  7075505.50000000 5592049.50000000 
0.02300    142228560.00000000 88873240.00000000 224856144.00000000 85936.00781250  6984189.50000000 5520168.00000000 
0.02400    140618400.00000000 87878440.00000000 222325376.00000000 84623.03125000  6890519.00000000 5446446.50000000 
0.02500    138964448.00000000 86857840.00000000 219730416.00000000 83282.35156250  6794683.00000000 5371036.00000000 
0.02600    137274080.00000000 85813000.00000000 217069904.00000000 81917.94531250  6696873.00000000 5293991.00000000 
0.02700    135548432.00000000 84746192.00000000 214356160.00000000 80533.24218750  6597288.50000000 5215622.00000000 
0.02800    133788632.00000000 83658488.00000000 211590048.00000000 79129.91406250  6496068.00000000 5135937.00000000 
0.02900    131999336.00000000 82551952.00000000 208774832.00000000 77711.46875000  6393533.50000000 5055156.50000000 
0.03000    130182832.00000000 81428600.00000000 205916864.00000000 76281.53906250  6289711.00000000 4973415.00000000 
0.03100    128342168.00000000 80290816.00000000 203022288.00000000 74841.92187500  6184952.00000000 4890851.50000000 
0.03200    126480104.00000000 79138624.00000000 200093248.00000000 73394.87500000  6079299.00000000 4807657.50000000 
0.03300    124600568.00000000 77974888.00000000 197133904.00000000 71944.97656250  5973051.50000000 4723927.00000000 
0.03400    122704800.00000000 76800832.00000000 194149904.00000000 70492.80468750  5866266.50000000 4639803.50000000 
0.03500    120796192.00000000 75618456.00000000 191146336.00000000 69042.06250000  5759228.00000000 4555402.00000000 
0.03600    118878776.00000000 74429432.00000000 188125056.00000000 67594.78906250  5651999.00000000 4470861.50000000 
0.03700    116953256.00000000 73234872.00000000 185093168.00000000 66153.65625000  5544839.50000000 4386376.00000000 
0.03800    115023440.00000000 72037256.00000000 182052384.00000000 64719.37890625  5437794.50000000 4301983.50000000 
0.03900    113091960.00000000 70838328.00000000 179009008.00000000 63296.42187500  5331183.50000000 4217862.00000000 
0.04000    111160808.00000000 69639640.00000000 175964432.00000000 61885.20312500  5225004.50000000 4134069.75000000 
0.04100    109232160.00000000 68442144.00000000 172926112.00000000 60488.14062500  5119475.50000000 4050804.25000000 
0.04200    107310336.00000000 67248128.00000000 169894512.00000000 59107.02343750  5014723.00000000 3968122.75000000 
0.04300    105395224.00000000 66056436.00000000 166874160.00000000 57744.03515625  4910834.50000000 3886145.50000000 
0.04400    103490176.00000000 64871440.00000000 163867888.00000000 56399.26953125  4807990.00000000 3804908.00000000 
0.04500    101596744.00000000 63693320.00000000 160881264.00000000 55075.44921875  4706210.50000000 3724587.00000000 
0.04600    99716624.00000000 62523084.00000000 157915520.00000000 53773.05078125  4605739.50000000 3645164.00000000 
0.04700    97853600.00000000 61362620.00000000 154974384.00000000 52493.73828125  4506497.50000000 3566821.50000000 
0.04800    96007544.00000000 60212140.00000000 152060976.00000000 51238.19140625  4408714.00000000 3489572.00000000 
0.04900    94181128.00000000 59073800.00000000 149175248.00000000 50007.41406250  4312413.00000000 3413516.50000000 
0.05000    92374568.00000000 57947396.00000000 146324160.00000000 48801.95312500  4217675.00000000 3338644.25000000 
0.05100    90591656.00000000 56834748.00000000 143505968.00000000 47623.00000000  4124614.50000000 3265052.00000000 
0.05200    88831400.00000000 55736616.00000000 140725520.00000000 46470.58984375  4033237.50000000 3192832.50000000 
0.05300    87095752.00000000 54653388.00000000 137983776.00000000 45345.67968750  3943610.00000000 3121993.25000000 
0.05400    85387616.00000000 53585860.00000000 135281984.00000000 44247.74218750  3855751.25000000 3052498.25000000 
0.05500    83705776.00000000 52535200.00000000 132624544.00000000 43177.42578125  3769736.50000000 2984508.00000000 
0.05600    82051624.00000000 51501708.00000000 130009336.00000000 42135.36328125  3685608.50000000 2917971.25000000 
0.05700    80427064.00000000 50486204.00000000 127439816.00000000 41120.43750000  3603317.00000000 2852886.25000000 
0.05800    78832072.00000000 49488400.00000000 124917592.00000000 40133.33593750  3522968.25000000 2789293.25000000 
0.05900    77267608.00000000 48509460.00000000 122441416.00000000 39173.35937500  3444499.00000000 2727223.25000000 
0.06000    75734160.00000000 47549336.00000000 120014520.00000000 38241.07031250  3367978.00000000 2666651.50000000 
0.06100    74230928.00000000 46608644.00000000 117637472.00000000 37334.87890625  3293316.75000000 2607585.00000000 
0.06200    72759848.00000000 45687592.00000000 115309016.00000000 36455.15625000  3220618.00000000 2550064.25000000 
0.06300    71320672.00000000 44786380.00000000 113031544.00000000 35601.49218750  3149774.75000000 2494015.00000000 
0.06400    69913264.00000000 43904740.00000000 110804536.00000000 34773.10156250  3080832.75000000 2439444.75000000 
0.06500    68539224.00000000 43043332.00000000 108627864.00000000 33969.46484375  3013731.25000000 2386349.00000000 
0.06600    67195808.00000000 42202136.00000000 106501912.00000000 33189.88281250  2948513.25000000 2334694.00000000 
0.06700    65885420.00000000 41381008.00000000 104426776.00000000 32433.68359375  2885019.25000000 2284490.25000000 
0.06800    64606684.00000000 40579428.00000000 102402664.00000000 31700.29101562  2823337.75000000 2235683.75000000 
0.06900    63359208.00000000 39798024.00000000 100428312.00000000 30989.21093750  2763393.75000000 2188212.50000000 
0.07000    62144348.00000000 39036264.00000000 98504088.00000000 30299.02539062  2705137.75000000 2142128.50000000 
0.07100    60959588.00000000 38294164.00000000 96628576.00000000 29629.41796875  2648533.25000000 2097330.75000000 
0.07200    59806060.00000000 37570948.00000000 94802024.00000000 28979.37109375  2593509.50000000 2053818.75000000 
0.07300    58683084.00000000 36867552.00000000 93024312.00000000 28348.25195312  2540070.50000000 2011555.00000000 
0.07400    57589712.00000000 36182108.00000000 91292832.00000000 27735.57226562  2488158.00000000 1970486.12500000 
0.07500    56525972.00000000 35516092.00000000 89608848.00000000 27139.92382812  2437708.50000000 1930575.37500000 
0.07600    55490088.00000000 34867856.00000000 87970416.00000000 26560.82226562  2388708.00000000 1891808.00000000 
0.07700    54482680.00000000 34237480.00000000 86376544.00000000 25997.61132812  2341022.25000000 1854138.12500000 
0.07800    53503188.00000000 33624652.00000000 84826928.00000000 25449.39648438  2294667.25000000 1817504.37500000 
0.07900    52550260.00000000 33029076.00000000 83319144.00000000 24915.64062500  2249600.25000000 1781887.75000000 
0.08000    51623488.00000000 32449740.00000000 81853760.00000000 24395.35742188  2205755.50000000 1747221.12500000 
0.08100    50722004.00000000 31886880.00000000 80428824.00000000 23888.07226562  2163068.75000000 1713500.25000000 
0.08200    49845576.00000000 31339572.00000000 79043936.00000000 23393.13085938  2121505.75000000 1680665.00000000 
0.08300    48992856.00000000 30807378.00000000 77696896.00000000 22909.59960938  2081013.87500000 1648681.25000000 
0.08400    48163644.00000000 30290214.00000000 76386888.00000000 22437.46289062  2041546.00000000 1617525.62500000 
0.08500    47356768.00000000 29787592.00000000 75113240.00000000 21975.69531250  2003060.25000000 1587142.87500000 
0.08600    46571988.00000000 29298752.00000000 73874160.00000000 21523.84375000  1965497.00000000 1557499.62500000 
0.08700    45807744.00000000 28823440.00000000 72668304.00000000 21081.54101562  1928824.37500000 1528562.25000000 
0.08800    45064044.00000000 28360956.00000000 71496032.00000000 20648.21484375  1893006.62500000 1500304.12500000 
0.08900    44340072.00000000 27911192.00000000 70353648.00000000 20223.52343750  1857995.12500000 1472683.87500000 
0.09000    43634336.00000000 27473362.00000000 69242208.00000000 19806.62695312  1823743.25000000 1445667.25000000 
0.09100    42947204.00000000 27047074.00000000 68159944.00000000 19397.84765625  1790208.37500000 1419236.50000000 
0.09200    42276972.00000000 26631868.00000000 67104648.00000000 18996.53906250  1757379.75000000 1393351.87500000 
0.09300    41623588.00000000 26227540.00000000 66076412.00000000 18602.36328125  1725224.25000000 1368007.25000000 
0.09400    40986452.00000000 25833210.00000000 65073408.00000000 18214.91601562  1693684.75000000 1343149.00000000 
0.09500    40363896.00000000 25448826.00000000 64095188.00000000 17834.20117188  1662752.87500000 1318758.25000000 
0.09600    39756232.00000000 25073756.00000000 63140076.00000000 17459.96093750  1632383.62500000 1294820.12500000 
0.09700    39162884.00000000 24707666.00000000 62207296.00000000 17091.90039062  1602575.50000000 1271321.62500000 
0.09800    38582828.00000000 24350200.00000000 61296292.00000000 16729.86718750  1573275.87500000 1248221.50000000 
0.09900    38015212.00000000 24000558.00000000 60405316.00000000 16373.88964844  1544478.50000000 1225521.00000000 
0.10000    37459844.00000000 23658868.00000000 59533748.00000000 16023.49902344  1516152.87500000 1203197.00000000 
0.10100    36915904.00000000 23324610.00000000 58680388.00000000 15678.76464844  1488292.50000000 1181232.50000000 
0.10200    36383300.00000000 22997212.00000000 57845136.00000000 15339.86621094  1460864.00000000 1159593.87500000 
0.10300    35860708.00000000 22676630.00000000 57026964.00000000 15006.33593750  1433859.50000000 1138306.37500000 
0.10400    35348816.00000000 22362490.00000000 56223292.00000000 14678.18847656  1407280.75000000 1117319.62500000 
0.10500    34846260.00000000 22054260.00000000 55436412.00000000 14355.60058594  1381081.50000000 1096658.75000000 
0.10600    34352572.00000000 21751948.00000000 54663584.00000000 14038.28613281  1355270.50000000 1076292.37500000 
0.10700    33867840.00000000 21454868.00000000 53904404.00000000 13726.51757812  1329838.75000000 1056210.50000000 
0.10800    33391638.00000000 21163096.00000000 53158376.00000000 13419.79980469  1304755.87500000 1036414.62500000 
0.10900    32923002.00000000 20876048.00000000 52424540.00000000 13118.42871094  1280045.75000000 1016882.25000000 
0.11000    32461962.00000000 20594208.00000000 51702944.00000000 12822.49121094  1255669.37500000 997636.25000000 
0.11100    32008022.00000000 20316256.00000000 50992092.00000000 12531.77050781  1231645.62500000 978644.68750000 
0.11200    31560932.00000000 20042714.00000000 50292368.00000000 12246.24121094  1207954.00000000 959908.18750000 
0.11300    31120438.00000000 19773110.00000000 49602940.00000000 11966.01855469  1184585.00000000 941434.12500000 
0.11400    30686454.00000000 19507502.00000000 48923016.00000000 11691.06738281  1161553.87500000 923211.00000000 
0.11500    30258098.00000000 19245330.00000000 48252676.00000000 11421.33789062  1138852.12500000 905235.06250000 
0.11600    29835854.00000000 18986644.00000000 47591364.00000000 11156.78808594  1116465.12500000 887511.31250000 
0.11700    29418898.00000000 18730978.00000000 46938212.00000000 10897.44238281  1094388.75000000 870016.00000000 
0.11800    29007134.00000000 18478952.00000000 46292924.00000000 10643.22558594  1072620.87500000 852770.50000000 
0.11900    28600644.00000000 18229798.00000000 45656424.00000000 10394.13085938  1051166.37500000 835762.18750000 
0.12000    28198726.00000000 17983258.00000000 45026028.00000000 10150.20996094  1030035.37500000 819001.81250000 
0.12100    27801894.00000000 17739602.00000000 44403584.00000000 9911.38964844   1009206.50000000 802475.50000000 
0.12200    27409520.00000000 17498614.00000000 43788460.00000000 9677.44531250   988682.75000000 786177.37500000 
0.12300    27021604.00000000 17260162.00000000 43179936.00000000 9448.66992188   968472.12500000 770126.81250000 
0.12400    26637674.00000000 17024138.00000000 42577852.00000000 9224.77343750   948555.37500000 754307.31250000 
0.12500    26258084.00000000 16790286.00000000 41981420.00000000 9005.57128906   928949.00000000 738726.75000000 
0.12600    25882944.00000000 16558940.00000000 41391656.00000000 8791.34960938   909643.68750000 723381.31250000 
0.12700    25511272.00000000 16329651.00000000 40807356.00000000 8581.63378906   890640.18750000 708264.87500000 
0.12800    25143446.00000000 16102685.00000000 40229368.00000000 8376.68359375   871927.81250000 693378.25000000 
0.12900    24779894.00000000 15877751.00000000 39657004.00000000 8176.35253906   853524.12500000 678730.43750000 
0.13000    24419530.00000000 15654938.00000000 39090416.00000000 7980.49511719   835409.81250000 664311.31250000 
0.13100    24062910.00000000 15433921.00000000 38528388.00000000 7788.94287109   817585.12500000 650116.50000000 
0.13200    23709766.00000000 15215078.00000000 37972372.00000000 7601.79541016   800065.62500000 636156.93750000 
0.13300    23360438.00000000 14998212.00000000 37421588.00000000 7418.77685547   782831.56250000 622421.81250000 
0.13400    23014326.00000000 14783129.00000000 36875600.00000000 7239.97460938   765879.12500000 608913.93750000 
0.13500    22671732.00000000 14569956.00000000 36335028.00000000 7065.16894531   749216.87500000 595630.81250000 
0.13600    22332634.00000000 14358602.00000000 35799072.00000000 6894.33056641   732836.56250000 582576.25000000 
0.13700    21996752.00000000 14149272.00000000 35268696.00000000 6727.31201172   716740.81250000 569733.31250000 
0.13800    21664088.00000000 13941666.00000000 34742996.00000000 6564.03906250   700916.37500000 557120.12500000 
0.13900    21335094.00000000 13735890.00000000 34222084.00000000 6404.47314453   685380.62500000 544721.75000000 
0.14000    21009332.00000000 13532042.00000000 33706600.00000000 6248.54833984   670112.87500000 532542.81250000 
0.14100    20686760.00000000 13330045.00000000 33196172.00000000 6096.03710938   655114.43750000 520575.65625000 
0.14200    20367586.00000000 13129770.00000000 32690454.00000000 5946.91406250   640387.31250000 508823.31250000 
0.14300    20051480.00000000 12931475.00000000 32189496.00000000 5801.18408203   625919.93750000 497280.81250000 
0.14400    19738908.00000000 12734948.00000000 31693678.00000000 5658.64111328   611710.50000000 485940.81250000 
0.14500    19429498.00000000 12540332.00000000 31202534.00000000 5519.30859375   597766.56250000 474814.18750000 
0.14600    19123208.00000000 12347443.00000000 30716658.00000000 5383.03466797   584084.00000000 463888.50000000 
0.14700    18820644.00000000 12156614.00000000 30235726.00000000 5249.83837891   570647.37500000 453166.31250000 
0.14800    18521110.00000000 11967491.00000000 29759940.00000000 5119.56884766   557452.12500000 442637.53125000 
0.14900    18224668.00000000 11780332.00000000 29288918.00000000 4992.17675781   544513.25000000 432309.81250000 
0.15000    17931964.00000000 11595084.00000000 28822848.00000000 4867.65625000   531810.31250000 422175.34375000 
0.15100    17642110.00000000 11411713.00000000 28362038.00000000 4745.87353516   519351.65625000 412230.31250000 
0.15200    17355936.00000000 11230348.00000000 27906256.00000000 4626.82568359   507127.56250000 402478.71875000 
0.15300    17073054.00000000 11051022.00000000 27455550.00000000 4510.48583984   495137.65625000 392912.40625000 
0.15400    16793270.00000000 10873490.00000000 27009906.00000000 4396.72021484   483376.34375000 383529.56250000 
0.15500    16517163.00000000 10698005.00000000 26569756.00000000 4285.59960938   471843.31250000 374326.34375000 
0.15600    16244244.00000000 10524533.00000000 26134510.00000000 4176.94482422   460534.90625000 365304.65625000 
0.15700    15974702.00000000 10353057.00000000 25704410.00000000 4070.86694336   449445.53125000 356462.87500000 
0.15800    15708459.00000000 10183499.00000000 25279608.00000000 3967.20336914   438572.81250000 347789.56250000 
0.15900    15445656.00000000 10016069.00000000 24860164.00000000 3865.98510742   427916.34375000 339292.78125000 
0.16000    15186208.00000000 9850486.00000000 24445750.00000000 3767.18872070   417471.03125000 330963.03125000 
0.16100    14930292.00000000 9687234.00000000 24036856.00000000 3670.77416992   407235.40625000 322799.96875000 
0.16200    14677592.00000000 9525818.00000000 23633138.00000000 3576.71264648   397206.18750000 314805.18750000 
0.16300    14428358.00000000 9366584.00000000 23234738.00000000 3484.92919922   387378.59375000 306968.78125000 
0.16400    14182456.00000000 9209429.00000000 22841586.00000000 3395.46899414   377752.03125000 299294.18750000 
0.16500    13940040.00000000 9054276.00000000 22453792.00000000 3308.23925781   368320.71875000 291778.21875000 
0.16600    13700959.00000000 8901134.00000000 22071366.00000000 3223.26464844   359087.87500000 284417.87500000 
0.16700    13465271.00000000 8750316.00000000 21694222.00000000 3140.46704102   350039.59375000 277207.12500000 
0.16800    13232936.00000000 8601294.00000000 21322092.00000000 3059.84594727   341185.25000000 270150.65625000 
0.16900    13004053.00000000 8454569.00000000 20955782.00000000 2981.39355469   332512.00000000 263238.59375000 
0.17000    12778363.00000000 8309899.00000000 20594320.00000000 2905.02856445   324027.40625000 256475.14062500 
