# SAXS profile: number of points = 501, q_min = 0, q_max = 0.5, delta_q = 0.001
#    q    intensity 
0.00000    162236880.00000000 101201816.00000000 256271328.00000000 111505.57812500 8506608.00000000 6718494.50000000 
0.00100    162203856.00000000 101179992.00000000 256217488.00000000 111474.74218750 8504488.00000000 6716841.50000000 
0.00200    162102096.00000000 101116592.00000000 256055296.00000000 111382.20312500 8498150.00000000 6711871.00000000 
0.00300    161931840.00000000 101010160.00000000 255784784.00000000 111227.60937500 8487608.00000000 6703570.50000000 
0.00400    161690688.00000000 100861928.00000000 255406880.00000000 111011.93750000 8472949.00000000 6692019.50000000 
0.00500    161381840.00000000 100671040.00000000 254921872.00000000 110735.55468750 8454022.00000000 6677141.50000000 
0.00600    161005888.00000000 100438784.00000000 254329504.00000000 110399.00781250 8431062.00000000 6659036.50000000 
0.00700    160562176.00000000 100163936.00000000 253632832.00000000 110002.16406250 8403953.00000000 6637690.50000000 
0.00800    160051168.00000000 99849480.00000000 252831920.00000000 109546.21875000 8372826.50000000 6613168.00000000 
0.00900    159472944.00000000 99493112.00000000 251925376.00000000 109032.07031250 8337676.00000000 6585506.00000000 
0.01000    158833232.00000000 99097360.00000000 250918320.00000000 108460.37500000 8298532.00000000 6554667.50000000 
0.01100    158127248.00000000 98662320.00000000 249809712.00000000 107832.14062500 8255574.50000000 6520839.50000000 
0.01200    157360592.00000000 98187688.00000000 248602064.00000000 107149.03125000 8208799.00000000 6483978.00000000 
0.01300    156530176.00000000 97674488.00000000 247296112.00000000 106411.35937500 8158202.50000000 6444201.50000000 
0.01400    155639184.00000000 97123064.00000000 245894432.00000000 105620.05468750 8103986.00000000 6401473.50000000 
0.01500    154686080.00000000 96535032.00000000 244399600.00000000 104777.95312500 8046167.50000000 6356007.50000000 
0.01600    153677264.00000000 95910672.00000000 242811920.00000000 103885.18750000 7984934.00000000 6307728.50000000 
0.01700    152611024.00000000 95251336.00000000 241134000.00000000 102944.43750000 7920217.50000000 6256800.00000000 
0.01800    151489424.00000000 94558264.00000000 239369888.00000000 101956.00000000 7852236.00000000 6203265.50000000 
0.01900    150311904.00000000 93831000.00000000 237518896.00000000 100922.38281250 7781066.00000000 6147246.00000000 
0.02000    149082192.00000000 93070664.00000000 235586016.00000000 99844.98437500  7706833.50000000 6088737.00000000 
0.02100    147803008.00000000 92279840.00000000 233573216.00000000 98725.42968750  7629573.50000000 6027921.00000000 
0.02200    146474320.00000000 91457544.00000000 231482672.00000000 97566.31250000  7549477.50000000 5964864.00000000 
0.02300    145097584.00000000 90606456.00000000 229318096.00000000 96368.40625000  7466652.50000000 5899610.00000000 
0.02400    143675808.00000000 89726992.00000000 227081920.00000000 95134.40625000  7381192.00000000 5832311.50000000 
0.02500    142208896.00000000 88820032.00000000 224775824.00000000 93865.89062500  7293311.50000000 5763088.50000000 
0.02600    140701008.00000000 87887256.00000000 222401984.00000000 92565.64843750  7202979.50000000 5691965.00000000 
0.02700    139153536.00000000 86929384.00000000 219967600.00000000 91235.40625000  7110490.50000000 5619081.50000000 
0.02800    137568080.00000000 85948696.00000000 217472480.00000000 89875.77343750  7015843.50000000 5544550.00000000 
0.02900    135946480.00000000 84944616.00000000 214921232.00000000 88490.93750000  6919236.50000000 5468476.50000000 
0.03000    134290048.00000000 83919824.00000000 212315888.00000000 87081.25000000  6820831.00000000 5390940.00000000 
0.03100    132602168.00000000 82874816.00000000 209660096.00000000 85650.50781250  6720737.50000000 5312088.00000000 
0.03200    130884992.00000000 81811448.00000000 206956592.00000000 84199.14843750  6619072.00000000 5232002.00000000 
0.03300    129139320.00000000 80731432.00000000 204210096.00000000 82731.14062500  6515975.50000000 5150773.50000000 
0.03400    127368584.00000000 79634592.00000000 201422544.00000000 81247.09375000  6411577.50000000 5068537.50000000 
0.03500    125573896.00000000 78523320.00000000 198598864.00000000 79750.00000000  6306084.00000000 4985435.00000000 
0.03600    123757632.00000000 77398360.00000000 195739536.00000000 78240.85937500  6199586.50000000 4901497.00000000 
0.03700    121922792.00000000 76261632.00000000 192851248.00000000 76722.92968750  6092186.50000000 4816866.00000000 
0.03800    120070440.00000000 75113504.00000000 189934464.00000000 75198.14062500  5984102.50000000 4731660.50000000 
0.03900    118202608.00000000 73956224.00000000 186993872.00000000 73668.03125000  5875360.50000000 4645984.00000000 
0.04000    116321992.00000000 72791176.00000000 184032608.00000000 72134.39062500  5766205.00000000 4559970.50000000 
0.04100    114430576.00000000 71618880.00000000 181055568.00000000 70599.99218750  5656697.00000000 4473664.00000000 
0.04200    112530240.00000000 70440888.00000000 178062496.00000000 69065.95312500  5547003.00000000 4387215.50000000 
0.04300    110622704.00000000 69258096.00000000 175056624.00000000 67534.89062500  5437213.50000000 4300656.50000000 
0.04400    108710664.00000000 68071976.00000000 172045664.00000000 66008.14843750  5327458.50000000 4214165.50000000 
0.04500    106796136.00000000 66884112.00000000 169029360.00000000 64487.83593750  5217902.50000000 4127765.50000000 
0.04600    104879184.00000000 65695176.00000000 166010672.00000000 62975.20312500  5108601.50000000 4041618.50000000 
0.04700    102964632.00000000 64507004.00000000 162993280.00000000 61472.41406250  4999762.50000000 3955772.00000000 
0.04800    101051640.00000000 63320020.00000000 159980480.00000000 59980.76953125  4891390.50000000 3870330.75000000 
0.04900    99144512.00000000 62135896.00000000 156974432.00000000 58502.07421875  4783618.00000000 3785397.25000000 
0.05000    97243152.00000000 60955408.00000000 153978864.00000000 57037.23437500  4676618.50000000 3701005.25000000 
0.05100    95350176.00000000 59780008.00000000 150996080.00000000 55588.42187500  4570446.50000000 3617264.25000000 
0.05200    93467616.00000000 58610572.00000000 148026944.00000000 54156.66015625  4465185.00000000 3534263.00000000 
0.05300    91596080.00000000 57447756.00000000 145076944.00000000 52743.40625000  4360976.00000000 3452066.00000000 
0.05400    89736960.00000000 56293076.00000000 142147056.00000000 51349.31250000  4257874.00000000 3370709.25000000 
0.05500    87893872.00000000 55147160.00000000 139238528.00000000 49975.94140625  4155974.25000000 3290315.75000000 
0.05600    86065472.00000000 54010692.00000000 136356480.00000000 48623.93750000  4055309.25000000 3210916.75000000 
0.05700    84255736.00000000 52885244.00000000 133502704.00000000 47294.95312500  3956020.75000000 3132567.50000000 
0.05800    82463128.00000000 51771100.00000000 130676360.00000000 45989.73828125  3858152.50000000 3055348.75000000 
0.05900    80691656.00000000 50669028.00000000 127881672.00000000 44708.52343750  3761778.25000000 2979291.50000000 
0.06000    78942080.00000000 49580028.00000000 125120256.00000000 43452.67578125  3666934.50000000 2904455.25000000 
0.06100    77213496.00000000 48504880.00000000 122394280.00000000 42222.64843750  3573717.00000000 2830879.00000000 
0.06200    75509240.00000000 47444264.00000000 119705144.00000000 41018.95312500  3482149.50000000 2758608.50000000 
0.06300    73829264.00000000 46398872.00000000 117054144.00000000 39842.41406250  3392299.50000000 2687669.25000000 
0.06400    72175320.00000000 45368720.00000000 114443368.00000000 38692.91796875  3304178.25000000 2618098.25000000 
0.06500    70547056.00000000 44354928.00000000 111874488.00000000 37571.22656250  3217867.50000000 2549954.00000000 
0.06600    68946288.00000000 43358088.00000000 109347216.00000000 36477.87890625  3133367.50000000 2483227.50000000 
0.06700    67373920.00000000 42378620.00000000 106865040.00000000 35412.64062500  3050712.25000000 2417939.75000000 
0.06800    65830204.00000000 41416536.00000000 104427392.00000000 34375.92187500  2969921.25000000 2354150.50000000 
0.06900    64315536.00000000 40472628.00000000 102036104.00000000 33367.83593750  2891044.75000000 2291837.25000000 
0.07000    62830640.00000000 39546964.00000000 99691464.00000000 32388.16015625  2814066.25000000 2231027.50000000 
0.07100    61376200.00000000 38640488.00000000 97395144.00000000 31437.11328125  2739013.25000000 2171724.25000000 
0.07200    59952644.00000000 37752552.00000000 95146176.00000000 30514.30273438  2665888.75000000 2113952.50000000 
0.07300    58560196.00000000 36884184.00000000 92947344.00000000 29620.33984375  2594701.50000000 2057702.12500000 
0.07400    57199312.00000000 36035012.00000000 90797408.00000000 28754.27148438  2525446.75000000 2002960.12500000 
0.07500    55869976.00000000 35205844.00000000 88697104.00000000 27915.95312500  2458097.75000000 1949736.62500000 
0.07600    54572572.00000000 34396344.00000000 86647096.00000000 27105.04296875  2392689.25000000 1898022.75000000 
0.07700    53307476.00000000 33606756.00000000 84648024.00000000 26321.62304688  2329188.50000000 1847818.75000000 
0.07800    52074272.00000000 32836668.00000000 82698968.00000000 25564.73046875  2267568.50000000 1799106.37500000 
0.07900    50872976.00000000 32086862.00000000 80800792.00000000 24834.25000000  2207810.00000000 1751861.25000000 
0.08000    49703676.00000000 31356672.00000000 78952928.00000000 24129.48828125  2149930.50000000 1706075.25000000 
0.08100    48566544.00000000 30646658.00000000 77155936.00000000 23450.09570312  2093862.00000000 1661739.87500000 
0.08200    47461596.00000000 29956566.00000000 75408864.00000000 22795.36523438  2039599.75000000 1618815.12500000 
0.08300    46387552.00000000 29285786.00000000 73711096.00000000 22164.87500000  1987104.75000000 1577289.62500000 
0.08400    45344904.00000000 28634824.00000000 72063792.00000000 21557.80468750  1936355.50000000 1537132.25000000 
0.08500    44333680.00000000 28003074.00000000 70465328.00000000 20973.64257812  1887318.37500000 1498331.37500000 
0.08600    43353092.00000000 27390654.00000000 68915080.00000000 20411.99218750  1839942.62500000 1460842.37500000 
0.08700    42403004.00000000 26797096.00000000 67412720.00000000 19871.53710938  1794209.12500000 1424630.75000000 
0.08800    41482552.00000000 26222130.00000000 65957724.00000000 19352.08593750  1750067.25000000 1389687.50000000 
0.08900    40591704.00000000 25665804.00000000 64549528.00000000 18852.71093750  1707468.62500000 1355967.62500000 
0.09000    39729964.00000000 25127608.00000000 63187788.00000000 18372.83789062  1666380.37500000 1323437.00000000 
0.09100    38896964.00000000 24607260.00000000 61870912.00000000 17911.66601562  1626772.75000000 1292065.00000000 
0.09200    38091636.00000000 24104326.00000000 60597900.00000000 17468.30468750  1588571.25000000 1261812.00000000 
0.09300    37314252.00000000 23618674.00000000 59368820.00000000 17042.35742188  1551752.75000000 1232652.75000000 
0.09400    36563400.00000000 23149682.00000000 58181316.00000000 16632.69335938  1516262.00000000 1204537.25000000 
0.09500    35838344.00000000 22697410.00000000 57036248.00000000 16238.90332031  1482063.25000000 1177447.75000000 
0.09600    35139656.00000000 22261056.00000000 55931520.00000000 15860.17578125  1449093.62500000 1151327.62500000 
0.09700    34465392.00000000 21840254.00000000 54866352.00000000 15495.76367188  1417322.62500000 1126141.75000000 
0.09800    33815328.00000000 21434842.00000000 53839440.00000000 15144.86328125  1386695.00000000 1101870.50000000 
0.09900    33188730.00000000 21044240.00000000 52849960.00000000 14806.98828125  1357159.25000000 1078462.00000000 
0.10000    32585252.00000000 20668050.00000000 51897060.00000000 14481.25976562  1328675.00000000 1055884.12500000 
0.10100    32003850.00000000 20305670.00000000 50978872.00000000 14167.13867188  1301189.37500000 1034102.18750000 
0.10200    31444192.00000000 19956858.00000000 50094888.00000000 13863.94238281  1274680.50000000 1013077.68750000 
0.10300    30904924.00000000 19621086.00000000 49243596.00000000 13571.01660156  1249067.00000000 992776.87500000 
0.10400    30385960.00000000 19298008.00000000 48424712.00000000 13287.65722656  1224332.50000000 973160.25000000 
0.10500    29886214.00000000 18987276.00000000 47636084.00000000 13013.50781250  1200422.62500000 954200.93750000 
0.10600    29404934.00000000 18687868.00000000 46876328.00000000 12747.77734375  1177285.75000000 935857.93750000 
0.10700    28941226.00000000 18400086.00000000 46145648.00000000 12490.13671875  1154906.75000000 918100.75000000 
0.10800    28494988.00000000 18122768.00000000 45442052.00000000 12239.74804688  1133216.00000000 900900.50000000 
0.10900    28065062.00000000 17855936.00000000 44764488.00000000 11996.41113281  1112200.50000000 884223.56250000 
0.11000    27650600.00000000 17599012.00000000 44111632.00000000 11759.42968750  1091773.37500000 868036.18750000 
0.11100    27251508.00000000 17351630.00000000 43482984.00000000 11528.59082031  1071966.00000000 852317.62500000 
0.11200    26866258.00000000 17113314.00000000 42876820.00000000 11303.27929688  1052697.37500000 837034.43750000 
0.11300    26494728.00000000 16883344.00000000 42292052.00000000 11083.05566406  1033950.56250000 822159.31250000 
0.11400    26136282.00000000 16661793.00000000 41727952.00000000 10867.78906250  1015682.93750000 807669.43750000 
0.11500    25789916.00000000 16447859.00000000 41183516.00000000 10656.88867188  997868.37500000 793539.00000000 
0.11600    25455108.00000000 16241345.00000000 40657460.00000000 10450.11816406  980479.93750000 779744.12500000 
0.11700    25131332.00000000 16041701.00000000 40148656.00000000 10247.31054688  963486.50000000 766259.56250000 
0.11800    24817880.00000000 15848662.00000000 39656416.00000000 10047.95214844  946858.56250000 753068.43750000 
0.11900    24514152.00000000 15661744.00000000 39179624.00000000 9851.99316406   930567.25000000 740145.93750000 
0.12000    24219514.00000000 15480534.00000000 38717492.00000000 9659.02441406   914601.12500000 727477.68750000 
0.12100    23933648.00000000 15304865.00000000 38269020.00000000 9469.08789062   898931.68750000 715043.81250000 
0.12200    23655702.00000000 15134177.00000000 37833240.00000000 9281.87792969   883541.93750000 702831.81250000 
0.12300    23385196.00000000 14968334.00000000 37409400.00000000 9097.14062500   868409.12500000 690822.31250000 
0.12400    23121684.00000000 14806812.00000000 36996328.00000000 8914.97167969   853511.18750000 678997.06250000 
0.12500    22864664.00000000 14649364.00000000 36593904.00000000 8735.00878906   838840.25000000 667356.68750000 
0.12600    22613578.00000000 14495767.00000000 36200892.00000000 8557.29980469   824377.68750000 655878.18750000 
0.12700    22368362.00000000 14345585.00000000 35817000.00000000 8381.71093750   810104.12500000 644552.50000000 
0.12800    22128034.00000000 14198576.00000000 35440924.00000000 8208.25292969   796022.50000000 633369.62500000 
0.12900    21892568.00000000 14054487.00000000 35072112.00000000 8036.80322266   782111.18750000 622328.06250000 
0.13000    21661190.00000000 13913175.00000000 34710336.00000000 7867.45312500   768356.37500000 611410.43750000 
0.13100    21433830.00000000 13774272.00000000 34354576.00000000 7699.99755859   754762.87500000 600616.50000000 
0.13200    21210258.00000000 13637494.00000000 34004560.00000000 7534.54980469   741311.50000000 589936.18750000 
0.13300    20989758.00000000 13502823.00000000 33659656.00000000 7371.13574219   728001.25000000 579369.37500000 
0.13400    20772178.00000000 13369759.00000000 33319420.00000000 7209.72167969   714825.37500000 568903.25000000 
0.13500    20557238.00000000 13238435.00000000 32983166.00000000 7050.36376953   701779.06250000 558544.50000000 
0.13600    20344752.00000000 13108432.00000000 32650418.00000000 6893.08544922   688870.62500000 548281.25000000 
0.13700    20134340.00000000 12979639.00000000 32321116.00000000 6737.91259766   676078.12500000 538122.50000000 
0.13800    19925676.00000000 12852000.00000000 31994422.00000000 6584.92187500   663409.43750000 528053.18750000 
0.13900    19718926.00000000 12725163.00000000 31670334.00000000 6434.08984375   650863.18750000 518081.03125000 
0.14000    19513560.00000000 12599174.00000000 31348454.00000000 6285.61279297   638442.68750000 508209.81250000 
0.14100    19309300.00000000 12473868.00000000 31028286.00000000 6139.43798828   626141.50000000 498430.46875000 
0.14200    19106136.00000000 12349056.00000000 30709822.00000000 5995.72509766   613962.87500000 488750.56250000 
0.14300    18903928.00000000 12224713.00000000 30392380.00000000 5854.40576172   601913.87500000 479161.03125000 
0.14400    18702482.00000000 12100598.00000000 30076206.00000000 5715.62744141   589985.06250000 469672.43750000 
0.14500    18501812.00000000 11976905.00000000 29760882.00000000 5579.41015625   578190.50000000 460286.68750000 
0.14600    18301492.00000000 11853268.00000000 29446210.00000000 5445.86669922   566529.37500000 451003.75000000 
0.14700    18101818.00000000 11729876.00000000 29132084.00000000 5315.02050781   554996.62500000 441824.59375000 
0.14800    17902540.00000000 11606456.00000000 28818026.00000000 5186.92724609   543599.87500000 432747.87500000 
0.14900    17703346.00000000 11483029.00000000 28504356.00000000 5061.60791016   532345.18750000 423781.87500000 
0.15000    17504424.00000000 11359532.00000000 28191052.00000000 4939.16894531   521231.00000000 414925.68750000 
0.15100    17305672.00000000 11236048.00000000 27877424.00000000 4819.59082031   510261.21875000 406184.28125000 
0.15200    17107244.00000000 11112392.00000000 27563988.00000000 4702.93164062   499443.40625000 397560.00000000 
0.15300    16908826.00000000 10988616.00000000 27250610.00000000 4589.23925781   488776.87500000 389054.90625000 
0.15400    16710441.00000000 10864716.00000000 26936808.00000000 4478.55175781   478264.53125000 380666.40625000 
0.15500    16512174.00000000 10740536.00000000 26623156.00000000 4370.77880859   467910.28125000 372405.56250000 
0.15600    16314069.00000000 10616348.00000000 26309258.00000000 4266.07226562   457718.06250000 364267.34375000 
0.15700    16115921.00000000 10492020.00000000 25995186.00000000 4164.39062500   447687.43750000 356259.81250000 
0.15800    15917826.00000000 10367385.00000000 25681088.00000000 4065.66430664   437819.46875000 348377.68750000 
0.15900    15720005.00000000 10242694.00000000 25366904.00000000 3969.96289062   428122.37500000 340630.25000000 
0.16000    15522151.00000000 10117855.00000000 25052484.00000000 3877.24829102   418594.50000000 333014.25000000 
0.16100    15324556.00000000 9992960.00000000 24738302.00000000 3787.53222656   409239.59375000 325531.21875000 
0.16200    15127118.00000000 9867932.00000000 24424020.00000000 3700.69213867   400058.25000000 318187.40625000 
0.16300    14929942.00000000 9742815.00000000 24109914.00000000 3616.74658203   391049.84375000 310977.90625000 
0.16400    14732977.00000000 9617722.00000000 23796008.00000000 3535.72192383   382219.06250000 303907.09375000 
0.16500    14536401.00000000 9492626.00000000 23482400.00000000 3457.42773438   373558.50000000 296974.50000000 
0.16600    14340113.00000000 9367448.00000000 23168866.00000000 3381.93847656   365075.90625000 290176.87500000 
0.16700    14144213.00000000 9242476.00000000 22855798.00000000 3309.10742188   356766.81250000 283517.81250000 
0.16800    13948777.00000000 9117556.00000000 22543288.00000000 3238.89501953   348633.46875000 276997.15625000 
0.16900    13753994.00000000 8992736.00000000 22231386.00000000 3171.29711914   340676.31250000 270615.18750000 
0.17000    13559575.00000000 8868115.00000000 21920074.00000000 3106.14672852   332890.96875000 264367.50000000 
