# SAXS profile: number of points = 501, q_min = 0, q_max = 0.5, delta_q = 0.001
#    q    intensity 
0.00000    162235904.00000000 101201744.00000000 256271296.00000000 105446.62500000 8272272.50000000 6533428.00000000 
0.00100    162196464.00000000 101175600.00000000 256204528.00000000 105414.42968750 8269924.00000000 6531572.00000000 
0.00200    162072816.00000000 101097168.00000000 256007808.00000000 105318.53125000 8262909.00000000 6526044.50000000 
0.00300    161866096.00000000 100967696.00000000 255677024.00000000 105158.31250000 8251229.00000000 6516869.50000000 
0.00400    161571744.00000000 100786016.00000000 255214736.00000000 104934.67187500 8234877.00000000 6503988.00000000 
0.00500    161194048.00000000 100553192.00000000 254623328.00000000 104647.81250000 8213973.00000000 6487541.50000000 
0.00600    160734784.00000000 100267432.00000000 253899904.00000000 104298.51562500 8188511.00000000 6467447.00000000 
0.00700    160194528.00000000 99933000.00000000 253051120.00000000 103887.32031250 8158515.00000000 6443785.00000000 
0.00800    159570592.00000000 99549888.00000000 252075376.00000000 103415.96093750 8124016.00000000 6416641.00000000 
0.00900    158871360.00000000 99116640.00000000 250975008.00000000 102884.29687500 8085275.00000000 6386094.00000000 
0.01000    158096256.00000000 98635824.00000000 249751792.00000000 102294.07031250 8042084.00000000 6352121.00000000 
0.01100    157244048.00000000 98106728.00000000 248408848.00000000 101646.62500000 7994748.00000000 6314809.50000000 
0.01200    156315552.00000000 97531784.00000000 246947056.00000000 100942.72656250 7943295.00000000 6274281.50000000 
0.01300    155315136.00000000 96911192.00000000 245371376.00000000 100185.53906250 7887839.50000000 6230546.50000000 
0.01400    154242304.00000000 96245944.00000000 243681776.00000000 99373.76562500  7828468.00000000 6183768.50000000 
0.01500    153100784.00000000 95539296.00000000 241885616.00000000 98511.91406250  7765299.50000000 6133986.50000000 
0.01600    151893456.00000000 94790288.00000000 239982208.00000000 97600.96875000  7698429.50000000 6081326.50000000 
0.01700    150619008.00000000 94001048.00000000 237978080.00000000 96641.65625000  7628066.00000000 6025923.50000000 
0.01800    149282480.00000000 93172368.00000000 235873296.00000000 95637.34375000  7554325.00000000 5967786.50000000 
0.01900    147888032.00000000 92306896.00000000 233674160.00000000 94589.12500000  7477293.50000000 5907079.00000000 
0.02000    146432896.00000000 91405376.00000000 231385712.00000000 93500.24218750  7397170.50000000 5843952.00000000 
0.02100    144925568.00000000 90469736.00000000 229009744.00000000 92372.15625000  7314118.00000000 5778481.50000000 
0.02200    143363872.00000000 89501776.00000000 226551008.00000000 91206.24218750  7228230.00000000 5710817.00000000 
0.02300    141752592.00000000 88502544.00000000 224012320.00000000 90006.64062500  7139704.50000000 5641059.00000000 
0.02400    140094368.00000000 87473984.00000000 221400880.00000000 88774.45312500  7048723.00000000 5569295.50000000 
0.02500    138393552.00000000 86418416.00000000 218720128.00000000 87512.00000000  6955430.00000000 5495758.50000000 
0.02600    136649920.00000000 85336760.00000000 215972912.00000000 86222.33593750  6859994.50000000 5420512.00000000 
0.02700    134868368.00000000 84231120.00000000 213166576.00000000 84907.78125000  6762551.00000000 5343710.00000000 
0.02800    133050744.00000000 83102824.00000000 210303104.00000000 83569.78125000  6663316.00000000 5265481.00000000 
0.02900    131202144.00000000 81955544.00000000 207389952.00000000 82211.82812500  6562491.00000000 5185987.50000000 
0.03000    129323840.00000000 80788792.00000000 204429392.00000000 80835.86718750  6460132.50000000 5105310.50000000 
0.03100    127419112.00000000 79606768.00000000 201427040.00000000 79444.86718750  6356528.50000000 5023598.50000000 
0.03200    125490352.00000000 78408304.00000000 198387856.00000000 78040.10937500  6251837.50000000 4940993.50000000 
0.03300    123542192.00000000 77197960.00000000 195315776.00000000 76625.03125000  6146156.50000000 4857670.50000000 
0.03400    121575488.00000000 75976744.00000000 192216112.00000000 75201.40625000  6039709.00000000 4773714.00000000 
0.03500    119595576.00000000 74746872.00000000 189095200.00000000 73771.27343750  5932617.00000000 4689258.50000000 
0.03600    117603272.00000000 73508800.00000000 185953904.00000000 72337.62500000  5825140.00000000 4604485.00000000 
0.03700    115602368.00000000 72266112.00000000 182799792.00000000 70902.53906250  5717324.00000000 4519457.00000000 
0.03800    113596200.00000000 71017872.00000000 179633376.00000000 69467.49218750  5609402.50000000 4434264.50000000 
0.03900    111585856.00000000 69768112.00000000 176465056.00000000 68034.90625000  5501478.50000000 4349123.50000000 
0.04000    109576328.00000000 68517624.00000000 173294336.00000000 66607.30468750  5393763.50000000 4264105.00000000 
0.04100    107567952.00000000 67268984.00000000 170127216.00000000 65185.85937500  5286306.50000000 4179332.00000000 
0.04200    105565536.00000000 66023044.00000000 166967392.00000000 63772.66796875  5179369.00000000 4094926.25000000 
0.04300    103569920.00000000 64781284.00000000 163819008.00000000 62369.72656250  5072953.50000000 4010958.00000000 
0.04400    101584072.00000000 63545452.00000000 160688192.00000000 60978.70703125  4967301.50000000 3927557.00000000 
0.04500    99611000.00000000 62317260.00000000 157573520.00000000 59601.32031250  4862505.50000000 3844822.25000000 
0.04600    97651520.00000000 61097576.00000000 154480432.00000000 58238.51562500  4758639.50000000 3762811.75000000 
0.04700    95710128.00000000 59888088.00000000 151415152.00000000 56892.51171875  4655892.00000000 3681702.25000000 
0.04800    93785848.00000000 58689920.00000000 148379328.00000000 55564.18750000  4554312.00000000 3601510.75000000 
0.04900    91883576.00000000 57504560.00000000 145375424.00000000 54254.71484375  4453990.50000000 3522289.00000000 
0.05000    90002856.00000000 56333012.00000000 142406688.00000000 52965.58203125  4355073.00000000 3444186.00000000 
0.05100    88146560.00000000 55176376.00000000 139475600.00000000 51697.86328125  4257617.00000000 3367230.75000000 
0.05200    86315952.00000000 54035716.00000000 136585552.00000000 50452.41406250  4161705.50000000 3291464.25000000 
0.05300    84513440.00000000 52912224.00000000 133739784.00000000 49229.89843750  4067427.25000000 3216994.25000000 
0.05400    82739816.00000000 51806032.00000000 130938552.00000000 48031.01953125  3974823.00000000 3143873.50000000 
0.05500    80995840.00000000 50718900.00000000 128184624.00000000 46856.50390625  3883976.50000000 3072075.50000000 
0.05600    79283696.00000000 49650976.00000000 125480904.00000000 45707.81640625  3794923.50000000 3001736.25000000 
0.05700    77604488.00000000 48603540.00000000 122827656.00000000 44584.30468750  3707720.75000000 2932867.25000000 
0.05800    75957968.00000000 47576568.00000000 120227288.00000000 43486.79296875  3622417.75000000 2865442.75000000 
0.05900    74346688.00000000 46571292.00000000 117681688.00000000 42415.31640625  3539054.00000000 2799584.25000000 
0.06000    72770120.00000000 45587608.00000000 115191096.00000000 41370.68359375  3457630.00000000 2735218.50000000 
0.06100    71230024.00000000 44626396.00000000 112757528.00000000 40352.41796875  3378136.00000000 2672463.75000000 
0.06200    69726376.00000000 43688004.00000000 110380968.00000000 39360.86718750  3300685.25000000 2611245.25000000 
0.06300    68258824.00000000 42771996.00000000 108063248.00000000 38396.33984375  3225239.75000000 2551601.75000000 
0.06400    66828600.00000000 41879396.00000000 105803008.00000000 37458.03515625  3151775.25000000 2493542.50000000 
0.06500    65436336.00000000 41010004.00000000 103602520.00000000 36545.92578125  3080305.75000000 2437083.25000000 
0.06600    64081216.00000000 40164172.00000000 101461376.00000000 35660.87109375  3010835.00000000 2382185.25000000 
0.06700    62763836.00000000 39341632.00000000 99379200.00000000 34800.46093750  2943364.50000000 2328861.25000000 
0.06800    61483836.00000000 38542832.00000000 97356800.00000000 33966.09375000  2877845.75000000 2277102.25000000 
0.06900    60241432.00000000 37767036.00000000 95393328.00000000 33156.92968750  2814276.75000000 2226877.00000000 
0.07000    59036068.00000000 37014676.00000000 93488536.00000000 32371.69921875  2752630.25000000 2178141.00000000 
0.07100    57867752.00000000 36285132.00000000 91642720.00000000 31610.91992188  2692847.75000000 2130916.75000000 
0.07200    56735800.00000000 35578644.00000000 89853288.00000000 30873.59960938  2634962.00000000 2085159.87500000 
0.07300    55639564.00000000 34894568.00000000 88121576.00000000 30159.17773438  2578865.25000000 2040851.50000000 
0.07400    54578700.00000000 34232864.00000000 86445832.00000000 29466.79296875  2524558.25000000 1997965.87500000 
0.07500    53553024.00000000 33593032.00000000 84826008.00000000 28796.15625000  2471968.00000000 1956425.87500000 
0.07600    52561228.00000000 32974644.00000000 83259976.00000000 28146.35546875  2421086.75000000 1916223.50000000 
0.07700    51603068.00000000 32377672.00000000 81746880.00000000 27516.71679688  2371830.25000000 1877342.62500000 
0.07800    50677644.00000000 31800708.00000000 80285896.00000000 26906.50000000  2324151.75000000 1839703.12500000 
0.07900    49783876.00000000 31244238.00000000 78874712.00000000 26314.99023438  2278018.00000000 1803299.75000000 
0.08000    48921320.00000000 30707084.00000000 77513008.00000000 25741.46679688  2233373.00000000 1768056.37500000 
0.08100    48088688.00000000 30188886.00000000 76200144.00000000 25185.13476562  2190162.00000000 1733952.75000000 
0.08200    47285364.00000000 29689354.00000000 74932664.00000000 24645.25195312  2148299.50000000 1700934.75000000 
0.08300    46510192.00000000 29207580.00000000 73710008.00000000 24121.00390625  2107769.00000000 1668964.25000000 
0.08400    45762156.00000000 28742736.00000000 72531128.00000000 23611.70898438  2068503.50000000 1637985.00000000 
0.08500    45040532.00000000 28294624.00000000 71393536.00000000 23116.74804688  2030412.25000000 1607964.12500000 
0.08600    44343692.00000000 27862514.00000000 70295664.00000000 22634.88085938  1993472.25000000 1578849.62500000 
0.08700    43671340.00000000 27445626.00000000 69237096.00000000 22166.10156250  1957627.25000000 1550600.62500000 
0.08800    43021568.00000000 27043518.00000000 68214696.00000000 21709.13085938  1922819.50000000 1523169.25000000 
0.08900    42393792.00000000 26655092.00000000 67227096.00000000 21263.53320312  1888945.62500000 1496501.00000000 
0.09000    41787080.00000000 26280340.00000000 66273292.00000000 20828.96875000  1856021.50000000 1470570.87500000 
0.09100    41200072.00000000 25918064.00000000 65350888.00000000 20404.31054688  1823956.50000000 1445330.25000000 
0.09200    40632116.00000000 25567740.00000000 64459060.00000000 19989.15039062  1792702.25000000 1420734.12500000 
0.09300    40082240.00000000 25228890.00000000 63595048.00000000 19582.84960938  1762216.75000000 1396749.25000000 
0.09400    39549188.00000000 24900492.00000000 62758284.00000000 19184.77343750  1732430.37500000 1373310.37500000 
0.09500    39031212.00000000 24582542.00000000 61946716.00000000 18794.80078125  1703307.00000000 1350398.75000000 
0.09600    38528608.00000000 24273898.00000000 61158348.00000000 18412.02148438  1674804.12500000 1327987.87500000 
0.09700    38039676.00000000 23974046.00000000 60392540.00000000 18036.32812500  1646880.50000000 1306025.62500000 
0.09800    37563476.00000000 23682436.00000000 59647156.00000000 17666.97656250  1619490.37500000 1284492.75000000 
0.09900    37099608.00000000 23398562.00000000 58921600.00000000 17303.76953125  1592593.00000000 1263354.12500000 
0.10000    36646504.00000000 23121862.00000000 58213048.00000000 16946.26171875  1566135.37500000 1242559.25000000 
0.10100    36203724.00000000 22851652.00000000 57521264.00000000 16593.95898438  1540113.00000000 1222111.12500000 
0.10200    35770484.00000000 22587648.00000000 56844312.00000000 16247.08203125  1514459.37500000 1201951.87500000 
0.10300    35346120.00000000 22328782.00000000 56181276.00000000 15904.77734375  1489164.37500000 1182076.50000000 
0.10400    34929276.00000000 22075134.00000000 55531096.00000000 15567.08984375  1464202.00000000 1162458.00000000 
0.10500    34519992.00000000 21826140.00000000 54892332.00000000 15233.91992188  1439542.00000000 1143071.00000000 
0.10600    34116848.00000000 21581296.00000000 54263196.00000000 14904.73632812  1415139.87500000 1123901.00000000 
0.10700    33719756.00000000 21340332.00000000 53644452.00000000 14579.75000000  1391009.37500000 1104926.00000000 
0.10800    33327746.00000000 21102564.00000000 53033388.00000000 14258.61230469  1367110.75000000 1086140.00000000 
0.10900    32940636.00000000 20867596.00000000 52430532.00000000 13941.49218750  1343417.50000000 1067510.75000000 
0.11000    32557716.00000000 20635402.00000000 51833484.00000000 13627.79199219  1319933.00000000 1049033.00000000 
0.11100    32178418.00000000 20405506.00000000 51242680.00000000 13317.91699219  1296626.37500000 1030699.37500000 
0.11200    31802110.00000000 20177586.00000000 50657076.00000000 13011.75488281  1273508.12500000 1012503.06250000 
0.11300    31428910.00000000 19951298.00000000 50075084.00000000 12709.19140625  1250547.50000000 994431.37500000 
0.11400    31058138.00000000 19726656.00000000 49497872.00000000 12410.27734375  1227754.87500000 976482.93750000 
0.11500    30689432.00000000 19503212.00000000 48923420.00000000 12115.07421875  1205114.37500000 958643.87500000 
0.11600    30322550.00000000 19280862.00000000 48351644.00000000 11823.48535156  1182615.12500000 940917.62500000 
0.11700    29957250.00000000 19059150.00000000 47782792.00000000 11535.68261719  1160273.87500000 923294.50000000 
0.11800    29593088.00000000 18838362.00000000 47215164.00000000 11251.62988281  1138071.75000000 905776.00000000 
0.11900    29230244.00000000 18618004.00000000 46649004.00000000 10971.49609375  1116014.50000000 888373.37500000 
0.12000    28868030.00000000 18397994.00000000 46084288.00000000 10695.33691406  1094100.75000000 871076.43750000 
0.12100    28507012.00000000 18178324.00000000 45520872.00000000 10423.28515625  1072341.62500000 853888.37500000 
0.12200    28146396.00000000 17958924.00000000 44958012.00000000 10155.20019531  1050730.62500000 836808.62500000 
0.12300    27786448.00000000 17739792.00000000 44396048.00000000 9891.36132812   1029283.68750000 819851.06250000 
0.12400    27427098.00000000 17520760.00000000 43834400.00000000 9631.73632812   1007998.18750000 803010.68750000 
0.12500    27068156.00000000 17301680.00000000 43273240.00000000 9376.62890625   986881.75000000 786290.56250000 
0.12600    26709806.00000000 17082796.00000000 42713028.00000000 9125.96191406   965946.31250000 769704.12500000 
0.12700    26352076.00000000 16863954.00000000 42152776.00000000 8879.78613281   945192.62500000 753261.12500000 
0.12800    25994542.00000000 16645139.00000000 41593372.00000000 8638.18457031   924625.93750000 736953.06250000 
0.12900    25637998.00000000 16426482.00000000 41035020.00000000 8401.44042969   904261.31250000 720800.06250000 
0.13000    25282016.00000000 16207958.00000000 40476440.00000000 8169.49023438   884107.62500000 704796.56250000 
0.13100    24926782.00000000 15989525.00000000 39919104.00000000 7942.28076172   864166.12500000 688954.87500000 
0.13200    24572188.00000000 15771466.00000000 39362700.00000000 7720.05664062   844449.62500000 673284.25000000 
0.13300    24218622.00000000 15553541.00000000 38807360.00000000 7502.73583984   824967.31250000 657787.00000000 
0.13400    23866176.00000000 15336071.00000000 38253256.00000000 7290.53466797   805724.87500000 642476.56250000 
0.13500    23514744.00000000 15118977.00000000 37700760.00000000 7083.24365234   786730.12500000 627351.06250000 
0.13600    23164908.00000000 14902372.00000000 37149528.00000000 6881.11914062   767990.37500000 612426.06250000 
0.13700    22816270.00000000 14686574.00000000 36600716.00000000 6684.02246094   749524.00000000 597696.87500000 
0.13800    22469344.00000000 14471109.00000000 36053796.00000000 6492.06396484   731321.31250000 583179.81250000 
0.13900    22124026.00000000 14256617.00000000 35509444.00000000 6305.17431641   713395.31250000 568874.50000000 
0.14000    21780762.00000000 14043054.00000000 34967520.00000000 6123.41308594   695758.62500000 554784.06250000 
0.14100    21439342.00000000 13830354.00000000 34428232.00000000 5946.63183594   678412.81250000 540928.18750000 
0.14200    21100268.00000000 13618734.00000000 33892380.00000000 5774.83691406   661361.18750000 527298.43750000 
0.14300    20763492.00000000 13408333.00000000 33359820.00000000 5608.12597656   644603.87500000 513895.09375000 
0.14400    20428988.00000000 13199055.00000000 32830472.00000000 5446.27441406   628155.93750000 500730.25000000 
0.14500    20097338.00000000 12991226.00000000 32305258.00000000 5289.26074219   612019.87500000 487806.65625000 
0.14600    19768446.00000000 12784852.00000000 31783884.00000000 5137.09667969   596191.75000000 475129.18750000 
0.14700    19442268.00000000 12579976.00000000 31266712.00000000 4989.62744141   580678.75000000 462695.03125000 
0.14800    19119162.00000000 12376694.00000000 30753910.00000000 4846.79296875   565472.50000000 450502.31250000 
0.14900    18799172.00000000 12175187.00000000 30245876.00000000 4708.45898438   550587.93750000 438559.43750000 
0.15000    18482494.00000000 11975357.00000000 29742514.00000000 4574.56494141   536019.50000000 426863.40625000 
0.15100    18169128.00000000 11777445.00000000 29244286.00000000 4445.03955078   521759.84375000 415422.84375000 
0.15200    17859328.00000000 11581480.00000000 28751406.00000000 4319.74658203   507825.59375000 404227.43750000 
0.15300    17552962.00000000 11387537.00000000 28263810.00000000 4198.53857422   494206.46875000 393281.21875000 
0.15400    17250142.00000000 11195644.00000000 27781544.00000000 4081.33447266   480893.31250000 382578.90625000 
0.15500    16951146.00000000 11005805.00000000 27304834.00000000 3967.99291992   467890.25000000 372125.84375000 
0.15600    16655993.00000000 10818147.00000000 26834238.00000000 3858.44555664   455193.31250000 361912.43750000 
0.15700    16364673.00000000 10632874.00000000 26369244.00000000 3752.50390625   442806.25000000 351945.50000000 
0.15800    16077155.00000000 10449823.00000000 25910128.00000000 3650.04931641   430712.78125000 342214.59375000 
0.15900    15793689.00000000 10269107.00000000 25457268.00000000 3550.99487305   418914.75000000 332724.21875000 
0.16000    15514132.00000000 10090576.00000000 25010418.00000000 3455.16137695   407411.09375000 323460.21875000 
0.16100    15238600.00000000 9914572.00000000 24570134.00000000 3362.50585938   396196.50000000 314431.28125000 
0.16200    14967142.00000000 9740956.00000000 24135708.00000000 3272.81176758   385258.81250000 305622.12500000 
0.16300    14699656.00000000 9569758.00000000 23707672.00000000 3186.03442383   374595.56250000 297039.75000000 
0.16400    14436397.00000000 9401057.00000000 23285912.00000000 3102.01342773   364206.84375000 288674.06250000 
0.16500    14176972.00000000 9234769.00000000 22870710.00000000 3020.65600586   354082.40625000 280521.03125000 
0.16600    13921807.00000000 9070993.00000000 22461544.00000000 2941.82177734   344214.40625000 272575.03125000 
0.16700    13670525.00000000 8909571.00000000 22059030.00000000 2865.39306641   334598.21875000 264834.78125000 
0.16800    13423309.00000000 8750700.00000000 21662574.00000000 2791.28051758   325231.96875000 257292.34375000 
0.16900    13180120.00000000 8594299.00000000 21272544.00000000 2719.44775391   316101.37500000 249947.09375000 
0.17000    12940965.00000000 8440380.00000000 20888594.00000000 2649.70263672   307204.21875000 242787.45312500 
