# SAXS profile: number of points = 501, q_min = 0, q_max = 0.5, delta_q = 0.001
#    q    intensity 
0.00000    162235520.00000000 101202120.00000000 256271456.00000000 98796.33593750  8007179.00000000 6324041.50000000 
0.00100    162201632.00000000 101179304.00000000 256214240.00000000 98769.09375000  8005129.50000000 6322425.00000000 
0.00200    162096048.00000000 101112464.00000000 256044752.00000000 98685.64062500  7999091.00000000 6317686.50000000 
0.00300    161918336.00000000 101000264.00000000 255761008.00000000 98547.74218750  7988976.50000000 6309741.00000000 
0.00400    161666144.00000000 100844752.00000000 255363856.00000000 98354.78906250  7974921.50000000 6298627.50000000 
0.00500    161342240.00000000 100643128.00000000 254854816.00000000 98107.02343750  7956849.50000000 6284369.00000000 
0.00600    160945920.00000000 100397736.00000000 254231264.00000000 97805.35937500  7934788.50000000 6266997.00000000 
0.00700    160482016.00000000 100110584.00000000 253500688.00000000 97450.54687500  7908859.00000000 6246555.00000000 
0.00800    159943392.00000000 99779096.00000000 252660448.00000000 97042.80468750  7879038.00000000 6223085.50000000 
0.00900    159339696.00000000 99405824.00000000 251711328.00000000 96583.36718750  7845401.00000000 6196606.50000000 
0.01000    158671264.00000000 98991464.00000000 250656016.00000000 96072.28125000  7808065.50000000 6167131.50000000 
0.01100    157937296.00000000 98534480.00000000 249495248.00000000 95511.71875000  7767004.00000000 6134804.50000000 
0.01200    157136144.00000000 98037128.00000000 248233408.00000000 94902.12500000  7722369.00000000 6099623.50000000 
0.01300    156268368.00000000 97499896.00000000 246868752.00000000 94244.30468750  7674175.00000000 6061635.00000000 
0.01400    155338544.00000000 96923672.00000000 245407376.00000000 93540.14843750  7622507.00000000 6020930.00000000 
0.01500    154349536.00000000 96309440.00000000 243847376.00000000 92790.88281250  7567517.00000000 5977592.50000000 
0.01600    153300800.00000000 95659040.00000000 242195600.00000000 91998.37500000  7509257.00000000 5931645.00000000 
0.01700    152193504.00000000 94973144.00000000 240450832.00000000 91162.81250000  7447825.50000000 5883254.50000000 
0.01800    151029008.00000000 94251288.00000000 238618256.00000000 90286.86718750  7383351.50000000 5832444.00000000 
0.01900    149813344.00000000 93495408.00000000 236700384.00000000 89371.20312500  7315925.00000000 5779305.50000000 
0.02000    148542736.00000000 92707352.00000000 234699472.00000000 88419.07812500  7245687.00000000 5723914.00000000 
0.02100    147220896.00000000 91888808.00000000 232619088.00000000 87430.75000000  7172717.50000000 5666420.50000000 
0.02200    145850688.00000000 91038824.00000000 230461456.00000000 86408.97656250  7097174.00000000 5606851.00000000 
0.02300    144437632.00000000 90160880.00000000 228231024.00000000 85354.03906250  7019142.50000000 5545371.00000000 
0.02400    142976480.00000000 89254312.00000000 225930672.00000000 84270.43750000  6938808.00000000 5482038.00000000 
0.02500    141473584.00000000 88322360.00000000 223564240.00000000 83157.54687500  6856262.00000000 5416962.00000000 
0.02600    139932448.00000000 87365392.00000000 221134672.00000000 82018.18750000  6771660.00000000 5350230.00000000 
0.02700    138353008.00000000 86384944.00000000 218644752.00000000 80855.26562500  6685064.00000000 5281982.50000000 
0.02800    136737200.00000000 85382120.00000000 216099200.00000000 79669.17187500  6596680.50000000 5212315.00000000 
0.02900    135089248.00000000 84358784.00000000 213501936.00000000 78462.97656250  6506689.00000000 5141330.00000000 
0.03000    133410008.00000000 83315520.00000000 210856336.00000000 77237.67968750  6415098.50000000 5069167.50000000 
0.03100    131702864.00000000 82256224.00000000 208164960.00000000 75996.60937500  6322152.00000000 4995861.50000000 
0.03200    129969904.00000000 81179464.00000000 205433216.00000000 74740.75781250  6227969.50000000 4921573.50000000 
0.03300    128212720.00000000 80088192.00000000 202664512.00000000 73472.37500000  6132703.50000000 4846410.00000000 
0.03400    126434744.00000000 78983072.00000000 199860784.00000000 72193.39062500  6036382.00000000 4770471.00000000 
0.03500    124637400.00000000 77866440.00000000 197027216.00000000 70905.55468750  5939253.00000000 4693902.50000000 
0.03600    122824160.00000000 76739888.00000000 194168064.00000000 69610.84375000  5841463.00000000 4616727.50000000 
0.03700    120995112.00000000 75603736.00000000 191286176.00000000 68311.65625000  5743047.00000000 4539135.50000000 
0.03800    119155264.00000000 74460632.00000000 188385632.00000000 67009.15625000  5644271.50000000 4461211.00000000 
0.03900    117305216.00000000 73311072.00000000 185467056.00000000 65705.73437500  5545133.50000000 4383027.50000000 
0.04000    115448424.00000000 72156544.00000000 182539088.00000000 64402.39843750  5445848.50000000 4304669.50000000 
0.04100    113585568.00000000 70998296.00000000 179602064.00000000 63101.42187500  5346477.50000000 4226306.00000000 
0.04200    111719880.00000000 69837864.00000000 176659904.00000000 61804.05468750  5247204.00000000 4147948.50000000 
0.04300    109854136.00000000 68676512.00000000 173715520.00000000 60512.30859375  5148104.50000000 4069751.75000000 
0.04400    107988672.00000000 67516880.00000000 170773008.00000000 59227.33203125  5049279.00000000 3991800.50000000 
0.04500    106125912.00000000 66358424.00000000 167835584.00000000 57951.38281250  4950923.50000000 3914153.25000000 
0.04600    104269288.00000000 65203012.00000000 164907056.00000000 56684.57421875  4853044.50000000 3836932.75000000 
0.04700    102419896.00000000 64051456.00000000 161988624.00000000 55429.73828125  4755814.50000000 3760207.75000000 
0.04800    100579040.00000000 62905972.00000000 159082960.00000000 54187.09765625  4659313.50000000 3684015.50000000 
0.04900    98749312.00000000 61766504.00000000 156195488.00000000 52958.15234375  4563603.00000000 3608485.25000000 
0.05000    96930864.00000000 60635068.00000000 153325504.00000000 51743.96093750  4468832.00000000 3533666.75000000 
0.05100    95127064.00000000 59511764.00000000 150478816.00000000 50545.73828125  4375007.00000000 3459626.25000000 
0.05200    93339152.00000000 58398324.00000000 147656240.00000000 49364.85937500  4282284.50000000 3386414.75000000 
0.05300    91568152.00000000 57295368.00000000 144860672.00000000 48201.97265625  4190734.50000000 3314139.25000000 
0.05400    89815344.00000000 56203568.00000000 142095072.00000000 47057.33593750  4100350.00000000 3242816.75000000 
0.05500    88082928.00000000 55124408.00000000 139359792.00000000 45932.35937500  4011303.75000000 3172491.75000000 
0.05600    86371368.00000000 54058000.00000000 136658112.00000000 44827.72656250  3923573.25000000 3103209.75000000 
0.05700    84682272.00000000 53005356.00000000 133993016.00000000 43743.65234375  3837258.00000000 3035066.75000000 
0.05800    83016752.00000000 51967780.00000000 131362672.00000000 42681.26171875  3752394.50000000 2968061.75000000 
0.05900    81375648.00000000 50944428.00000000 128770592.00000000 41640.46875000  3669015.00000000 2902225.00000000 
0.06000    79759728.00000000 49937328.00000000 126219544.00000000 40622.24218750  3587211.75000000 2837612.00000000 
0.06100    78170976.00000000 48946724.00000000 123710368.00000000 39626.44921875  3506970.75000000 2774239.50000000 
0.06200    76608384.00000000 47972824.00000000 121242968.00000000 38653.25781250  3428336.50000000 2712126.50000000 
0.06300    75074744.00000000 47016036.00000000 118820016.00000000 37703.53515625  3351321.00000000 2651312.75000000 
0.06400    73567920.00000000 46076904.00000000 116441664.00000000 36776.57812500  3275953.75000000 2591786.75000000 
0.06500    72091808.00000000 45155720.00000000 114109312.00000000 35872.99218750  3202294.50000000 2533582.25000000 
0.06600    70643880.00000000 44252784.00000000 111822120.00000000 34992.69531250  3130283.75000000 2476698.50000000 
0.06700    69226104.00000000 43368296.00000000 109583056.00000000 34135.79296875  3059965.75000000 2421176.75000000 
0.06800    67837800.00000000 42503008.00000000 107390984.00000000 33301.48437500  2991349.50000000 2366964.00000000 
0.06900    66481440.00000000 41656444.00000000 105246648.00000000 32490.45703125  2924437.75000000 2314120.25000000 
0.07000    65154540.00000000 40828816.00000000 103151336.00000000 31702.16601562  2859199.50000000 2262588.00000000 
0.07100    63858552.00000000 40020300.00000000 101103760.00000000 30935.84375000  2795640.50000000 2212367.00000000 
0.07200    62593224.00000000 39230660.00000000 99104776.00000000 30191.82226562  2733757.50000000 2163480.00000000 
0.07300    61359000.00000000 38460436.00000000 97154032.00000000 29469.86523438  2673541.25000000 2115902.00000000 
0.07400    60154456.00000000 37709060.00000000 95252328.00000000 28769.01562500  2614950.00000000 2069625.87500000 
0.07500    58980800.00000000 36976980.00000000 93398496.00000000 28089.25781250  2557974.25000000 2024605.87500000 
0.07600    57837176.00000000 36263196.00000000 91591640.00000000 27429.74023438  2502570.25000000 1980836.50000000 
0.07700    56723704.00000000 35568988.00000000 89832112.00000000 26790.36718750  2448766.50000000 1938321.62500000 
0.07800    55639572.00000000 34892564.00000000 88120488.00000000 26170.43750000  2396471.75000000 1897021.25000000 
0.07900    54584716.00000000 34234644.00000000 86453296.00000000 25569.34960938  2345682.75000000 1856902.12500000 
0.08000    53558492.00000000 33594960.00000000 84833536.00000000 24986.80859375  2296341.00000000 1817945.25000000 
0.08100    52560724.00000000 32973128.00000000 83258000.00000000 24421.92968750  2248453.25000000 1780116.75000000 
0.08200    51590876.00000000 32368332.00000000 81726160.00000000 23874.37890625  2201955.50000000 1743389.25000000 
0.08300    50648080.00000000 31780880.00000000 80237160.00000000 23343.20312500  2156800.25000000 1707719.87500000 
0.08400    49732140.00000000 31210396.00000000 78791552.00000000 22828.18359375  2112970.00000000 1673113.25000000 
0.08500    48842424.00000000 30656174.00000000 77387248.00000000 22328.83398438  2070412.50000000 1639485.25000000 
0.08600    47977888.00000000 30117694.00000000 76022664.00000000 21843.78710938  2029079.87500000 1606857.00000000 
0.08700    47138548.00000000 29595018.00000000 74697352.00000000 21373.10937500  1988925.87500000 1575164.62500000 
0.08800    46323164.00000000 29087602.00000000 73411184.00000000 20916.12890625  1949939.00000000 1544372.87500000 
0.08900    45531032.00000000 28594810.00000000 72162056.00000000 20471.82226562  1912042.25000000 1514449.75000000 
0.09000    44762132.00000000 28116544.00000000 70948632.00000000 20039.89257812  1875196.37500000 1485368.87500000 
0.09100    44014580.00000000 27652090.00000000 69770080.00000000 19619.75976562  1839372.25000000 1457086.50000000 
0.09200    43288464.00000000 27201124.00000000 68624992.00000000 19210.71289062  1804513.62500000 1429573.00000000 
0.09300    42583132.00000000 26762876.00000000 67512816.00000000 18812.35156250  1770587.00000000 1402792.75000000 
0.09400    41897248.00000000 26337234.00000000 66432076.00000000 18423.98046875  1737546.00000000 1376712.12500000 
0.09500    41230420.00000000 25923672.00000000 65381996.00000000 18045.25976562  1705330.75000000 1351301.50000000 
0.09600    40581728.00000000 25521550.00000000 64360288.00000000 17675.30468750  1673919.75000000 1326519.37500000 
0.09700    39950820.00000000 25130548.00000000 63366876.00000000 17314.03906250  1643277.00000000 1302327.00000000 
0.09800    39336488.00000000 24750160.00000000 62399380.00000000 16960.69335938  1613356.00000000 1278724.25000000 
0.09900    38738148.00000000 24379864.00000000 61458324.00000000 16615.25585938  1584115.25000000 1255654.00000000 
0.10000    38155180.00000000 24019130.00000000 60540996.00000000 16276.60937500  1555506.12500000 1233093.75000000 
0.10100    37586492.00000000 23667778.00000000 59646988.00000000 15944.74121094  1527512.00000000 1211009.50000000 
0.10200    37032104.00000000 23325112.00000000 58775084.00000000 15619.37304688  1500105.62500000 1189380.12500000 
0.10300    36490788.00000000 22990878.00000000 57923900.00000000 15299.91113281  1473226.87500000 1168174.62500000 
0.10400    35961680.00000000 22664374.00000000 57092540.00000000 14986.10742188  1446856.12500000 1147376.87500000 
0.10500    35444708.00000000 22345678.00000000 56280280.00000000 14677.58593750  1420964.00000000 1126950.62500000 
0.10600    34938208.00000000 22033766.00000000 55485276.00000000 14374.20410156  1395531.25000000 1106880.00000000 
0.10700    34443252.00000000 21728606.00000000 54707984.00000000 14075.55175781  1370520.50000000 1087152.75000000 
0.10800    33957832.00000000 21429702.00000000 53945548.00000000 13781.51269531  1345897.87500000 1067724.37500000 
0.10900    33481858.00000000 21136880.00000000 53198640.00000000 13491.85058594  1321651.00000000 1048593.25000000 
0.11000    33014666.00000000 20849728.00000000 52465612.00000000 13206.20410156  1297746.87500000 1029734.00000000 
0.11100    32555384.00000000 20567502.00000000 51745892.00000000 12924.47363281  1274189.75000000 1011139.43750000 
0.11200    32104242.00000000 20290306.00000000 51038160.00000000 12646.78320312  1250939.87500000 992778.31250000 
0.11300    31660450.00000000 20017692.00000000 50342192.00000000 12372.55468750  1227978.12500000 974658.00000000 
0.11400    31223264.00000000 19749564.00000000 49657424.00000000 12101.92675781  1205299.25000000 956748.56250000 
0.11500    30792734.00000000 19485340.00000000 48982472.00000000 11834.77636719  1182885.00000000 939048.06250000 
0.11600    30368112.00000000 19224886.00000000 48317080.00000000 11571.08984375  1160710.75000000 921538.31250000 
0.11700    29949052.00000000 18967948.00000000 47660540.00000000 11310.68554688  1138796.12500000 904217.87500000 
0.11800    29535586.00000000 18714264.00000000 47012112.00000000 11053.59277344  1117092.75000000 887070.37500000 
0.11900    29126592.00000000 18463518.00000000 46371484.00000000 10799.71679688  1095615.75000000 870095.56250000 
0.12000    28722360.00000000 18215702.00000000 45738400.00000000 10549.16210938  1074340.37500000 853280.75000000 
0.12100    28322712.00000000 17970590.00000000 45112352.00000000 10301.82324219  1053307.62500000 836630.93750000 
0.12200    27926946.00000000 17728036.00000000 44492204.00000000 10057.77929688  1032447.00000000 820131.75000000 
0.12300    27535028.00000000 17487852.00000000 43878192.00000000 9817.04101562   1011793.18750000 803795.56250000 
0.12400    27146860.00000000 17249654.00000000 43269944.00000000 9579.54101562   991337.50000000 787600.56250000 
0.12500    26761974.00000000 17013678.00000000 42666604.00000000 9345.37695312   971078.37500000 771561.00000000 
0.12600    26380482.00000000 16779622.00000000 42068808.00000000 9114.63085938   951015.81250000 755667.18750000 
0.12700    26002214.00000000 16547401.00000000 41475764.00000000 8887.29980469   931137.75000000 739926.18750000 
0.12800    25626840.00000000 16316977.00000000 40887348.00000000 8663.49609375   911468.56250000 724326.93750000 
0.12900    25254414.00000000 16088209.00000000 40303256.00000000 8443.26367188   891989.31250000 708892.12500000 
0.13000    24884812.00000000 15861123.00000000 39723428.00000000 8226.57812500   872707.68750000 693598.00000000 
0.13100    24517836.00000000 15635490.00000000 39147688.00000000 8013.58056641   853634.06250000 678464.31250000 
0.13200    24153542.00000000 15411398.00000000 38575804.00000000 7804.29052734   834762.43750000 663488.68750000 
0.13300    23791956.00000000 15188898.00000000 38008292.00000000 7598.73242188   816107.50000000 648673.62500000 
0.13400    23433022.00000000 14967776.00000000 37444372.00000000 7397.09130859   797662.12500000 634021.43750000 
0.13500    23076668.00000000 14748062.00000000 36884608.00000000 7199.25439453   779433.81250000 619539.68750000 
0.13600    22722888.00000000 14529872.00000000 36328516.00000000 7005.41308594   761434.50000000 605231.56250000 
0.13700    22371626.00000000 14313162.00000000 35776592.00000000 6815.55029297   743655.81250000 591098.25000000 
0.13800    22023024.00000000 14097855.00000000 35228220.00000000 6629.67871094   726110.12500000 577142.93750000 
0.13900    21677256.00000000 13883999.00000000 34684092.00000000 6447.91162109   708812.81250000 563374.43750000 
0.14000    21334126.00000000 13671640.00000000 34143892.00000000 6270.23681641   691753.87500000 549794.75000000 
0.14100    20993558.00000000 13460857.00000000 33607656.00000000 6096.66210938   674944.43750000 536407.12500000 
0.14200    20655660.00000000 13251490.00000000 33075690.00000000 5927.19824219   658384.93750000 523217.75000000 
0.14300    20320882.00000000 13043813.00000000 32548030.00000000 5761.96191406   642078.81250000 510223.28125000 
0.14400    19988932.00000000 12837552.00000000 32024622.00000000 5600.80322266   626041.37500000 497437.96875000 
0.14500    19660040.00000000 12633218.00000000 31505506.00000000 5443.85937500   610268.31250000 484860.31250000 
0.14600    19333956.00000000 12430458.00000000 30991218.00000000 5291.10058594   594763.12500000 472491.46875000 
0.14700    19011244.00000000 12229409.00000000 30481614.00000000 5142.45166016   579534.81250000 460337.78125000 
0.14800    18691568.00000000 12030177.00000000 29976640.00000000 4997.88232422   564580.81250000 448399.78125000 
0.14900    18375252.00000000 11832847.00000000 29476572.00000000 4857.45312500   549908.87500000 436682.25000000 
0.15000    18061938.00000000 11637308.00000000 28981626.00000000 4720.98828125   535515.62500000 425184.28125000 
0.15100    17752330.00000000 11443660.00000000 28491610.00000000 4588.60644531   521409.90625000 413913.75000000 
0.15200    17446274.00000000 11252022.00000000 28006976.00000000 4460.16992188   507590.31250000 402868.28125000 
0.15300    17143460.00000000 11062472.00000000 27527688.00000000 4335.63037109   494052.46875000 392048.12500000 
0.15400    16844308.00000000 10874849.00000000 27053864.00000000 4214.89843750   480806.12500000 381451.03125000 
0.15500    16548945.00000000 10689383.00000000 26585508.00000000 4097.98291016   467848.03125000 371085.15625000 
0.15600    16257227.00000000 10506084.00000000 26122894.00000000 3984.74340820   455175.15625000 360945.43750000 
0.15700    15969250.00000000 10325125.00000000 25666028.00000000 3875.17065430   442794.53125000 351035.81250000 
0.15800    15685141.00000000 10146009.00000000 25214916.00000000 3769.04248047   430693.59375000 341352.50000000 
0.15900    15404909.00000000 9969449.00000000 24769676.00000000 3666.45043945   418883.96875000 331894.62500000 
0.16000    15128489.00000000 9795124.00000000 24330462.00000000 3567.16503906   407354.31250000 322661.03125000 
0.16100    14856113.00000000 9623046.00000000 23897422.00000000 3471.16308594   396108.25000000 313655.25000000 
0.16200    14587690.00000000 9453310.00000000 23470440.00000000 3378.34375000   385135.43750000 304865.03125000 
0.16300    14323279.00000000 9285987.00000000 23049700.00000000 3288.55859375   374439.40625000 296300.03125000 
0.16400    14062873.00000000 9121105.00000000 22635200.00000000 3201.77490234   364018.78125000 287947.78125000 
0.16500    13806550.00000000 8958547.00000000 22226724.00000000 3117.85522461   353863.90625000 279812.31250000 
0.16600    13554181.00000000 8798415.00000000 21824812.00000000 3036.66674805   343973.28125000 271888.25000000 
0.16700    13305960.00000000 8640628.00000000 21428878.00000000 2958.12792969   334340.62500000 264169.40625000 
0.16800    13061711.00000000 8485377.00000000 21039480.00000000 2882.15722656   324962.34375000 256651.45312500 
0.16900    12821610.00000000 8332576.50000000 20656370.00000000 2808.65991211   315838.75000000 249340.28125000 
0.17000    12585628.00000000 8182168.50000000 20279424.00000000 2737.45288086   306954.40625000 242224.34375000 
