# SAXS profile: number of points = 501, q_min = 0, q_max = 0.5, delta_q = 0.001
#    q    intensity 
0.00000    162238544.00000000 101201688.00000000 256272144.00000000 97981.92968750  7974093.50000000 6297920.00000000 
0.00100    162215296.00000000 101187312.00000000 256235328.00000000 97962.84375000  7972749.50000000 6296846.50000000 
0.00200    162144800.00000000 101143720.00000000 256124176.00000000 97905.57812500  7968648.50000000 6293639.00000000 
0.00300    162028016.00000000 101071408.00000000 255939024.00000000 97809.57812500  7961818.50000000 6288303.00000000 
0.00400    161863824.00000000 100970768.00000000 255680832.00000000 97675.74218750  7952269.00000000 6280826.00000000 
0.00500    161650672.00000000 100840784.00000000 255348864.00000000 97503.81250000  7940022.50000000 6271227.50000000 
0.00600    161392208.00000000 100682832.00000000 254944464.00000000 97293.75781250  7925059.00000000 6259513.00000000 
0.00700    161086896.00000000 100496208.00000000 254468080.00000000 97045.95312500  7907456.50000000 6245692.00000000 
0.00800    160734928.00000000 100280264.00000000 253917120.00000000 96761.34375000  7887152.50000000 6229789.50000000 
0.00900    160337152.00000000 100037064.00000000 253295296.00000000 96439.17187500  7864194.00000000 6211815.00000000 
0.01000    159894112.00000000 99765824.00000000 252602096.00000000 96081.00000000  7838633.50000000 6191786.00000000 
0.01100    159403920.00000000 99467656.00000000 251838688.00000000 95685.95312500  7810455.00000000 6169701.50000000 
0.01200    158870752.00000000 99141768.00000000 251004704.00000000 95255.29687500  7779747.00000000 6145639.50000000 
0.01300    158294448.00000000 98788600.00000000 250100816.00000000 94789.23437500  7746482.50000000 6119553.00000000 
0.01400    157672816.00000000 98408816.00000000 249129392.00000000 94288.33593750  7710682.00000000 6091499.00000000 
0.01500    157009856.00000000 98002064.00000000 248090384.00000000 93752.95312500  7672449.50000000 6061566.50000000 
0.01600    156302864.00000000 97569296.00000000 246983376.00000000 93184.30468750  7631768.50000000 6029661.00000000 
0.01700    155554608.00000000 97110880.00000000 245811856.00000000 92582.59375000  7588704.50000000 5995902.50000000 
0.01800    154762928.00000000 96626984.00000000 244575088.00000000 91948.33593750  7543290.50000000 5960311.50000000 
0.01900    153932096.00000000 96118304.00000000 243275392.00000000 91282.16406250  7495555.00000000 5922908.50000000 
0.02000    153061472.00000000 95584752.00000000 241911856.00000000 90585.29687500  7445567.00000000 5883741.50000000 
0.02100    152150832.00000000 95028056.00000000 240487088.00000000 89857.95312500  7393366.50000000 5842817.50000000 
0.02200    151202720.00000000 94446808.00000000 239002960.00000000 89101.10937500  7339021.00000000 5800198.00000000 
0.02300    150216400.00000000 93842968.00000000 237459216.00000000 88316.08593750  7282545.50000000 5755935.50000000 
0.02400    149193312.00000000 93216384.00000000 235857552.00000000 87502.65625000  7224038.00000000 5710052.00000000 
0.02500    148133872.00000000 92567536.00000000 234200192.00000000 86662.32812500  7163508.00000000 5662591.50000000 
0.02600    147040480.00000000 91897816.00000000 232487152.00000000 85795.95312500  7101039.00000000 5613625.00000000 
0.02700    145912512.00000000 91206872.00000000 230722304.00000000 84904.89843750  7036695.50000000 5563169.00000000 
0.02800    144751808.00000000 90494952.00000000 228903792.00000000 83989.28125000  6970532.00000000 5511246.00000000 
0.02900    143558448.00000000 89763880.00000000 227035184.00000000 83050.42187500  6902596.50000000 5457965.50000000 
0.03000    142333904.00000000 89013648.00000000 225118320.00000000 82089.21093750  6832981.50000000 5403358.50000000 
0.03100    141079696.00000000 88244048.00000000 223153616.00000000 81106.60156250  6761719.00000000 5347451.50000000 
0.03200    139796016.00000000 87456704.00000000 221141728.00000000 80103.60937500  6688879.50000000 5290304.50000000 
0.03300    138484064.00000000 86652816.00000000 219087792.00000000 79081.57812500  6614533.00000000 5232015.50000000 
0.03400    137145184.00000000 85831696.00000000 216990736.00000000 78041.11718750  6538766.00000000 5172565.50000000 
0.03500    135780272.00000000 84994152.00000000 214852144.00000000 76983.89843750  6461634.00000000 5112037.00000000 
0.03600    134390448.00000000 84141672.00000000 212675856.00000000 75909.88281250  6383203.00000000 5050493.50000000 
0.03700    132977648.00000000 83274264.00000000 210461296.00000000 74821.28125000  6303548.00000000 4987964.00000000 
0.03800    131541992.00000000 82392912.00000000 208212224.00000000 73717.89843750  6222769.50000000 4924541.50000000 
0.03900    130084264.00000000 81498216.00000000 205926832.00000000 72601.85156250  6140848.00000000 4860229.50000000 
0.04000    128606848.00000000 80590664.00000000 203611472.00000000 71474.02343750  6057939.50000000 4795128.50000000 
0.04100    127109768.00000000 79671144.00000000 201265136.00000000 70335.16406250  5974062.00000000 4729279.00000000 
0.04200    125594720.00000000 78740608.00000000 198889568.00000000 69186.47656250  5889329.50000000 4662746.00000000 
0.04300    124062856.00000000 77799592.00000000 196487840.00000000 68028.95312500  5803782.50000000 4595549.00000000 
0.04400    122515512.00000000 76848456.00000000 194061952.00000000 66863.98437500  5717502.50000000 4527794.50000000 
0.04500    120953320.00000000 75888384.00000000 191612016.00000000 65692.10156250  5630574.50000000 4459503.50000000 
0.04600    119377832.00000000 74919024.00000000 189141264.00000000 64515.00390625  5543044.00000000 4390749.00000000 
0.04700    117790136.00000000 73942632.00000000 186649584.00000000 63332.98437500  5455020.00000000 4321543.50000000 
0.04800    116190824.00000000 72958576.00000000 184140048.00000000 62147.57421875  5366534.50000000 4252029.50000000 
0.04900    114582344.00000000 71968752.00000000 181616784.00000000 60959.91015625  5277672.50000000 4182170.25000000 
0.05000    112964456.00000000 70973536.00000000 179078992.00000000 59770.55078125  5188511.00000000 4112077.00000000 
0.05100    111339088.00000000 69973240.00000000 176527600.00000000 58580.66406250  5099085.50000000 4041793.75000000 
0.05200    109706480.00000000 68968024.00000000 173965536.00000000 57391.49609375  5009521.50000000 3971343.75000000 
0.05300    108069280.00000000 67959232.00000000 171394816.00000000 56203.76171875  4919817.50000000 3900804.00000000 
0.05400    106426992.00000000 66947360.00000000 168817248.00000000 55018.16796875  4830047.00000000 3830217.25000000 
0.05500    104782040.00000000 65933288.00000000 166234352.00000000 53836.04296875  4740357.50000000 3759658.75000000 
0.05600    103135080.00000000 64917644.00000000 163647120.00000000 52658.30078125  4650736.50000000 3689144.75000000 
0.05700    101486536.00000000 63901024.00000000 161057792.00000000 51485.64062500  4561290.00000000 3618731.25000000 
0.05800    99838184.00000000 62884268.00000000 158467200.00000000 50318.80859375  4472027.50000000 3548506.50000000 
0.05900    98190872.00000000 61867340.00000000 155879072.00000000 49158.92578125  4383062.50000000 3478458.00000000 
0.06000    96545568.00000000 60851720.00000000 153294016.00000000 48006.48437500  4294389.50000000 3408655.00000000 
0.06100    94902776.00000000 59837612.00000000 150712512.00000000 46862.77734375  4206169.50000000 3339162.75000000 
0.06200    93264552.00000000 58825492.00000000 148136864.00000000 45728.09765625  4118363.00000000 3270021.75000000 
0.06300    91631280.00000000 57816008.00000000 145568976.00000000 44603.58984375  4031072.75000000 3201253.25000000 
0.06400    90003672.00000000 56810292.00000000 143009264.00000000 43489.61328125  3944329.00000000 3132897.50000000 
0.06500    88383136.00000000 55808072.00000000 140459760.00000000 42387.00390625  3858197.00000000 3065023.75000000 
0.06600    86770344.00000000 54809992.00000000 137922112.00000000 41296.44921875  3772723.75000000 2997638.25000000 
0.06700    85165976.00000000 53817120.00000000 135397472.00000000 40218.46484375  3687965.00000000 2930815.25000000 
0.06800    83570920.00000000 52829772.00000000 132889136.00000000 39153.72656250  3603961.75000000 2864567.00000000 
0.06900    81986760.00000000 51848412.00000000 130394648.00000000 38103.07812500  3520750.50000000 2798939.50000000 
0.07000    80413360.00000000 50873696.00000000 127917000.00000000 37066.73437500  3438382.00000000 2733964.75000000 
0.07100    78851216.00000000 49905504.00000000 125458080.00000000 36045.08593750  3356902.75000000 2669666.75000000 
0.07200    77302280.00000000 48945156.00000000 123017648.00000000 35038.92187500  3276330.00000000 2606072.00000000 
0.07300    75766544.00000000 47992432.00000000 120598904.00000000 34048.57812500  3196748.50000000 2543248.25000000 
0.07400    74244568.00000000 47047896.00000000 118200840.00000000 33074.56640625  3118146.25000000 2481165.50000000 
0.07500    72737872.00000000 46112308.00000000 115825672.00000000 32117.27343750  3040579.50000000 2419888.50000000 
0.07600    71246296.00000000 45185820.00000000 113474048.00000000 31176.82617188  2964068.00000000 2359451.75000000 
0.07700    69770224.00000000 44268652.00000000 111146912.00000000 30253.90625000  2888652.00000000 2299857.25000000 
0.07800    68310800.00000000 43361416.00000000 108845512.00000000 29348.44531250  2814366.00000000 2241152.75000000 
0.07900    66868796.00000000 42464636.00000000 106571096.00000000 28461.08398438  2741237.50000000 2183319.50000000 
0.08000    65444444.00000000 41578240.00000000 104323224.00000000 27591.86132812  2669271.50000000 2126412.50000000 
0.08100    64038032.00000000 40702460.00000000 102104040.00000000 26741.09570312  2598502.50000000 2070429.62500000 
0.08200    62650184.00000000 39838120.00000000 99912840.00000000 25908.76757812  2528958.50000000 2015395.00000000 
0.08300    61281608.00000000 38985008.00000000 97751512.00000000 25095.10742188  2460635.00000000 1961323.00000000 
0.08400    59932084.00000000 38143716.00000000 95620312.00000000 24300.47460938  2393574.00000000 1908222.75000000 
0.08500    58602676.00000000 37314256.00000000 93520104.00000000 23524.68945312  2327775.50000000 1856121.00000000 
0.08600    57293416.00000000 36497024.00000000 91450552.00000000 22767.91015625  2263267.75000000 1805011.37500000 
0.08700    56004500.00000000 35692300.00000000 89413656.00000000 22030.31250000  2200050.00000000 1754915.75000000 
0.08800    54736372.00000000 34900052.00000000 87408520.00000000 21311.74804688  2138134.25000000 1705827.37500000 
0.08900    53489384.00000000 34120220.00000000 85436944.00000000 20612.20703125  2077523.25000000 1657774.75000000 
0.09000    52263580.00000000 33353464.00000000 83497488.00000000 19931.69140625  2018239.87500000 1610746.25000000 
0.09100    51059528.00000000 32599724.00000000 81591936.00000000 19270.20312500  1960276.62500000 1564750.62500000 
0.09200    49877144.00000000 31859180.00000000 79720840.00000000 18627.66601562  1903630.37500000 1519798.12500000 
0.09300    48716612.00000000 31131980.00000000 77883072.00000000 18003.86523438  1848306.00000000 1475873.12500000 
0.09400    47577716.00000000 30418060.00000000 76079104.00000000 17398.57812500  1794315.75000000 1432985.75000000 
0.09500    46461248.00000000 29717514.00000000 74310448.00000000 16812.03906250  1741644.25000000 1391133.87500000 
0.09600    45366556.00000000 29030600.00000000 72576040.00000000 16243.77636719  1690291.37500000 1350319.25000000 
0.09700    44294740.00000000 28356932.00000000 70876072.00000000 15693.65136719  1640255.75000000 1310532.75000000 
0.09800    43244912.00000000 27697106.00000000 69211232.00000000 15161.47070312  1591530.12500000 1271773.87500000 
0.09900    42217388.00000000 27050926.00000000 67581808.00000000 14647.04296875  1544102.87500000 1234041.75000000 
0.10000    41211880.00000000 26418136.00000000 65986336.00000000 14149.97656250  1497960.75000000 1197314.87500000 
0.10100    40228828.00000000 25799088.00000000 64425844.00000000 13670.33203125  1453108.37500000 1161595.12500000 
0.10200    39267948.00000000 25193364.00000000 62899900.00000000 13207.55957031  1409524.37500000 1126871.37500000 
0.10300    38329136.00000000 24601242.00000000 61408656.00000000 12761.43457031  1367187.37500000 1093133.00000000 
0.10400    37412140.00000000 24022710.00000000 59951388.00000000 12331.70703125  1326108.50000000 1060372.37500000 
0.10500    36517300.00000000 23457682.00000000 58529144.00000000 11917.95996094  1286252.50000000 1028580.87500000 
0.10600    35643896.00000000 22905742.00000000 57140184.00000000 11519.94238281  1247599.37500000 997748.12500000 
0.10700    34792200.00000000 22367190.00000000 55785432.00000000 11137.25390625  1210154.25000000 967852.18750000 
0.10800    33961732.00000000 21841550.00000000 54463844.00000000 10769.72949219  1173877.12500000 938881.00000000 
0.10900    33152372.00000000 21328994.00000000 53175800.00000000 10416.82031250  1138761.00000000 910826.87500000 
0.11000    32363902.00000000 20829452.00000000 51920620.00000000 10078.10937500  1104788.12500000 883666.18750000 
0.11100    31596426.00000000 20342682.00000000 50697892.00000000 9753.48535156   1071922.00000000 857384.68750000 
0.11200    30849290.00000000 19868308.00000000 49507068.00000000 9442.41992188   1040161.68750000 831977.18750000 
0.11300    30122468.00000000 19406774.00000000 48348096.00000000 9144.52343750   1009471.00000000 807412.31250000 
0.11400    29415344.00000000 18957378.00000000 47220944.00000000 8859.43945312   979839.06250000 783687.50000000 
0.11500    28727996.00000000 18520180.00000000 46124820.00000000 8586.74023438   951234.06250000 760767.37500000 
0.11600    28059932.00000000 18094938.00000000 45058392.00000000 8326.03320312   923640.50000000 738650.93750000 
0.11700    27411254.00000000 17681514.00000000 44022352.00000000 8076.99609375   897030.25000000 717316.25000000 
0.11800    26780956.00000000 17279692.00000000 43015732.00000000 7839.14306641   871373.43750000 696733.06250000 
0.11900    26169056.00000000 16889216.00000000 42038180.00000000 7612.13232422   846654.06250000 676891.18750000 
0.12000    25575216.00000000 16510086.00000000 41089068.00000000 7395.57470703   822844.12500000 657769.25000000 
0.12100    24999214.00000000 16141946.00000000 40167964.00000000 7189.10498047   799923.62500000 639359.56250000 
0.12200    24440488.00000000 15784683.00000000 39274084.00000000 6992.19531250   777861.81250000 621624.50000000 
0.12300    23898896.00000000 15437964.00000000 38407504.00000000 6804.67138672   756636.06250000 604556.93750000 
0.12400    23373786.00000000 15101573.00000000 37566604.00000000 6625.96337891   736217.31250000 588132.43750000 
0.12500    22864986.00000000 14775319.00000000 36751844.00000000 6455.71044922   716575.87500000 572329.50000000 
0.12600    22372180.00000000 14459153.00000000 35962168.00000000 6293.71875000   697711.18750000 557135.25000000 
0.12700    21894660.00000000 14152568.00000000 35196940.00000000 6139.40380859   679571.75000000 542520.93750000 
0.12800    21432272.00000000 13855497.00000000 34455352.00000000 5992.47216797   662137.75000000 528473.68750000 
0.12900    20984790.00000000 13567714.00000000 33737528.00000000 5852.60791016   645389.18750000 514972.15625000 
0.13000    20551418.00000000 13288896.00000000 33042308.00000000 5719.39599609   629300.81250000 501994.93750000 
0.13100    20132108.00000000 13018770.00000000 32369052.00000000 5592.47607422   613845.81250000 489522.96875000 
0.13200    19726330.00000000 12757240.00000000 31717282.00000000 5471.65917969   599000.56250000 477542.06250000 
0.13300    19333656.00000000 12504107.00000000 31086886.00000000 5356.46337891   584745.50000000 466025.34375000 
0.13400    18953908.00000000 12259014.00000000 30476306.00000000 5246.61914062   571042.18750000 454963.34375000 
0.13500    18586416.00000000 12021719.00000000 29885704.00000000 5141.82958984   557881.56250000 444329.12500000 
0.13600    18230878.00000000 11791999.00000000 29314092.00000000 5041.73291016   545237.50000000 434109.81250000 
0.13700    17887000.00000000 11569667.00000000 28761002.00000000 4946.08007812   533083.43750000 424282.53125000 
0.13800    17554280.00000000 11354488.00000000 28225836.00000000 4854.58300781   521397.21875000 414835.31250000 
0.13900    17232634.00000000 11146163.00000000 27707952.00000000 4766.99267578   510164.12500000 405748.59375000 
0.14000    16921264.00000000 10944540.00000000 27206728.00000000 4683.01904297   499355.75000000 397005.28125000 
0.14100    16620064.00000000 10749391.00000000 26721788.00000000 4602.37451172   488952.18750000 388592.18750000 
0.14200    16328633.00000000 10560428.00000000 26252232.00000000 4524.87353516   478933.37500000 380486.37500000 
0.14300    16046501.00000000 10377432.00000000 25797926.00000000 4450.24804688   469281.68750000 372677.43750000 
0.14400    15773328.00000000 10200229.00000000 25357760.00000000 4378.25048828   459973.96875000 365146.25000000 
0.14500    15508969.00000000 10028590.00000000 24931776.00000000 4308.71191406   450993.56250000 357882.65625000 
0.14600    15252865.00000000 9862351.00000000 24519066.00000000 4241.43408203   442323.09375000 350870.59375000 
0.14700    15004800.00000000 9701161.00000000 24119168.00000000 4176.21728516   433946.46875000 344091.09375000 
0.14800    14764296.00000000 9544947.00000000 23731384.00000000 4112.83105469   425840.03125000 337539.62500000 
0.14900    14531168.00000000 9393484.00000000 23355448.00000000 4051.11547852   417993.06250000 331195.81250000 
0.15000    14305004.00000000 9246548.00000000 22990832.00000000 3990.95825195   410387.03125000 325046.28125000 
0.15100    14085599.00000000 9103986.00000000 22637060.00000000 3932.17871094   403007.87500000 319083.87500000 
0.15200    13872574.00000000 8965551.00000000 22293504.00000000 3874.62475586   395845.46875000 313299.46875000 
0.15300    13665681.00000000 8831048.00000000 21959870.00000000 3818.18115234   388877.28125000 307671.75000000 
0.15400    13464480.00000000 8700380.00000000 21635548.00000000 3762.69311523   382090.53125000 302197.90625000 
0.15500    13268965.00000000 8573282.00000000 21320346.00000000 3708.07763672   375480.62500000 296865.12500000 
0.15600    13078604.00000000 8449663.00000000 21013400.00000000 3654.20019531   369023.62500000 291662.87500000 
0.15700    12893309.00000000 8329341.50000000 20714850.00000000 3601.01391602   362721.56250000 286584.53125000 
0.15800    12712631.00000000 8212091.50000000 20423568.00000000 3548.37695312   356550.62500000 281616.18750000 
0.15900    12536604.00000000 8097891.50000000 20140004.00000000 3496.22290039   350509.25000000 276754.59375000 
0.16000    12364692.00000000 7986343.00000000 19863168.00000000 3444.52709961   344578.00000000 271988.18750000 
0.16100    12196958.00000000 7877637.00000000 19593058.00000000 3393.20605469   338762.18750000 267313.62500000 
0.16200    12032899.00000000 7771369.50000000 19329046.00000000 3342.15136719   333043.78125000 262719.90625000 
0.16300    11872588.00000000 7667533.00000000 19070942.00000000 3291.34863281   327411.96875000 258201.92187500 
0.16400    11715574.00000000 7565947.50000000 18818356.00000000 3240.78686523   321865.37500000 253754.68750000 
0.16500    11561769.00000000 7466463.50000000 18570994.00000000 3190.39501953   316393.18750000 249368.62500000 
0.16600    11411066.00000000 7369044.50000000 18328750.00000000 3140.15722656   310992.09375000 245041.79687500 
0.16700    11263159.00000000 7273516.00000000 18090820.00000000 3090.03906250   305650.59375000 240767.68750000 
0.16800    11117774.00000000 7179733.00000000 17857448.00000000 3040.02758789   300366.15625000 236541.71875000 
0.16900    10975080.00000000 7087713.50000000 17628226.00000000 2990.16625977   295139.87500000 232362.26562500 
0.17000    10834700.00000000 6997233.50000000 17402774.00000000 2940.37548828   289955.21875000 228221.14062500 
