# SAXS profile: number of points = 501, q_min = 0, q_max = 0.5, delta_q = 0.001
#    q    intensity 
0.00000    162238384.00000000 101201800.00000000 256271104.00000000 109855.99218750 8443435.00000000 6668616.50000000 
0.00100    162206688.00000000 101182048.00000000 256222464.00000000 109830.33593750 8441612.00000000 6667168.50000000 
0.00200    162112896.00000000 101123416.00000000 256072112.00000000 109751.92968750 8436089.00000000 6662858.00000000 
0.00300    161954048.00000000 101024456.00000000 255822704.00000000 109621.96875000 8426917.00000000 6655634.00000000 
0.00400    161731840.00000000 100887848.00000000 255471984.00000000 109440.07031250 8414074.00000000 6645555.00000000 
0.00500    161443968.00000000 100711936.00000000 255022368.00000000 109207.27343750 8397558.00000000 6632602.50000000 
0.00600    161094048.00000000 100497264.00000000 254474960.00000000 108923.08593750 8377450.50000000 6616784.50000000 
0.00700    160682528.00000000 100243200.00000000 253828192.00000000 108587.95312500 8353748.00000000 6598184.50000000 
0.00800    160207520.00000000 99952360.00000000 253085408.00000000 108202.71875000 8326429.50000000 6576791.50000000 
0.00900    159670800.00000000 99622816.00000000 252246560.00000000 107767.95312500 8295643.50000000 6552627.00000000 
0.01000    159072912.00000000 99257008.00000000 251311760.00000000 107283.47656250 8261371.50000000 6525696.50000000 
0.01100    158418336.00000000 98853968.00000000 250282928.00000000 106750.81250000 8223626.50000000 6496109.00000000 
0.01200    157703424.00000000 98415168.00000000 249161552.00000000 106170.26562500 8182527.50000000 6463809.50000000 
0.01300    156932368.00000000 97939352.00000000 247948544.00000000 105543.03125000 8138041.00000000 6428915.50000000 
0.01400    156100640.00000000 97428320.00000000 246646128.00000000 104869.87500000 8090324.50000000 6391443.50000000 
0.01500    155212736.00000000 96883056.00000000 245254352.00000000 104151.51562500 8039373.50000000 6351444.50000000 
0.01600    154269728.00000000 96303192.00000000 243776752.00000000 103388.32031250 7985213.50000000 6308935.50000000 
0.01700    153274208.00000000 95690544.00000000 242214048.00000000 102583.34375000 7928028.00000000 6264042.00000000 
0.01800    152224512.00000000 95045104.00000000 240568848.00000000 101736.04687500 7867841.50000000 6216769.50000000 
0.01900    151123904.00000000 94368280.00000000 238842144.00000000 100846.93750000 7804667.50000000 6167192.50000000 
0.02000    149972704.00000000 93660400.00000000 237035168.00000000 99918.94531250  7738673.50000000 6115376.50000000 
0.02100    148772736.00000000 92922048.00000000 235153776.00000000 98952.35937500  7669927.00000000 6061380.50000000 
0.02200    147525456.00000000 92154464.00000000 233196416.00000000 97948.19531250  7598465.00000000 6005295.00000000 
0.02300    146231632.00000000 91358792.00000000 231167936.00000000 96909.20312500  7524445.00000000 5947141.50000000 
0.02400    144893216.00000000 90535416.00000000 229066944.00000000 95834.91406250  7447889.50000000 5887032.50000000 
0.02500    143512208.00000000 89686208.00000000 226900928.00000000 94728.04687500  7368924.00000000 5825023.50000000 
0.02600    142090800.00000000 88810648.00000000 224670272.00000000 93589.38281250  7287700.00000000 5761222.50000000 
0.02700    140629152.00000000 87911744.00000000 222377008.00000000 92421.32812500  7204201.50000000 5695673.50000000 
0.02800    139129648.00000000 86988328.00000000 220023888.00000000 91223.55468750  7118642.00000000 5628424.50000000 
0.02900    137592880.00000000 86042880.00000000 217613600.00000000 89998.95312500  7031074.50000000 5559655.50000000 
0.03000    136023408.00000000 85076008.00000000 215148576.00000000 88749.64843750  6941592.00000000 5489310.00000000 
0.03100    134420752.00000000 84088824.00000000 212633488.00000000 87475.18750000  6850303.00000000 5417617.50000000 
0.03200    132786624.00000000 83082680.00000000 210068576.00000000 86179.00781250  6757335.50000000 5344580.50000000 
0.03300    131124024.00000000 82058472.00000000 207459008.00000000 84862.23437500  6662796.00000000 5270260.00000000 
0.03400    129434464.00000000 81017760.00000000 204805632.00000000 83526.03906250  6566789.00000000 5194834.00000000 
0.03500    127718504.00000000 79960528.00000000 202112384.00000000 82171.89062500  6469444.00000000 5118295.50000000 
0.03600    125979504.00000000 78888192.00000000 199381968.00000000 80802.14843750  6370826.00000000 5040792.50000000 
0.03700    124219200.00000000 77803544.00000000 196618176.00000000 79417.71875000  6271073.50000000 4962362.00000000 
0.03800    122439144.00000000 76705888.00000000 193822112.00000000 78021.00781250  6170274.00000000 4883131.00000000 
0.03900    120640520.00000000 75597080.00000000 190998128.00000000 76612.55468750  6068586.50000000 4803173.50000000 
0.04000    118826184.00000000 74478160.00000000 188147808.00000000 75195.58593750  5966050.50000000 4722575.50000000 
0.04100    116998000.00000000 73350328.00000000 185275280.00000000 73769.50781250  5862856.50000000 4641407.00000000 
0.04200    115157392.00000000 72214688.00000000 182384032.00000000 72337.71093750  5759089.00000000 4559783.50000000 
0.04300    113306208.00000000 71072816.00000000 179475456.00000000 70901.21093750  5654797.50000000 4477764.50000000 
0.04400    111446592.00000000 69924960.00000000 176553168.00000000 69461.16406250  5550147.00000000 4395428.50000000 
0.04500    109579880.00000000 68772800.00000000 173619072.00000000 68018.98437500  5445282.00000000 4312915.50000000 
0.04600    107707656.00000000 67616896.00000000 170676832.00000000 66577.51562500  5340189.00000000 4230226.00000000 
0.04700    105832672.00000000 66458212.00000000 167729856.00000000 65136.28125000  5235059.00000000 4147465.00000000 
0.04800    103956016.00000000 65298932.00000000 164780064.00000000 63697.79687500  5129946.50000000 4064760.50000000 
0.04900    102079904.00000000 64139576.00000000 161829360.00000000 62263.68750000  5024983.50000000 3982134.25000000 
0.05000    100204712.00000000 62980848.00000000 158881728.00000000 60834.77734375  4920304.00000000 3899706.00000000 
0.05100    98333624.00000000 61824072.00000000 155939760.00000000 59412.58593750  4815914.00000000 3817502.25000000 
0.05200    96468016.00000000 60670324.00000000 153004816.00000000 57998.63671875  4711951.00000000 3735649.25000000 
0.05300    94608536.00000000 59520340.00000000 150080480.00000000 56593.89062500  4608500.00000000 3654168.50000000 
0.05400    92757408.00000000 58375108.00000000 147169584.00000000 55199.48437500  4505684.00000000 3573156.50000000 
0.05500    90916552.00000000 57235708.00000000 144272336.00000000 53817.02734375  4403515.00000000 3492671.50000000 
0.05600    89086968.00000000 56102716.00000000 141391504.00000000 52447.32421875  4302117.00000000 3412783.75000000 
0.05700    87269560.00000000 54977816.00000000 138530768.00000000 51091.35937500  4201585.50000000 3333550.00000000 
0.05800    85466008.00000000 53860752.00000000 135691632.00000000 49750.85546875  4101993.00000000 3255038.25000000 
0.05900    83678664.00000000 52753064.00000000 132878432.00000000 48425.89453125  4003400.75000000 3177287.50000000 
0.06000    81907296.00000000 51655244.00000000 130089112.00000000 47118.22656250  3905852.50000000 3100395.00000000 
0.06100    80153296.00000000 50568032.00000000 127327456.00000000 45828.16406250  3809459.00000000 3024360.75000000 
0.06200    78418544.00000000 49492216.00000000 124595344.00000000 44556.71093750  3714267.75000000 2949282.75000000 
0.06300    76704488.00000000 48428916.00000000 121894688.00000000 43305.01562500  3620355.50000000 2875179.00000000 
0.06400    75011216.00000000 47377652.00000000 119226632.00000000 42073.22656250  3527724.25000000 2802082.75000000 
0.06500    73340064.00000000 46340340.00000000 116592904.00000000 40862.58593750  3436490.75000000 2730087.25000000 
0.06600    71692184.00000000 45317008.00000000 113995432.00000000 39673.70312500  3346701.75000000 2659182.50000000 
0.06700    70068016.00000000 44307980.00000000 111435288.00000000 38506.48046875  3258357.75000000 2589415.75000000 
0.06800    68468952.00000000 43314336.00000000 108914000.00000000 37362.39453125  3171529.75000000 2520862.50000000 
0.06900    66895388.00000000 42336312.00000000 106432344.00000000 36241.50000000  3086261.50000000 2453505.75000000 
0.07000    65348904.00000000 41373932.00000000 103992264.00000000 35144.26953125  3002594.75000000 2387397.25000000 
0.07100    63828808.00000000 40428452.00000000 101594544.00000000 34071.16406250  2920558.75000000 2322577.25000000 
0.07200    62336592.00000000 39499548.00000000 99239808.00000000 33022.25781250  2840178.75000000 2259011.00000000 
0.07300    60872728.00000000 38588188.00000000 96929256.00000000 31997.85351562  2761481.25000000 2196794.75000000 
0.07400    59437820.00000000 37694240.00000000 94663848.00000000 30998.74218750  2684489.50000000 2135898.50000000 
0.07500    58031628.00000000 36818036.00000000 92443840.00000000 30024.61328125  2609211.50000000 2076376.50000000 
0.07600    56655384.00000000 35959988.00000000 90270712.00000000 29075.91992188  2535699.50000000 2018191.50000000 
0.07700    55309380.00000000 35119872.00000000 88143552.00000000 28152.42382812  2463926.75000000 1961397.75000000 
0.07800    53993468.00000000 34298644.00000000 86064416.00000000 27254.46679688  2393939.00000000 1905989.37500000 
0.07900    52707652.00000000 33495884.00000000 84032248.00000000 26382.02929688  2325728.75000000 1851960.62500000 
0.08000    51452460.00000000 32712008.00000000 82047752.00000000 25534.89648438  2259296.50000000 1799343.00000000 
0.08100    50228460.00000000 31947028.00000000 80112488.00000000 24713.21679688  2194646.25000000 1748124.12500000 
0.08200    49035428.00000000 31200730.00000000 78225208.00000000 23916.67968750  2131793.00000000 1698287.37500000 
0.08300    47872752.00000000 30473856.00000000 76386088.00000000 23145.40234375  2070707.25000000 1649848.50000000 
0.08400    46741192.00000000 29765358.00000000 74595736.00000000 22398.94726562  2011378.37500000 1602805.75000000 
0.08500    45640508.00000000 29076084.00000000 72853416.00000000 21677.27148438  1953819.87500000 1557147.62500000 
0.08600    44570632.00000000 28405698.00000000 71159136.00000000 20979.99218750  1898007.87500000 1512850.25000000 
0.08700    43531260.00000000 27753972.00000000 69513232.00000000 20306.87304688  1843933.12500000 1469923.00000000 
0.08800    42522012.00000000 27121030.00000000 67913720.00000000 19657.43554688  1791570.12500000 1428344.12500000 
0.08900    41543160.00000000 26506670.00000000 66362920.00000000 19031.64648438  1740914.37500000 1388101.50000000 
0.09000    40593976.00000000 25910654.00000000 64858596.00000000 18428.88085938  1691931.87500000 1349174.12500000 
0.09100    39674428.00000000 25332644.00000000 63400680.00000000 17848.84179688  1644611.50000000 1311547.50000000 
0.09200    38783888.00000000 24772856.00000000 61988376.00000000 17290.98242188  1598908.50000000 1275205.12500000 
0.09300    37922348.00000000 24230852.00000000 60621384.00000000 16755.06250000  1554808.50000000 1240125.50000000 
0.09400    37088980.00000000 23706216.00000000 59299024.00000000 16240.40136719  1512278.00000000 1206276.50000000 
0.09500    36284004.00000000 23198960.00000000 58020580.00000000 15746.50585938  1471301.37500000 1173645.37500000 
0.09600    35505784.00000000 22708582.00000000 56785460.00000000 15273.23437500  1431832.87500000 1142214.50000000 
0.09700    34755332.00000000 22235054.00000000 55592320.00000000 14819.61816406  1393842.12500000 1111939.37500000 
0.09800    34030748.00000000 21777912.00000000 54441264.00000000 14385.32128906  1357299.00000000 1082811.37500000 
0.09900    33332362.00000000 21336746.00000000 53330832.00000000 13969.77050781  1322164.37500000 1054787.00000000 
0.10000    32658980.00000000 20911230.00000000 52260112.00000000 13572.32324219  1288403.50000000 1027851.68750000 
0.10100    32010312.00000000 20500894.00000000 51228724.00000000 13192.60058594  1255974.62500000 1001968.18750000 
0.10200    31385948.00000000 20105738.00000000 50235072.00000000 12829.81152344  1224842.62500000 977116.50000000 
0.10300    30784910.00000000 19725250.00000000 49278268.00000000 12483.42089844  1194975.87500000 953249.37500000 
0.10400    30206748.00000000 19358818.00000000 48357680.00000000 12153.05566406  1166318.50000000 930350.81250000 
0.10500    29650904.00000000 19006346.00000000 47472220.00000000 11837.90722656  1138853.75000000 908390.62500000 
0.10600    29116304.00000000 18667056.00000000 46620256.00000000 11537.39453125  1112521.37500000 887321.37500000 
0.10700    28602764.00000000 18340924.00000000 45801688.00000000 11250.97949219  1087300.50000000 867125.68750000 
0.10800    28109334.00000000 18027294.00000000 45014920.00000000 10978.00683594  1063121.37500000 847770.93750000 
0.10900    27635368.00000000 17725948.00000000 44258668.00000000 10718.14648438  1039970.00000000 829222.43750000 
0.11000    27180158.00000000 17436192.00000000 43531924.00000000 10470.47558594  1017788.81250000 811454.68750000 
0.11100    26743106.00000000 17157790.00000000 42834168.00000000 10234.63085938  996554.56250000 794428.62500000 
0.11200    26323260.00000000 16890350.00000000 42163960.00000000 10009.96484375  976213.31250000 778110.06250000 
0.11300    25920050.00000000 16633306.00000000 41519836.00000000 9795.84277344   956727.31250000 762478.25000000 
0.11400    25533078.00000000 16386245.00000000 40901344.00000000 9591.96777344   938062.12500000 747492.25000000 
0.11500    25161216.00000000 16148828.00000000 40306852.00000000 9397.49218750   920171.87500000 733126.37500000 
0.11600    24803910.00000000 15920786.00000000 39735792.00000000 9212.07617188   903028.62500000 719347.56250000 
0.11700    24460628.00000000 15701294.00000000 39187000.00000000 9035.22265625   886582.37500000 706136.87500000 
0.11800    24130658.00000000 15490241.00000000 38658820.00000000 8866.20507812   870796.18750000 693447.56250000 
0.11900    23813086.00000000 15287090.00000000 38150672.00000000 8704.75195312   855641.00000000 681255.37500000 
0.12000    23507742.00000000 15091419.00000000 37661884.00000000 8550.24804688   841070.81250000 669537.00000000 
0.12100    23213438.00000000 14903099.00000000 37190656.00000000 8402.38085938   827061.56250000 658267.93750000 
0.12200    22929764.00000000 14721400.00000000 36736764.00000000 8260.55468750   813581.50000000 647418.68750000 
0.12300    22656318.00000000 14546144.00000000 36298620.00000000 8124.34765625   800583.93750000 636957.37500000 
0.12400    22391920.00000000 14376727.00000000 35875496.00000000 7993.35693359   788044.68750000 626857.93750000 
0.12500    22136674.00000000 14213189.00000000 35466428.00000000 7867.18408203   775929.50000000 617105.12500000 
0.12600    21889702.00000000 14054743.00000000 35070752.00000000 7745.48535156   764208.31250000 607666.25000000 
0.12700    21650102.00000000 13901258.00000000 34687404.00000000 7627.78710938   752852.81250000 598526.56250000 
0.12800    21417836.00000000 13752348.00000000 34315184.00000000 7513.84130859   741835.93750000 589652.81250000 
0.12900    21192246.00000000 13607748.00000000 33953616.00000000 7403.21191406   731121.81250000 581032.25000000 
0.13000    20972682.00000000 13467049.00000000 33602144.00000000 7295.68750000   720704.68750000 572643.06250000 
0.13100    20758666.00000000 13329929.00000000 33259504.00000000 7190.82324219   710536.93750000 564459.25000000 
0.13200    20549756.00000000 13196104.00000000 32925058.00000000 7088.47753906   700608.12500000 556469.93750000 
0.13300    20345706.00000000 13065400.00000000 32598176.00000000 6988.27099609   690889.68750000 548654.12500000 
0.13400    20145602.00000000 12937311.00000000 32277972.00000000 6890.01416016   681363.31250000 540991.37500000 
0.13500    19949368.00000000 12811891.00000000 31964150.00000000 6793.44726562   672006.00000000 533470.37500000 
0.13600    19756546.00000000 12688564.00000000 31655850.00000000 6698.36376953   662804.12500000 526075.06250000 
0.13700    19566732.00000000 12567305.00000000 31352214.00000000 6604.49707031   653734.75000000 518790.46875000 
0.13800    19379568.00000000 12447818.00000000 31053096.00000000 6511.72412109   644781.25000000 511601.40625000 
0.13900    19194770.00000000 12329983.00000000 30757902.00000000 6419.89453125   635931.56250000 504497.75000000 
0.14000    19012006.00000000 12213359.00000000 30465774.00000000 6328.75732422   627165.37500000 497469.06250000 
0.14100    18830922.00000000 12097948.00000000 30176464.00000000 6238.28173828   618476.81250000 490501.68750000 
0.14200    18651130.00000000 11983567.00000000 29889612.00000000 6148.28955078   609846.56250000 483585.34375000 
0.14300    18472526.00000000 11869922.00000000 29604772.00000000 6058.63964844   601268.62500000 476713.46875000 
0.14400    18294764.00000000 11756926.00000000 29321282.00000000 5969.23828125   592725.56250000 469875.78125000 
0.14500    18117708.00000000 11644424.00000000 29039114.00000000 5880.05322266   584220.50000000 463064.59375000 
0.14600    17941136.00000000 11532305.00000000 28757568.00000000 5790.93017578   575732.37500000 456277.18750000 
0.14700    17764942.00000000 11420462.00000000 28476644.00000000 5701.90136719   567255.43750000 449502.62500000 
0.14800    17588666.00000000 11308682.00000000 28195940.00000000 5612.84863281   558793.06250000 442734.78125000 
0.14900    17412228.00000000 11196970.00000000 27915138.00000000 5523.73095703   550326.56250000 435975.37500000 
0.15000    17235748.00000000 11085210.00000000 27633962.00000000 5434.53515625   541862.00000000 429214.50000000 
0.15100    17058752.00000000 10973186.00000000 27352532.00000000 5345.24267578   533395.25000000 422454.18750000 
0.15200    16881480.00000000 10861053.00000000 27070486.00000000 5255.84130859   524917.12500000 415690.03125000 
0.15300    16703725.00000000 10748664.00000000 26787724.00000000 5166.36376953   516426.90625000 408918.37500000 
0.15400    16525135.00000000 10635874.00000000 26503838.00000000 5076.73193359   507924.06250000 402133.87500000 
0.15500    16345969.00000000 10522631.00000000 26218882.00000000 4987.06542969   499407.21875000 395343.34375000 
0.15600    16166059.00000000 10409066.00000000 25932786.00000000 4897.31298828   490875.81250000 388543.56250000 
0.15700    15985411.00000000 10295008.00000000 25645738.00000000 4807.54052734   482335.56250000 381737.62500000 
0.15800    15803741.00000000 10180394.00000000 25357322.00000000 4717.70166016   473776.65625000 374918.50000000 
0.15900    15621415.00000000 10065404.00000000 25067596.00000000 4627.95507812   465209.93750000 368093.96875000 
0.16000    15438333.00000000 9949790.00000000 24776602.00000000 4538.24658203   456632.06250000 361260.78125000 
0.16100    15254409.00000000 9833788.00000000 24484382.00000000 4448.77001953   448051.96875000 354426.87500000 
0.16200    15069682.00000000 9717305.00000000 24191000.00000000 4359.36328125   439467.40625000 347588.37500000 
0.16300    14884212.00000000 9600268.00000000 23896150.00000000 4270.19921875   430879.90625000 340750.90625000 
0.16400    14697887.00000000 9482790.00000000 23600572.00000000 4181.41113281   422297.06250000 333917.18750000 
0.16500    14511009.00000000 9364918.00000000 23303492.00000000 4092.88476562   413719.81250000 327089.53125000 
0.16600    14323449.00000000 9246565.00000000 23005438.00000000 4004.85668945   405157.62500000 320270.34375000 
0.16700    14135319.00000000 9127911.00000000 22706528.00000000 3917.24218750   396605.18750000 313460.15625000 
0.16800    13946573.00000000 9008789.00000000 22406746.00000000 3830.17114258   388076.53125000 306669.21875000 
0.16900    13757504.00000000 8889504.00000000 22106408.00000000 3743.77636719   379571.34375000 299897.62500000 
0.17000    13568061.00000000 8769963.00000000 21805204.00000000 3658.02783203   371098.21875000 293150.18750000 
