# SAXS profile: number of points = 501, q_min = 0, q_max = 0.5, delta_q = 0.001
#    q    intensity 
0.00000    162236288.00000000 101201672.00000000 256271552.00000000 105961.26562500 8292418.00000000 6549333.00000000 
0.00100    162205488.00000000 101181216.00000000 256221248.00000000 105932.03125000 8290416.50000000 6547781.00000000 
0.00200    162110720.00000000 101122128.00000000 256068688.00000000 105844.01562500 8284443.50000000 6543069.00000000 
0.00300    161949696.00000000 101022464.00000000 255813440.00000000 105697.92968750 8274502.50000000 6535286.50000000 
0.00400    161723888.00000000 100883048.00000000 255458112.00000000 105493.85937500 8260622.50000000 6524353.00000000 
0.00500    161430880.00000000 100704120.00000000 255003376.00000000 105231.80468750 8242785.50000000 6510419.00000000 
0.00600    161073984.00000000 100485928.00000000 254445088.00000000 104912.75000000 8221040.50000000 6493319.00000000 
0.00700    160656560.00000000 100229504.00000000 253789728.00000000 104537.46093750 8195467.00000000 6473276.50000000 
0.00800    160172704.00000000 99933656.00000000 253035776.00000000 104105.53906250 8166041.00000000 6450167.50000000 
0.00900    159627568.00000000 99600184.00000000 252184336.00000000 103618.37500000 8132864.00000000 6424099.00000000 
0.01000    159021792.00000000 99229688.00000000 251235872.00000000 103077.46093750 8095929.00000000 6395134.00000000 
0.01100    158357536.00000000 98821248.00000000 250193264.00000000 102482.84375000 8055287.00000000 6363268.50000000 
0.01200    157632992.00000000 98376160.00000000 249055936.00000000 101836.02343750 8011134.50000000 6328574.00000000 
0.01300    156850032.00000000 97894616.00000000 247828064.00000000 101137.43750000 7963365.00000000 6291075.50000000 
0.01400    156007536.00000000 97377904.00000000 246508240.00000000 100389.56250000 7912171.50000000 6250908.50000000 
0.01500    155108624.00000000 96826776.00000000 245102160.00000000 99593.02343750  7857583.50000000 6208056.00000000 
0.01600    154155584.00000000 96241664.00000000 243607312.00000000 98748.97656250  7799715.50000000 6162646.50000000 
0.01700    153148688.00000000 95622832.00000000 242029536.00000000 97858.86718750  7738640.00000000 6114681.50000000 
0.01800    152088544.00000000 94972336.00000000 240367552.00000000 96924.75781250  7674466.00000000 6064266.50000000 
0.01900    150978752.00000000 94290216.00000000 238626096.00000000 95948.18750000  7607291.00000000 6011530.50000000 
0.02000    149816928.00000000 93576960.00000000 236807648.00000000 94930.35156250  7537110.00000000 5956460.00000000 
0.02100    148608832.00000000 92833976.00000000 234912016.00000000 93873.26562500  7464247.50000000 5899221.00000000 
0.02200    147352576.00000000 92062872.00000000 232943680.00000000 92778.80468750  7388595.00000000 5839845.50000000 
0.02300    146052512.00000000 91264040.00000000 230905168.00000000 91648.67968750  7310463.00000000 5778433.50000000 
0.02400    144708816.00000000 90438184.00000000 228799712.00000000 90484.74218750  7229783.00000000 5715093.50000000 
0.02500    143323456.00000000 89586472.00000000 226625248.00000000 89289.10937500  7146797.50000000 5649879.50000000 
0.02600    141898432.00000000 88710752.00000000 224389904.00000000 88063.26562500  7061568.50000000 5582948.50000000 
0.02700    140436544.00000000 87810696.00000000 222097616.00000000 86809.03125000  6974230.00000000 5514317.50000000 
0.02800    138937504.00000000 86888696.00000000 219745520.00000000 85528.71093750  6884943.50000000 5444153.00000000 
0.02900    137403536.00000000 85944928.00000000 217341920.00000000 84224.84375000  6793799.50000000 5372500.00000000 
0.03000    135838768.00000000 84981936.00000000 214884240.00000000 82898.78125000  6700881.00000000 5299525.00000000 
0.03100    134243408.00000000 83999704.00000000 212379152.00000000 81552.53125000  6606418.50000000 5225292.50000000 
0.03200    132618784.00000000 82999008.00000000 209830656.00000000 80188.17187500  6510479.00000000 5149859.00000000 
0.03300    130968072.00000000 81982344.00000000 207238512.00000000 78808.33593750  6413177.50000000 5073371.50000000 
0.03400    129292512.00000000 80950344.00000000 204608432.00000000 77414.50000000  6314719.50000000 4995919.50000000 
0.03500    127594760.00000000 79903960.00000000 201942160.00000000 76008.79687500  6215147.50000000 4917628.00000000 
0.03600    125875160.00000000 78844416.00000000 199244320.00000000 74593.16406250  6114634.50000000 4838583.00000000 
0.03700    124137856.00000000 77772624.00000000 196514384.00000000 73169.29687500  6013317.00000000 4758874.50000000 
0.03800    122383512.00000000 76690096.00000000 193757888.00000000 71739.06250000  5911252.00000000 4678609.50000000 
0.03900    120614304.00000000 75599488.00000000 190979504.00000000 70305.50781250  5808680.50000000 4597889.00000000 
0.04000    118832736.00000000 74500024.00000000 188180256.00000000 68869.62500000  5705612.50000000 4516836.00000000 
0.04100    117039752.00000000 73394032.00000000 185362992.00000000 67433.69531250  5602291.00000000 4435486.00000000 
0.04200    115237928.00000000 72280536.00000000 182529632.00000000 65999.10156250  5498767.00000000 4353948.00000000 
0.04300    113428488.00000000 71162776.00000000 179685360.00000000 64567.27343750  5395062.00000000 4272383.00000000 
0.04400    111614240.00000000 70041432.00000000 176833008.00000000 63140.94140625  5291478.00000000 4190783.00000000 
0.04500    109796104.00000000 68917552.00000000 173973776.00000000 61720.82812500  5188013.50000000 4109318.00000000 
0.04600    107975760.00000000 67792224.00000000 171111248.00000000 60309.10546875  5084784.50000000 4028040.25000000 
0.04700    106155944.00000000 66666236.00000000 168248688.00000000 58907.18750000  4981970.00000000 3947016.00000000 
0.04800    104337824.00000000 65541084.00000000 165387600.00000000 57515.99218750  4879582.50000000 3866347.50000000 
0.04900    102523160.00000000 64417384.00000000 162531792.00000000 56138.21484375  4777790.00000000 3786128.25000000 
0.05000    100713704.00000000 63296860.00000000 159683632.00000000 54774.27343750  4676666.00000000 3706412.25000000 
0.05100    98910720.00000000 62179584.00000000 156844752.00000000 53425.51562500  4576289.00000000 3627296.25000000 
0.05200    97115216.00000000 61067020.00000000 154017456.00000000 52093.42187500  4476749.00000000 3548817.00000000 
0.05300    95330032.00000000 59960236.00000000 151205568.00000000 50778.96484375  4378172.00000000 3471065.50000000 
0.05400    93555472.00000000 58859616.00000000 148410624.00000000 49483.48046875  4280587.00000000 3394084.00000000 
0.05500    91793376.00000000 57766124.00000000 145634912.00000000 48207.64843750  4184126.25000000 3317978.25000000 
0.05600    90046096.00000000 56680732.00000000 142879952.00000000 46952.47656250  4088791.00000000 3242757.75000000 
0.05700    88312648.00000000 55604468.00000000 140147104.00000000 45719.29687500  3994708.50000000 3168499.25000000 
0.05800    86595952.00000000 54537760.00000000 137441088.00000000 44508.14843750  3901938.25000000 3095252.75000000 
0.05900    84896624.00000000 53481576.00000000 134761840.00000000 43320.51953125  3810488.75000000 3023080.00000000 
0.06000    83215480.00000000 52436148.00000000 132110632.00000000 42156.19140625  3720483.25000000 2951977.50000000 
0.06100    81553928.00000000 51402560.00000000 129489704.00000000 41016.88281250  3631955.75000000 2882043.75000000 
0.06200    79913184.00000000 50381356.00000000 126901064.00000000 39901.70703125  3544924.50000000 2813271.75000000 
0.06300    78293664.00000000 49373004.00000000 124344720.00000000 38812.12109375  3459447.75000000 2745733.00000000 
0.06400    76696232.00000000 48378268.00000000 121823568.00000000 37748.03515625  3375568.50000000 2679439.75000000 
0.06500    75122968.00000000 47397160.00000000 119339184.00000000 36709.79296875  3293312.00000000 2614390.50000000 
0.06600    73572888.00000000 46430884.00000000 116890456.00000000 35697.97656250  3212712.25000000 2550661.00000000 
0.06700    72047624.00000000 45479340.00000000 114481240.00000000 34712.35546875  3133810.75000000 2488238.75000000 
0.06800    70546784.00000000 44542884.00000000 112110536.00000000 33753.07031250  3056600.00000000 2427150.75000000 
0.06900    69073000.00000000 43622388.00000000 109780064.00000000 32820.28515625  2981116.75000000 2367426.50000000 
0.07000    67624704.00000000 42717484.00000000 107490928.00000000 31913.71875000  2907368.50000000 2309023.00000000 
0.07100    66202804.00000000 41829220.00000000 105242608.00000000 31033.38085938  2835355.25000000 2252028.25000000 
0.07200    64807612.00000000 40957068.00000000 103036568.00000000 30179.18750000  2765090.00000000 2196377.50000000 
0.07300    63440684.00000000 40102048.00000000 100873984.00000000 29350.80468750  2696583.75000000 2142122.75000000 
0.07400    62100856.00000000 39263572.00000000 98753872.00000000 28548.21093750  2629819.00000000 2089210.12500000 
0.07500    60788852.00000000 38442168.00000000 96678184.00000000 27771.08007812  2564784.25000000 2037683.00000000 
0.07600    59505052.00000000 37638096.00000000 94646024.00000000 27018.87304688  2501510.75000000 1987510.25000000 
0.07700    58249492.00000000 36851304.00000000 92657848.00000000 26291.24023438  2439955.50000000 1938709.00000000 
0.07800    57022016.00000000 36081456.00000000 90713288.00000000 25587.85546875  2380106.00000000 1891246.75000000 
0.07900    55822368.00000000 35329228.00000000 88813584.00000000 24908.14257812  2321919.75000000 1845092.87500000 
0.08000    54650916.00000000 34594148.00000000 86956992.00000000 24251.77734375  2265422.25000000 1800278.50000000 
0.08100    53507648.00000000 33876488.00000000 85145768.00000000 23618.08984375  2210572.00000000 1756755.37500000 
0.08200    52391844.00000000 33176412.00000000 83377784.00000000 23006.60351562  2157358.25000000 1714506.37500000 
0.08300    51304272.00000000 32493020.00000000 81653672.00000000 22416.46289062  2105720.25000000 1673519.12500000 
0.08400    50244060.00000000 31826842.00000000 79972304.00000000 21847.35546875  2055657.87500000 1633759.00000000 
0.08500    49210764.00000000 31177624.00000000 78334520.00000000 21298.63671875  2007127.37500000 1595219.37500000 
0.08600    48204768.00000000 30544918.00000000 76738712.00000000 20769.66406250  1960102.37500000 1557859.12500000 
0.08700    47225356.00000000 29928968.00000000 75184736.00000000 20259.72851562  1914526.50000000 1521661.25000000 
0.08800    46272256.00000000 29329170.00000000 73672824.00000000 19768.02343750  1870405.87500000 1486595.25000000 
0.08900    45345128.00000000 28745742.00000000 72201584.00000000 19294.15039062  1827648.75000000 1452629.75000000 
0.09000    44443420.00000000 28178234.00000000 70770768.00000000 18837.14453125  1786272.37500000 1419733.25000000 
0.09100    43566764.00000000 27626272.00000000 69379960.00000000 18396.58203125  1746209.00000000 1387873.50000000 
0.09200    42714712.00000000 27089636.00000000 68026896.00000000 17971.68164062  1707420.87500000 1357037.00000000 
0.09300    41886392.00000000 26568006.00000000 66712648.00000000 17561.90039062  1669877.00000000 1327169.62500000 
0.09400    41082536.00000000 26061326.00000000 65435784.00000000 17166.10546875  1633507.25000000 1298258.37500000 
0.09500    40301220.00000000 25569032.00000000 64194944.00000000 16784.16015625  1598284.75000000 1270255.87500000 
0.09600    39542228.00000000 25090870.00000000 62990700.00000000 16415.21093750  1564201.87500000 1243134.87500000 
0.09700    38806048.00000000 24626658.00000000 61820656.00000000 16058.41210938  1531174.00000000 1216869.50000000 
0.09800    38090380.00000000 24175952.00000000 60684720.00000000 15713.47949219  1499186.25000000 1191417.00000000 
0.09900    37395732.00000000 23738294.00000000 59582168.00000000 15379.60546875  1468183.87500000 1166755.00000000 
0.10000    36721632.00000000 23313668.00000000 58511960.00000000 15056.19238281  1438119.87500000 1142850.00000000 
0.10100    36067100.00000000 22901238.00000000 57472428.00000000 14742.63378906  1408970.50000000 1119659.50000000 
0.10200    35431612.00000000 22500714.00000000 56463448.00000000 14438.40917969  1380681.62500000 1097161.75000000 
0.10300    34814512.00000000 22112072.00000000 55484148.00000000 14142.84960938  1353233.62500000 1075323.62500000 
0.10400    34215444.00000000 21734848.00000000 54533200.00000000 13855.62988281  1326560.00000000 1054112.25000000 
0.10500    33634140.00000000 21368492.00000000 53609836.00000000 13576.22167969  1300654.25000000 1033511.62500000 
0.10600    33068678.00000000 21012856.00000000 52713060.00000000 13303.91503906  1275449.62500000 1013467.06250000 
0.10700    32519838.00000000 20667426.00000000 51841956.00000000 13038.37304688  1250933.37500000 993977.00000000 
0.10800    31986416.00000000 20331774.00000000 50995584.00000000 12779.31347656  1227061.62500000 974994.62500000 
0.10900    31468002.00000000 20005582.00000000 50173020.00000000 12526.08886719  1203805.12500000 956505.87500000 
0.11000    30963710.00000000 19688586.00000000 49373356.00000000 12278.42285156  1181125.50000000 938474.87500000 
0.11100    30473206.00000000 19380544.00000000 48595636.00000000 12035.85937500  1158988.75000000 920882.50000000 
0.11200    29996018.00000000 19080622.00000000 47839144.00000000 11798.17968750  1137370.75000000 903717.50000000 
0.11300    29531540.00000000 18789066.00000000 47102872.00000000 11564.94824219  1116247.37500000 886929.18750000 
0.11400    29079230.00000000 18505324.00000000 46386348.00000000 11335.96679688  1095591.75000000 870518.81250000 
0.11500    28638428.00000000 18228902.00000000 45688016.00000000 11111.02148438  1075369.37500000 854456.87500000 
0.11600    28208714.00000000 17959520.00000000 45007580.00000000 10889.65136719  1055548.37500000 838723.50000000 
0.11700    27789616.00000000 17696966.00000000 44344032.00000000 10671.84960938  1036133.18750000 823299.62500000 
0.11800    27380490.00000000 17440688.00000000 43696392.00000000 10457.27343750  1017071.87500000 808170.75000000 
0.11900    26981078.00000000 17190896.00000000 43064516.00000000 10245.73828125  998355.18750000 793318.12500000 
0.12000    26590850.00000000 16946838.00000000 42446980.00000000 10037.19433594  979973.12500000 778727.06250000 
0.12100    26209394.00000000 16708402.00000000 41843560.00000000 9831.49218750   961901.18750000 764385.18750000 
0.12200    25836086.00000000 16475154.00000000 41253608.00000000 9628.40429688   944116.93750000 750273.50000000 
0.12300    25470820.00000000 16247107.00000000 40676112.00000000 9427.91992188   926608.31250000 736383.31250000 
0.12400    25112868.00000000 16023832.00000000 40110852.00000000 9229.93457031   909364.68750000 722702.06250000 
0.12500    24762092.00000000 15805096.00000000 39556084.00000000 9034.31250000   892370.62500000 709221.87500000 
0.12600    24418114.00000000 15590655.00000000 39012860.00000000 8841.24218750   875619.81250000 695929.50000000 
0.12700    24080564.00000000 15380296.00000000 38479972.00000000 8650.32324219   859092.43750000 682819.87500000 
0.12800    23748798.00000000 15173762.00000000 37956132.00000000 8461.87597656   842777.81250000 669883.31250000 
0.12900    23422958.00000000 14970984.00000000 37442296.00000000 8275.74804688   826682.06250000 657112.43750000 
0.13000    23102666.00000000 14771633.00000000 36936416.00000000 8091.82958984   810785.75000000 644501.56250000 
0.13100    22787420.00000000 14575511.00000000 36439096.00000000 7910.18066406   795088.06250000 632046.00000000 
0.13200    22477110.00000000 14382537.00000000 35949488.00000000 7730.98974609   779577.81250000 619736.75000000 
0.13300    22171308.00000000 14192469.00000000 35467432.00000000 7554.16162109   764249.62500000 607576.81250000 
0.13400    21870056.00000000 14005158.00000000 34992308.00000000 7379.63232422   749102.50000000 595555.50000000 
0.13500    21573168.00000000 13820475.00000000 34523644.00000000 7207.58496094   734138.06250000 583681.43750000 
0.13600    21280040.00000000 13638353.00000000 34061328.00000000 7038.11914062   719349.50000000 571940.56250000 
0.13700    20990494.00000000 13458580.00000000 33604896.00000000 6871.08251953   704734.12500000 560331.31250000 
0.13800    20704930.00000000 13280920.00000000 33154358.00000000 6706.66650391   690291.68750000 548860.43750000 
0.13900    20422804.00000000 13105407.00000000 32709084.00000000 6544.86376953   676018.62500000 537526.75000000 
0.14000    20143788.00000000 12932001.00000000 32269040.00000000 6385.75390625   661922.31250000 526326.75000000 
0.14100    19868068.00000000 12760397.00000000 31833868.00000000 6229.40039062   647998.00000000 515261.78125000 
0.14200    19595142.00000000 12590651.00000000 31403408.00000000 6075.89794922   634245.68750000 504326.87500000 
0.14300    19325296.00000000 12422798.00000000 30977366.00000000 5925.14990234   620665.00000000 493529.28125000 
0.14400    19058098.00000000 12256395.00000000 30555808.00000000 5777.32226562   607257.00000000 482863.53125000 
0.14500    18793958.00000000 12091673.00000000 30138298.00000000 5632.46923828   594028.37500000 472338.18750000 
0.14600    18532026.00000000 11928601.00000000 29724836.00000000 5490.60058594   580982.00000000 461950.03125000 
0.14700    18272914.00000000 11766904.00000000 29315180.00000000 5351.75244141   568114.31250000 451704.84375000 
0.14800    18016044.00000000 11606587.00000000 28909396.00000000 5215.95410156   555422.81250000 441594.15625000 
0.14900    17761636.00000000 11447698.00000000 28507234.00000000 5083.23925781   542916.75000000 431630.62500000 
0.15000    17509596.00000000 11290162.00000000 28108426.00000000 4953.64257812   530595.31250000 421807.06250000 
0.15100    17259876.00000000 11133887.00000000 27713210.00000000 4827.15966797   518459.09375000 412130.12500000 
0.15200    17012370.00000000 10979052.00000000 27321520.00000000 4703.86083984   506514.59375000 402600.68750000 
0.15300    16767052.00000000 10825340.00000000 26933070.00000000 4583.69091797   494755.78125000 393219.21875000 
0.15400    16523844.00000000 10672885.00000000 26547848.00000000 4466.65429688   483193.00000000 383984.21875000 
0.15500    16283081.00000000 10521611.00000000 26166112.00000000 4352.79052734   471821.25000000 374900.56250000 
0.15600    16044170.00000000 10371514.00000000 25787276.00000000 4242.06250000   460641.28125000 365970.62500000 
0.15700    15807539.00000000 10222748.00000000 25411958.00000000 4134.44189453   449662.15625000 357194.00000000 
0.15800    15572874.00000000 10075001.00000000 25039462.00000000 4029.84741211   438873.25000000 348565.09375000 
0.15900    15340391.00000000 9928477.00000000 24670036.00000000 3928.38916016   428286.31250000 340094.68750000 
0.16000    15110017.00000000 9783169.00000000 24304070.00000000 3829.92260742   417890.87500000 331776.56250000 
0.16100    14881761.00000000 9638959.00000000 23941124.00000000 3734.44482422   407697.56250000 323615.37500000 
0.16200    14655497.00000000 9495975.00000000 23581262.00000000 3641.92382812   397699.84375000 315608.15625000 
0.16300    14431327.00000000 9354101.00000000 23224712.00000000 3552.22973633   387896.31250000 307757.56250000 
0.16400    14209387.00000000 9213391.00000000 22871264.00000000 3465.41186523   378292.93750000 300059.87500000 
0.16500    13989390.00000000 9073890.00000000 22520684.00000000 3381.32543945   368883.37500000 292513.71875000 
0.16600    13771613.00000000 8935547.00000000 22173420.00000000 3299.92529297   359667.34375000 285124.56250000 
0.16700    13555813.00000000 8798369.00000000 21829396.00000000 3221.14233398   350640.43750000 277885.62500000 
0.16800    13342072.00000000 8662400.00000000 21488226.00000000 3144.91137695   341808.59375000 270796.25000000 
0.16900    13130599.00000000 8527711.00000000 21150632.00000000 3071.14819336   333168.25000000 263861.50000000 
0.17000    12921131.00000000 8394125.00000000 20815938.00000000 2999.75781250   324710.53125000 257073.31250000 
