# SAXS profile: number of points = 501, q_min = 0, q_max = 0.5, delta_q = 0.001
#    q    intensity 
0.00000    162237312.00000000 101202112.00000000 256270688.00000000 112472.92968750 8543412.00000000 6747577.00000000 
0.00100    162193888.00000000 101173704.00000000 256199184.00000000 112434.96093750 8540816.00000000 6745514.00000000 
0.00200    162059856.00000000 101090392.00000000 255987536.00000000 112322.36718750 8532930.00000000 6739324.00000000 
0.00300    161835904.00000000 100951560.00000000 255633712.00000000 112134.92968750 8519873.00000000 6728995.50000000 
0.00400    161520704.00000000 100757472.00000000 255138608.00000000 111872.68750000 8501545.00000000 6714662.50000000 
0.00500    161115904.00000000 100506976.00000000 254503248.00000000 111536.84375000 8478044.00000000 6696190.50000000 
0.00600    160622528.00000000 100202184.00000000 253727056.00000000 111127.74218750 8449500.00000000 6673725.00000000 
0.00700    160043280.00000000 99844696.00000000 252816480.00000000 110646.28906250 8415881.00000000 6647289.50000000 
0.00800    159372160.00000000 99433288.00000000 251771760.00000000 110093.28125000 8377244.50000000 6616984.00000000 
0.00900    158619952.00000000 98970040.00000000 250590704.00000000 109470.53125000 8333711.00000000 6582724.00000000 
0.01000    157787120.00000000 98455424.00000000 249278688.00000000 108779.43750000 8285377.50000000 6544707.00000000 
0.01100    156871504.00000000 97890072.00000000 247838752.00000000 108020.48437500 8232300.00000000 6502980.00000000 
0.01200    155874976.00000000 97274552.00000000 246271744.00000000 107197.12500000 8174611.00000000 6457626.00000000 
0.01300    154797264.00000000 96610640.00000000 244580928.00000000 106309.56250000 8112428.50000000 6408717.50000000 
0.01400    153645424.00000000 95898600.00000000 242771888.00000000 105359.85156250 8045867.50000000 6356366.50000000 
0.01500    152419840.00000000 95141952.00000000 240845232.00000000 104351.14843750 7975034.50000000 6300685.50000000 
0.01600    151121616.00000000 94340352.00000000 238803152.00000000 103283.84375000 7900140.00000000 6241781.50000000 
0.01700    149752976.00000000 93496312.00000000 236654512.00000000 102161.32031250 7821247.50000000 6179764.50000000 
0.01800    148317360.00000000 92609976.00000000 234399152.00000000 100985.71093750 7738566.00000000 6114714.50000000 
0.01900    146818320.00000000 91683992.00000000 232041648.00000000 99760.03125000  7652256.00000000 6046812.50000000 
0.02000    145257616.00000000 90719512.00000000 229585744.00000000 98485.79687500  7562406.50000000 5976210.50000000 
0.02100    143635232.00000000 89719040.00000000 227039744.00000000 97166.07812500  7469350.00000000 5902968.00000000 
0.02200    141958752.00000000 88683472.00000000 224403824.00000000 95804.06250000  7373104.50000000 5827239.00000000 
0.02300    140229632.00000000 87614712.00000000 221685296.00000000 94401.03906250  7273885.50000000 5749211.50000000 
0.02400    138448544.00000000 86515176.00000000 218885776.00000000 92961.62500000  7171980.00000000 5668996.50000000 
0.02500    136620960.00000000 85385880.00000000 216012528.00000000 91487.35156250  7067442.50000000 5586782.00000000 
0.02600    134750528.00000000 84229208.00000000 213070448.00000000 89981.73437500  6960547.00000000 5502681.00000000 
0.02700    132838144.00000000 83048464.00000000 210064992.00000000 88446.54687500  6851453.50000000 5416793.50000000 
0.02800    130888592.00000000 81842408.00000000 206999184.00000000 86885.95312500  6740347.50000000 5329382.00000000 
0.02900    128904488.00000000 80616360.00000000 203878928.00000000 85302.78125000  6627497.50000000 5240539.50000000 
0.03000    126890144.00000000 79370712.00000000 200711184.00000000 83699.58593750  6512970.00000000 5150421.00000000 
0.03100    124847304.00000000 78107464.00000000 197499504.00000000 82079.78906250  6397110.50000000 5059214.00000000 
0.03200    122780696.00000000 76828664.00000000 194246624.00000000 80444.56250000  6279947.50000000 4967000.50000000 
0.03300    120692864.00000000 75536624.00000000 190962096.00000000 78798.85937500  6161824.00000000 4874007.50000000 
0.03400    118585856.00000000 74233816.00000000 187648688.00000000 77143.82031250  6042893.00000000 4780366.50000000 
0.03500    116466256.00000000 72921472.00000000 184311808.00000000 75483.69531250  5923304.00000000 4686213.00000000 
0.03600    114333576.00000000 71602048.00000000 180958032.00000000 73820.60156250  5803301.00000000 4591697.50000000 
0.03700    112193792.00000000 70277784.00000000 177589888.00000000 72157.32031250  5683002.00000000 4496994.00000000 
0.03800    110048520.00000000 68949968.00000000 174214128.00000000 70496.14062500  5562662.50000000 4402195.50000000 
0.03900    107901072.00000000 67619968.00000000 170833120.00000000 68839.79687500  5442461.50000000 4307473.00000000 
0.04000    105754352.00000000 66290088.00000000 167453584.00000000 67190.39062500  5322526.00000000 4212974.50000000 
0.04100    103612160.00000000 64962320.00000000 164082272.00000000 65551.36718750  5203020.50000000 4118813.00000000 
0.04200    101476784.00000000 63639296.00000000 160719840.00000000 63923.62500000  5084124.50000000 4025139.50000000 
0.04300    99350528.00000000 62321660.00000000 157372384.00000000 62311.00781250  4966006.00000000 3932080.75000000 
0.04400    97237360.00000000 61011512.00000000 154043968.00000000 60713.63281250  4848863.50000000 3839735.00000000 
0.04500    95139600.00000000 59710500.00000000 150740128.00000000 59135.51562500  4732753.00000000 3748233.25000000 
0.04600    93059608.00000000 58419692.00000000 147462704.00000000 57577.29687500  4617912.50000000 3657667.50000000 
0.04700    90998520.00000000 57141368.00000000 144216704.00000000 56041.03515625  4504379.00000000 3568168.25000000 
0.04800    88960632.00000000 55876728.00000000 141005744.00000000 54528.68359375  4392344.50000000 3479817.50000000 
0.04900    86946944.00000000 54627068.00000000 137832288.00000000 53041.46093750  4281938.50000000 3392726.75000000 
0.05000    84960984.00000000 53393892.00000000 134700384.00000000 51581.11328125  4173195.25000000 3306969.00000000 
0.05100    83002792.00000000 52177900.00000000 131616728.00000000 50148.84765625  4066294.25000000 3222648.50000000 
0.05200    81075592.00000000 50980684.00000000 128578848.00000000 48745.95703125  3961324.25000000 3139815.25000000 
0.05300    79181200.00000000 49803364.00000000 125592240.00000000 47373.51562500  3858375.00000000 3058597.00000000 
0.05400    77320120.00000000 48647380.00000000 122658128.00000000 46032.42187500  3757491.00000000 2978980.00000000 
0.05500    75495600.00000000 47512784.00000000 119779896.00000000 44723.76953125  3658792.50000000 2901080.25000000 
0.05600    73707616.00000000 46401200.00000000 116960656.00000000 43447.96484375  3562340.50000000 2824923.75000000 
0.05700    71958408.00000000 45313092.00000000 114201488.00000000 42205.93750000  3468186.50000000 2750591.50000000 
0.05800    70248288.00000000 44249092.00000000 111502952.00000000 40997.94140625  3376362.00000000 2678081.00000000 
0.05900    68578792.00000000 43210360.00000000 108869648.00000000 39824.60937500  3286915.75000000 2607448.00000000 
0.06000    66951024.00000000 42196964.00000000 106300824.00000000 38686.20312500  3199924.75000000 2538737.50000000 
0.06100    65364840.00000000 41209780.00000000 103797824.00000000 37582.94921875  3115386.00000000 2471941.25000000 
0.06200    63822224.00000000 40248880.00000000 101362640.00000000 36514.51562500  3033299.75000000 2407102.75000000 
0.06300    62322932.00000000 39314820.00000000 98996400.00000000 35481.56250000  2953737.75000000 2344233.50000000 
0.06400    60867296.00000000 38408128.00000000 96697688.00000000 34483.65625000  2876664.75000000 2283321.75000000 
0.06500    59455928.00000000 37528172.00000000 94469432.00000000 33519.82421875  2802087.50000000 2224381.00000000 
0.06600    58088816.00000000 36675604.00000000 92310288.00000000 32591.07421875  2730013.50000000 2167404.00000000 
0.06700    56766152.00000000 35850972.00000000 90220696.00000000 31696.02734375  2660423.00000000 2112382.25000000 
0.06800    55487520.00000000 35053676.00000000 88201696.00000000 30834.83789062  2593277.00000000 2059305.12500000 
0.06900    54253116.00000000 34283592.00000000 86251704.00000000 30006.74414062  2528579.50000000 2008131.87500000 
0.07000    53063056.00000000 33540830.00000000 84370720.00000000 29210.92187500  2466289.25000000 1958878.50000000 
0.07100    51916440.00000000 32825204.00000000 82558720.00000000 28446.95898438  2406387.75000000 1911477.50000000 
0.07200    50812796.00000000 32135874.00000000 80815208.00000000 27713.66796875  2348818.25000000 1865927.50000000 
0.07300    49751528.00000000 31473500.00000000 79138048.00000000 27010.83398438  2293498.25000000 1822178.87500000 
0.07400    48732536.00000000 30837360.00000000 77527816.00000000 26337.35742188  2240456.50000000 1780199.87500000 
0.07500    47754708.00000000 30226598.00000000 75981936.00000000 25692.16796875  2189581.00000000 1739946.62500000 
0.07600    46817032.00000000 29640988.00000000 74499616.00000000 25074.43750000  2140836.75000000 1701364.00000000 
0.07700    45919272.00000000 29080172.00000000 73080400.00000000 24483.25390625  2094156.25000000 1664417.12500000 
0.07800    45059936.00000000 28543502.00000000 71722864.00000000 23917.50195312  2049474.50000000 1629052.25000000 
0.07900    44238492.00000000 28030244.00000000 70423784.00000000 23376.24414062  2006723.00000000 1595212.75000000 
0.08000    43453640.00000000 27539896.00000000 69182848.00000000 22858.36718750  1965853.75000000 1562843.50000000 
0.08100    42704136.00000000 27071826.00000000 67998240.00000000 22362.79882812  1926759.25000000 1531909.37500000 
0.08200    41989492.00000000 26625236.00000000 66868060.00000000 21888.55273438  1889399.00000000 1502331.25000000 
0.08300    41307496.00000000 26199432.00000000 65789860.00000000 21434.41015625  1853670.75000000 1474057.62500000 
0.08400    40657688.00000000 25793576.00000000 64762668.00000000 20999.54101562  1819521.75000000 1447013.62500000 
0.08500    40038412.00000000 25406922.00000000 63783808.00000000 20582.25390625  1786856.50000000 1421164.75000000 
0.08600    39448444.00000000 25038984.00000000 62852364.00000000 20182.38085938  1755640.50000000 1396440.25000000 
0.08700    38886948.00000000 24688530.00000000 61965404.00000000 19798.24218750  1725735.87500000 1372777.87500000 
0.08800    38351796.00000000 24354884.00000000 61120252.00000000 19428.92773438  1697114.62500000 1350120.12500000 
0.08900    37842548.00000000 24037406.00000000 60315764.00000000 19073.56054688  1669667.75000000 1328402.62500000 
0.09000    37357104.00000000 23735064.00000000 59549396.00000000 18730.96093750  1643335.37500000 1307558.50000000 
0.09100    36894368.00000000 23447116.00000000 58819652.00000000 18400.38281250  1618047.62500000 1287552.62500000 
0.09200    36453496.00000000 23172762.00000000 58123496.00000000 18080.61718750  1593709.75000000 1268312.25000000 
0.09300    36032272.00000000 22911040.00000000 57459360.00000000 17770.94531250  1570270.12500000 1249777.62500000 
0.09400    35629752.00000000 22661332.00000000 56824896.00000000 17470.33593750  1547661.00000000 1231892.37500000 
0.09500    35244696.00000000 22422510.00000000 56218352.00000000 17178.27539062  1525794.00000000 1214601.50000000 
0.09600    34875800.00000000 22194066.00000000 55637620.00000000 16893.61718750  1504616.25000000 1197867.25000000 
0.09700    34522144.00000000 21974954.00000000 55081256.00000000 16615.77148438  1484067.87500000 1181618.00000000 
0.09800    34181856.00000000 21764868.00000000 54545744.00000000 16343.93066406  1464069.87500000 1165810.62500000 
0.09900    33854032.00000000 21562352.00000000 54030580.00000000 16077.81640625  1444575.75000000 1150420.50000000 
0.10000    33537698.00000000 21367106.00000000 53533452.00000000 15816.21972656  1425524.00000000 1135355.75000000 
0.10100    33231144.00000000 21178610.00000000 53052528.00000000 15558.87792969  1406857.87500000 1120622.87500000 
0.10200    32934084.00000000 20995576.00000000 52585716.00000000 15305.18164062  1388530.37500000 1106142.25000000 
0.10300    32644630.00000000 20817676.00000000 52131808.00000000 15054.74609375  1370503.25000000 1091900.37500000 
0.10400    32362038.00000000 20644374.00000000 51689244.00000000 14806.90625000  1352714.50000000 1077854.50000000 
0.10500    32085562.00000000 20474896.00000000 51256136.00000000 14561.57324219  1335124.12500000 1063972.50000000 
0.10600    31813980.00000000 20308344.00000000 50831024.00000000 14318.09863281  1317688.25000000 1050205.12500000 
0.10700    31546520.00000000 20144914.00000000 50412512.00000000 14076.21484375  1300390.75000000 1036546.50000000 
0.10800    31282356.00000000 19983538.00000000 49999428.00000000 13835.78125000  1283179.87500000 1022947.62500000 
0.10900    31020600.00000000 19823490.00000000 49589812.00000000 13596.41601562  1266033.50000000 1009405.25000000 
0.11000    30760774.00000000 19665014.00000000 49183448.00000000 13358.07031250  1248928.00000000 995894.31250000 
0.11100    30501838.00000000 19506934.00000000 48778832.00000000 13120.41113281  1231823.12500000 982379.06250000 
0.11200    30243442.00000000 19349186.00000000 48374848.00000000 12883.38378906  1214717.62500000 968859.56250000 
0.11300    29984726.00000000 19191268.00000000 47970512.00000000 12646.94628906  1197570.62500000 955310.75000000 
0.11400    29725468.00000000 19033042.00000000 47565292.00000000 12411.18554688  1180399.62500000 941728.93750000 
0.11500    29465098.00000000 18874120.00000000 47157836.00000000 12175.75683594  1163160.37500000 928099.31250000 
0.11600    29202850.00000000 18713990.00000000 46748236.00000000 11940.71777344  1145856.75000000 914407.75000000 
0.11700    28938618.00000000 18552626.00000000 46335092.00000000 11706.29492188  1128479.87500000 900659.12500000 
0.11800    28671886.00000000 18389574.00000000 45917668.00000000 11472.48925781  1111023.75000000 886835.12500000 
0.11900    28402744.00000000 18224918.00000000 45496524.00000000 11239.28125000  1093490.37500000 872946.56250000 
0.12000    28130556.00000000 18058282.00000000 45070300.00000000 11006.84179688  1075868.12500000 858983.87500000 
0.12100    27855454.00000000 17889576.00000000 44639428.00000000 10775.23437500  1058170.87500000 844962.50000000 
0.12200    27576628.00000000 17718776.00000000 44202640.00000000 10544.77246094  1040396.25000000 830858.93750000 
0.12300    27294872.00000000 17545636.00000000 43760464.00000000 10315.35156250  1022556.31250000 816700.00000000 
0.12400    27009420.00000000 17370224.00000000 43312780.00000000 10087.27832031  1004642.93750000 802488.37500000 
0.12500    26720512.00000000 17192452.00000000 42859556.00000000 9860.67871094   986671.43750000 788219.00000000 
0.12600    26428100.00000000 17012220.00000000 42400124.00000000 9635.79785156   968674.06250000 773920.00000000 
0.12700    26132146.00000000 16829682.00000000 41935164.00000000 9412.71679688   950634.12500000 759572.12500000 
0.12800    25832868.00000000 16644907.00000000 41464484.00000000 9191.65429688   932568.68750000 745210.18750000 
0.12900    25530412.00000000 16457648.00000000 40988092.00000000 8972.96679688   914502.93750000 730839.37500000 
0.13000    25224522.00000000 16268160.00000000 40506564.00000000 8756.58398438   896445.06250000 716457.56250000 
0.13100    24915604.00000000 16076550.00000000 40019860.00000000 8542.84570312   878407.06250000 702093.93750000 
0.13200    24604136.00000000 15883038.00000000 39528496.00000000 8331.92089844   860414.43750000 687748.18750000 
0.13300    24289620.00000000 15687551.00000000 39032572.00000000 8123.99218750   842470.50000000 673439.00000000 
0.13400    23972848.00000000 15490225.00000000 38532032.00000000 7919.10253906   824603.93750000 659180.62500000 
0.13500    23654014.00000000 15291292.00000000 38028340.00000000 7717.70068359   806823.93750000 644986.37500000 
0.13600    23333000.00000000 15090795.00000000 37520720.00000000 7519.65136719   789145.93750000 630872.00000000 
0.13700    23010558.00000000 14888987.00000000 37010412.00000000 7325.31591797   771591.00000000 616843.12500000 
0.13800    22686298.00000000 14686048.00000000 36496992.00000000 7134.72216797   754173.25000000 602919.12500000 
0.13900    22361452.00000000 14481957.00000000 35981652.00000000 6948.10449219   736920.93750000 589110.18750000 
0.14000    22035470.00000000 14277209.00000000 35465044.00000000 6765.43701172   719830.87500000 575428.75000000 
0.14100    21708988.00000000 14071852.00000000 34947028.00000000 6586.98339844   702931.62500000 561893.12500000 
0.14200    21382236.00000000 13866038.00000000 34428268.00000000 6412.68359375   686235.75000000 548510.43750000 
0.14300    21055668.00000000 13660042.00000000 33909352.00000000 6242.71777344   669750.68750000 535299.50000000 
0.14400    20729612.00000000 13453874.00000000 33390730.00000000 6077.08789062   653497.31250000 522259.00000000 
0.14500    20404192.00000000 13247908.00000000 32872338.00000000 5915.88867188   637488.62500000 509414.90625000 
0.14600    20079684.00000000 13042311.00000000 32355686.00000000 5759.16406250   621738.00000000 496761.21875000 
0.14700    19756392.00000000 12837260.00000000 31840912.00000000 5606.91357422   606254.18750000 484320.43750000 
0.14800    19434924.00000000 12632762.00000000 31327936.00000000 5459.17822266   591048.81250000 472094.25000000 
0.14900    19115288.00000000 12429304.00000000 30817602.00000000 5315.89746094   576130.25000000 460088.75000000 
0.15000    18797718.00000000 12226940.00000000 30310526.00000000 5177.07617188   561501.50000000 448321.09375000 
0.15100    18482606.00000000 12025761.00000000 29806804.00000000 5042.72363281   547182.87500000 436788.96875000 
0.15200    18170084.00000000 11825967.00000000 29307174.00000000 4912.70947266   533173.93750000 425503.56250000 
0.15300    17860692.00000000 11627936.00000000 28811472.00000000 4787.13574219   519476.87500000 414463.75000000 
0.15400    17554172.00000000 11431477.00000000 28320950.00000000 4665.74072266   506101.00000000 403675.50000000 
0.15500    17251094.00000000 11236979.00000000 27835168.00000000 4548.59667969   493048.75000000 393145.46875000 
0.15600    16951580.00000000 11044447.00000000 27354720.00000000 4435.55078125   480329.03125000 382876.06250000 
0.15700    16655878.00000000 10854185.00000000 26879996.00000000 4326.56689453   467931.00000000 372866.06250000 
0.15800    16363993.00000000 10665963.00000000 26411246.00000000 4221.45654297   455858.09375000 363115.15625000 
0.15900    16076226.00000000 10480318.00000000 25948836.00000000 4120.22216797   444122.71875000 353625.06250000 
0.16000    15792631.00000000 10297049.00000000 25492824.00000000 4022.64208984   432706.43750000 344399.03125000 
0.16100    15513494.00000000 10116477.00000000 25043586.00000000 3928.65405273   421620.37500000 335432.87500000 
0.16200    15238782.00000000 9938490.00000000 24601220.00000000 3838.07910156   410853.03125000 326722.25000000 
0.16300    14968518.00000000 9763248.00000000 24165854.00000000 3750.85156250   400402.87500000 318266.12500000 
0.16400    14702984.00000000 9590714.00000000 23737738.00000000 3666.79809570   390269.50000000 310061.03125000 
0.16500    14442173.00000000 9421092.00000000 23316936.00000000 3585.76171875   380440.59375000 302104.78125000 
0.16600    14185984.00000000 9254385.00000000 22903726.00000000 3507.66381836   370917.40625000 294393.00000000 
0.16700    13934614.00000000 9090554.00000000 22497590.00000000 3432.28735352   361684.84375000 286917.31250000 
0.16800    13688019.00000000 8929649.00000000 22099208.00000000 3359.54736328   352743.06250000 279671.56250000 
0.16900    13446314.00000000 8771851.00000000 21708470.00000000 3289.32861328   344086.31250000 272657.59375000 
0.17000    13209361.00000000 8616986.00000000 21325376.00000000 3221.40478516   335696.84375000 265861.78125000 
