# SAXS profile: number of points = 501, q_min = 0, q_max = 0.5, delta_q = 0.001
#    q    intensity 
0.00000    162236096.00000000 101202312.00000000 256270608.00000000 107453.85937500 8350623.00000000 6595304.50000000 
0.00100    162194816.00000000 101175312.00000000 256202096.00000000 107419.06250000 8348127.00000000 6593329.50000000 
0.00200    162068944.00000000 101093384.00000000 255997248.00000000 107314.71875000 8340680.00000000 6587478.00000000 
0.00300    161852080.00000000 100959160.00000000 255656480.00000000 107140.82812500 8328378.50000000 6577770.50000000 
0.00400    161548560.00000000 100771864.00000000 255178096.00000000 106898.44531250 8311085.00000000 6564154.50000000 
0.00500    161158672.00000000 100530136.00000000 254567344.00000000 106587.11718750 8288885.50000000 6546671.50000000 
0.00600    160683776.00000000 100235496.00000000 253818720.00000000 106208.39062500 8261933.50000000 6525446.50000000 
0.00700    160123776.00000000 99889336.00000000 252941056.00000000 105762.05468750 8230184.00000000 6500423.50000000 
0.00800    159480592.00000000 99491752.00000000 251930640.00000000 105250.85156250 8193745.00000000 6471704.50000000 
0.00900    158757488.00000000 99044632.00000000 250792336.00000000 104674.43750000 8152635.00000000 6439363.50000000 
0.01000    157957472.00000000 98546944.00000000 249527808.00000000 104035.26562500 8107006.50000000 6403404.50000000 
0.01100    157076464.00000000 98000344.00000000 248139504.00000000 103333.28906250 8056927.00000000 6363937.00000000 
0.01200    156116496.00000000 97405504.00000000 246629792.00000000 102570.89062500 8002519.00000000 6321047.00000000 
0.01300    155081520.00000000 96763832.00000000 245001584.00000000 101750.16406250 7943829.00000000 6274841.50000000 
0.01400    153974192.00000000 96075824.00000000 243256880.00000000 100872.61718750 7881043.00000000 6225381.50000000 
0.01500    152796288.00000000 95345928.00000000 241399776.00000000 99939.57031250  7814295.50000000 6172777.00000000 
0.01600    151548096.00000000 94572488.00000000 239434592.00000000 98954.02343750  7743687.50000000 6117144.50000000 
0.01700    150234496.00000000 93756824.00000000 237362960.00000000 97917.53125000  7669328.50000000 6058587.50000000 
0.01800    148854096.00000000 92900872.00000000 235190320.00000000 96832.21093750  7591438.50000000 5997179.00000000 
0.01900    147414816.00000000 92007440.00000000 232920896.00000000 95701.19531250  7510088.50000000 5933132.50000000 
0.02000    145913296.00000000 91077520.00000000 230559328.00000000 94525.57812500  7425594.50000000 5866498.00000000 
0.02100    144357584.00000000 90111592.00000000 228107664.00000000 93308.37500000  7337938.00000000 5797393.00000000 
0.02200    142748176.00000000 89112448.00000000 225571264.00000000 92052.53906250  7247379.00000000 5726047.00000000 
0.02300    141086848.00000000 88081792.00000000 222953872.00000000 90760.71093750  7154065.00000000 5652532.50000000 
0.02400    139377744.00000000 87021864.00000000 220261376.00000000 89434.15625000  7058168.50000000 5576959.00000000 
0.02500    137623808.00000000 85933552.00000000 217500176.00000000 88077.82812500  6959899.50000000 5499519.50000000 
0.02600    135828416.00000000 84819416.00000000 214670192.00000000 86692.01562500  6859416.00000000 5420333.50000000 
0.02700    133994176.00000000 83680528.00000000 211779936.00000000 85280.71875000  6756920.50000000 5339518.00000000 
0.02800    132124272.00000000 82519392.00000000 208832752.00000000 83846.40625000  6652597.50000000 5257279.00000000 
0.02900    130221136.00000000 81338320.00000000 205834528.00000000 82391.29687500  6546573.50000000 5173680.00000000 
0.03000    128289192.00000000 80138616.00000000 202789712.00000000 80918.71093750  6439130.50000000 5089021.00000000 
0.03100    126330504.00000000 78922648.00000000 199701968.00000000 79431.12500000  6330341.50000000 5003279.00000000 
0.03200    124347880.00000000 77692280.00000000 196579312.00000000 77931.07812500  6220510.50000000 4916616.50000000 
0.03300    122346816.00000000 76449072.00000000 193424176.00000000 76420.92187500  6109701.50000000 4829309.00000000 
0.03400    120327392.00000000 75195472.00000000 190242240.00000000 74903.85156250  5998175.50000000 4741387.00000000 
0.03500    118294480.00000000 73932920.00000000 187039056.00000000 73383.00781250  5886131.00000000 4653015.00000000 
0.03600    116251472.00000000 72664088.00000000 183816496.00000000 71859.01562500  5773633.50000000 4564334.00000000 
0.03700    114200048.00000000 71390408.00000000 180583776.00000000 70335.20312500  5660984.50000000 4475473.50000000 
0.03800    112143600.00000000 70112360.00000000 177341392.00000000 68814.96093750  5548300.00000000 4386593.50000000 
0.03900    110085520.00000000 68833800.00000000 174097904.00000000 67299.17968750  5435670.50000000 4297799.00000000 
0.04000    108027832.00000000 67555040.00000000 170854240.00000000 65790.76562500  5323408.00000000 4209226.50000000 
0.04100    105974672.00000000 66278536.00000000 167615504.00000000 64291.37500000  5211518.00000000 4120957.00000000 
0.04200    103926520.00000000 65006540.00000000 164387760.00000000 62802.94921875  5100213.00000000 4033192.25000000 
0.04300    101888520.00000000 63739332.00000000 161173520.00000000 61328.37109375  4989669.00000000 3945972.00000000 
0.04400    99861872.00000000 62479560.00000000 157976784.00000000 59868.66406250  4879997.00000000 3859462.75000000 
0.04500    97849128.00000000 61228372.00000000 154804128.00000000 58425.77734375  4771319.50000000 3773704.75000000 
0.04600    95853144.00000000 59987032.00000000 151654816.00000000 57001.73437500  4663811.00000000 3688849.25000000 
0.04700    93875344.00000000 58756972.00000000 148534688.00000000 55597.50000000  4557519.50000000 3604990.75000000 
0.04800    91917640.00000000 57539612.00000000 145447712.00000000 54214.59765625  4452581.50000000 3522204.75000000 
0.04900    89983680.00000000 56336892.00000000 142396176.00000000 52854.54296875  4349123.00000000 3440544.00000000 
0.05000    88073424.00000000 55149056.00000000 139383392.00000000 51518.67578125  4247269.00000000 3360132.50000000 
0.05100    86190560.00000000 53977736.00000000 136413984.00000000 50208.47656250  4147034.50000000 3281064.00000000 
0.05200    84335888.00000000 52823732.00000000 133488816.00000000 48923.80078125  4048552.50000000 3203332.75000000 
0.05300    82510656.00000000 51688296.00000000 130609248.00000000 47666.41015625  3951911.75000000 3127061.25000000 
0.05400    80716728.00000000 50572072.00000000 127779648.00000000 46436.72265625  3857155.75000000 3052228.75000000 
0.05500    78955208.00000000 49475936.00000000 125000568.00000000 45235.87890625  3764350.00000000 2979010.25000000 
0.05600    77227816.00000000 48401180.00000000 122275616.00000000 44063.78906250  3673583.75000000 2907307.00000000 
0.05700    75535888.00000000 47348064.00000000 119605352.00000000 42921.60156250  3584856.25000000 2837290.50000000 
0.05800    73879904.00000000 46317204.00000000 116992176.00000000 41809.26171875  3498252.25000000 2768874.00000000 
0.05900    72260456.00000000 45309152.00000000 114437080.00000000 40726.99218750  3413764.25000000 2702180.25000000 
0.06000    70679136.00000000 44325272.00000000 111942096.00000000 39674.97656250  3331442.50000000 2637173.00000000 
0.06100    69135984.00000000 43364540.00000000 109506120.00000000 38653.56250000  3251312.50000000 2573896.25000000 
0.06200    67631864.00000000 42428308.00000000 107132624.00000000 37662.44140625  3173375.75000000 2512351.25000000 
0.06300    66166820.00000000 41516004.00000000 104821408.00000000 36701.83984375  3097659.50000000 2452556.25000000 
0.06400    64741324.00000000 40628592.00000000 102571816.00000000 35771.21093750  3024115.25000000 2394480.25000000 
0.06500    63355524.00000000 39766272.00000000 100384920.00000000 34870.16406250  2952789.75000000 2338150.00000000 
0.06600    62010216.00000000 38928668.00000000 98261232.00000000 33998.34375000  2883680.50000000 2283551.75000000 
0.06700    60704572.00000000 38115640.00000000 96200632.00000000 33155.87109375  2816720.75000000 2230687.75000000 
0.06800    59438608.00000000 37327440.00000000 94203064.00000000 32341.95898438  2751908.50000000 2179496.50000000 
0.06900    58212488.00000000 36563900.00000000 92267824.00000000 31555.86523438  2689251.75000000 2129995.50000000 
0.07000    57025516.00000000 35825372.00000000 90395120.00000000 30797.47265625  2628653.25000000 2082131.37500000 
0.07100    55877460.00000000 35110964.00000000 88583904.00000000 30065.43164062  2570151.50000000 2035908.37500000 
0.07200    54767832.00000000 34420348.00000000 86832872.00000000 29359.78320312  2513632.00000000 1991276.87500000 
0.07300    53696280.00000000 33753524.00000000 85142344.00000000 28679.08984375  2459121.25000000 1948214.12500000 
0.07400    52662112.00000000 33109832.00000000 83510984.00000000 28023.18554688  2406518.50000000 1906681.50000000 
0.07500    51664808.00000000 32489568.00000000 81936792.00000000 27390.88671875  2355817.50000000 1866626.37500000 
0.07600    50702948.00000000 31891414.00000000 80420464.00000000 26781.37109375  2306931.50000000 1828018.87500000 
0.07700    49776500.00000000 31315608.00000000 78958768.00000000 26193.96093750  2259805.75000000 1790816.00000000 
0.07800    48884060.00000000 30760842.00000000 77551600.00000000 25627.75000000  2214384.00000000 1754962.75000000 
0.07900    48025116.00000000 30227016.00000000 76197528.00000000 25081.60546875  2170650.25000000 1720415.62500000 
0.08000    47198560.00000000 29713550.00000000 74894160.00000000 24554.99804688  2128494.00000000 1687135.25000000 
0.08100    46403224.00000000 29219786.00000000 73640584.00000000 24046.90039062  2087850.00000000 1655048.25000000 
0.08200    45638768.00000000 28744898.00000000 72435776.00000000 23556.15039062  2048683.37500000 1624136.37500000 
0.08300    44903432.00000000 28288742.00000000 71276960.00000000 23082.05859375  2010924.25000000 1594322.50000000 
0.08400    44196028.00000000 27849962.00000000 70162672.00000000 22623.94335938  1974486.50000000 1565569.25000000 
0.08500    43515684.00000000 27428426.00000000 69091096.00000000 22180.62890625  1939329.12500000 1537828.37500000 
0.08600    42861600.00000000 27023082.00000000 68061360.00000000 21751.27148438  1905379.75000000 1511040.75000000 
0.08700    42232220.00000000 26633376.00000000 67070944.00000000 21335.22070312  1872566.75000000 1485149.25000000 
0.08800    41626492.00000000 26258464.00000000 66117680.00000000 20931.44531250  1840831.50000000 1460128.50000000 
0.08900    41043212.00000000 25898028.00000000 65200320.00000000 20539.47460938  1810101.50000000 1435897.75000000 
0.09000    40480880.00000000 25550888.00000000 64317060.00000000 20158.02343750  1780341.37500000 1412421.75000000 
0.09100    39939520.00000000 25216498.00000000 63465556.00000000 19786.97656250  1751466.37500000 1389650.37500000 
0.09200    39416848.00000000 24894090.00000000 62644496.00000000 19425.06445312  1723418.87500000 1367539.37500000 
0.09300    38912216.00000000 24582992.00000000 61851816.00000000 19071.91406250  1696136.25000000 1346039.12500000 
0.09400    38424452.00000000 24282490.00000000 61086492.00000000 18726.71875000  1669575.62500000 1325107.00000000 
0.09500    37952188.00000000 23992146.00000000 60345068.00000000 18388.94921875  1643677.87500000 1304697.00000000 
0.09600    37494972.00000000 23710670.00000000 59627984.00000000 18057.97460938  1618388.12500000 1284777.25000000 
0.09700    37051208.00000000 23438198.00000000 58931772.00000000 17733.46875000  1593666.50000000 1265301.50000000 
0.09800    36619960.00000000 23173336.00000000 58256196.00000000 17414.59765625  1569456.62500000 1246235.12500000 
0.09900    36200892.00000000 22916140.00000000 57598704.00000000 17101.00781250  1545711.00000000 1227525.62500000 
0.10000    35791904.00000000 22665466.00000000 56958876.00000000 16792.39257812  1522398.37500000 1209149.87500000 
0.10100    35392636.00000000 22421108.00000000 56333472.00000000 16488.12890625  1499457.00000000 1191088.75000000 
0.10200    35002492.00000000 22182132.00000000 55722836.00000000 16188.05664062  1476861.75000000 1173279.62500000 
0.10300    34620148.00000000 21948380.00000000 55124304.00000000 15891.82910156  1454575.12500000 1155721.75000000 
0.10400    34244784.00000000 21718902.00000000 54537832.00000000 15599.00292969  1432565.37500000 1138380.00000000 
0.10500    33876236.00000000 21493682.00000000 53961060.00000000 15309.46191406  1410800.75000000 1121238.87500000 
0.10600    33513120.00000000 21271842.00000000 53393272.00000000 15022.86425781  1389248.50000000 1104255.62500000 
0.10700    33154856.00000000 21053374.00000000 52833488.00000000 14739.14453125  1367905.00000000 1087419.12500000 
0.10800    32800998.00000000 20837372.00000000 52280604.00000000 14458.03808594  1346702.87500000 1070727.62500000 
0.10900    32450904.00000000 20623680.00000000 51733104.00000000 14179.40136719  1325670.50000000 1054139.37500000 
0.11000    32103886.00000000 20412026.00000000 51191124.00000000 13903.24609375  1304760.87500000 1037651.56250000 
0.11100    31759454.00000000 20201886.00000000 50652588.00000000 13629.49609375  1283956.12500000 1021247.62500000 
0.11200    31417014.00000000 19992940.00000000 50117596.00000000 13357.91699219  1263268.50000000 1004924.68750000 
0.11300    31076264.00000000 19784974.00000000 49584840.00000000 13088.43652344  1242659.37500000 988657.62500000 
0.11400    30736964.00000000 19577760.00000000 49054412.00000000 12821.43359375  1222124.87500000 972459.31250000 
0.11500    30398594.00000000 19371216.00000000 48525332.00000000 12556.47070312  1201662.37500000 956302.06250000 
0.11600    30060388.00000000 19164766.00000000 47996844.00000000 12293.90820312  1181268.62500000 940200.12500000 
0.11700    29722888.00000000 18958422.00000000 47468920.00000000 12033.51464844  1160943.12500000 924131.18750000 
0.11800    29385126.00000000 18752088.00000000 46940972.00000000 11775.47460938  1140670.75000000 908114.06250000 
0.11900    29047274.00000000 18545400.00000000 46411980.00000000 11519.83300781  1120448.62500000 892130.25000000 
0.12000    28709056.00000000 18338144.00000000 45882452.00000000 11266.51757812  1100291.87500000 876192.12500000 
0.12100    28370272.00000000 18130832.00000000 45351936.00000000 11016.01855469  1080211.62500000 860301.68750000 
0.12200    28031036.00000000 17922908.00000000 44820640.00000000 10768.05761719  1060194.37500000 844454.68750000 
0.12300    27691276.00000000 17714290.00000000 44288024.00000000 10522.89941406  1040233.43750000 828655.68750000 
0.12400    27350608.00000000 17505114.00000000 43753572.00000000 10280.51953125  1020369.81250000 812913.43750000 
0.12500    27008930.00000000 17295232.00000000 43217972.00000000 10041.08886719  1000577.62500000 797236.68750000 
0.12600    26666760.00000000 17084690.00000000 42681080.00000000 9804.76171875   980877.00000000 781625.25000000 
0.12700    26323818.00000000 16873606.00000000 42142596.00000000 9571.54394531   961285.56250000 766082.56250000 
0.12800    25980212.00000000 16661797.00000000 41602784.00000000 9341.63085938   941801.06250000 750622.87500000 
0.12900    25636044.00000000 16449373.00000000 41061824.00000000 9115.02343750   922432.56250000 735248.56250000 
0.13000    25291252.00000000 16236531.00000000 40519904.00000000 8891.98046875   903202.87500000 719970.68750000 
0.13100    24946172.00000000 16023150.00000000 39976940.00000000 8672.38183594   884096.00000000 704796.87500000 
0.13200    24600730.00000000 15809242.00000000 39433144.00000000 8456.43066406   865142.37500000 689733.62500000 
0.13300    24255084.00000000 15595325.00000000 38889416.00000000 8244.21777344   846353.50000000 674790.43750000 
0.13400    23909640.00000000 15380904.00000000 38344848.00000000 8035.81835938   827724.62500000 659981.87500000 
0.13500    23564204.00000000 15166503.00000000 37800464.00000000 7831.22753906   809283.06250000 645301.25000000 
0.13600    23219300.00000000 14952043.00000000 37255928.00000000 7630.58154297   791029.06250000 630767.00000000 
0.13700    22874650.00000000 14737698.00000000 36712800.00000000 7433.91406250   772974.56250000 616392.50000000 
0.13800    22530790.00000000 14523491.00000000 36169352.00000000 7241.23632812   755123.87500000 602166.25000000 
0.13900    22187764.00000000 14309603.00000000 35627576.00000000 7052.61718750   737497.75000000 588117.87500000 
0.14000    21845890.00000000 14096165.00000000 35087152.00000000 6868.07031250   720095.25000000 574241.31250000 
0.14100    21505430.00000000 13883288.00000000 34548664.00000000 6687.58544922   702940.93750000 560553.68750000 
0.14200    21166232.00000000 13671166.00000000 34011780.00000000 6511.26269531   686015.18750000 547051.81250000 
0.14300    20828692.00000000 13459769.00000000 33477722.00000000 6338.95556641   669343.00000000 533736.50000000 
0.14400    20493030.00000000 13249163.00000000 32945744.00000000 6170.74169922   652930.87500000 520630.37500000 
0.14500    20159582.00000000 13039885.00000000 32417024.00000000 6006.64697266   636785.31250000 507727.96875000 
0.14600    19828088.00000000 12831566.00000000 31891612.00000000 5846.55908203   620912.18750000 495039.65625000 
0.14700    19499172.00000000 12624591.00000000 31369408.00000000 5690.49072266   605309.06250000 482566.78125000 
0.14800    19172724.00000000 12419038.00000000 30851378.00000000 5538.38623047   589987.12500000 470310.93750000 
0.14900    18849028.00000000 12214922.00000000 30337230.00000000 5390.19335938   574949.56250000 458278.12500000 
0.15000    18528248.00000000 12012468.00000000 29827566.00000000 5245.87109375   560202.50000000 446470.81250000 
0.15100    18210472.00000000 11811750.00000000 29322272.00000000 5105.35644531   545739.31250000 434892.78125000 
0.15200    17896070.00000000 11612873.00000000 28822040.00000000 4968.60302734   531575.18750000 423543.78125000 
0.15300    17584996.00000000 11415883.00000000 28326704.00000000 4835.57666016   517699.71875000 412428.75000000 
0.15400    17277342.00000000 11220822.00000000 27836682.00000000 4706.10546875   504116.15625000 401540.84375000 
0.15500    16973230.00000000 11027905.00000000 27352384.00000000 4580.13671875   490828.56250000 390888.71875000 
0.15600    16673061.00000000 10837087.00000000 26873310.00000000 4457.62402344   477829.06250000 380465.25000000 
0.15700    16376637.00000000 10648615.00000000 26400536.00000000 4338.52490234   465127.50000000 370281.12500000 
0.15800    16083919.00000000 10462273.00000000 25933404.00000000 4222.62841797   452713.59375000 360322.09375000 
0.15900    15795443.00000000 10278353.00000000 25472628.00000000 4109.98730469   440590.96875000 350592.81250000 
0.16000    15510696.00000000 10096921.00000000 25017934.00000000 4000.42797852   428751.15625000 341093.09375000 
0.16100    15230394.00000000 9917863.00000000 24569844.00000000 3893.94848633   417201.37500000 331820.21875000 
0.16200    14954204.00000000 9741393.00000000 24128098.00000000 3790.35620117   405931.87500000 322772.40625000 
0.16300    14682157.00000000 9567395.00000000 23692768.00000000 3689.63183594   394936.43750000 313941.21875000 
0.16400    14414466.00000000 9395885.00000000 23264316.00000000 3591.65551758   384217.40625000 305332.03125000 
0.16500    14151030.00000000 9227070.00000000 22842528.00000000 3496.37182617   373762.15625000 296935.78125000 
0.16600    13891907.00000000 9060904.00000000 22427362.00000000 3403.69140625   363571.40625000 288753.81250000 
0.16700    13637126.00000000 8897327.00000000 22019010.00000000 3313.50585938   353641.93750000 280777.12500000 
0.16800    13386720.00000000 8736315.00000000 21617388.00000000 3225.75244141   343965.81250000 273001.71875000 
0.16900    13140630.00000000 8578012.00000000 21222592.00000000 3140.42749023   334540.40625000 265432.56250000 
0.17000    12898864.00000000 8422357.00000000 20834678.00000000 3057.33691406   325358.12500000 258056.84375000 
