# SAXS profile: number of points = 501, q_min = 0, q_max = 0.5, delta_q = 0.001
#    q    intensity 
0.00000    162233872.00000000 101203192.00000000 256270544.00000000 111618.41406250 8510933.00000000 6721904.00000000 
0.00100    162199536.00000000 101178744.00000000 256211424.00000000 111582.76562500 8508561.00000000 6720045.00000000 
0.00200    162093168.00000000 101109240.00000000 256036768.00000000 111476.95312500 8501535.00000000 6714523.50000000 
0.00300    161907616.00000000 100994296.00000000 255741728.00000000 111301.48437500 8489801.00000000 6705338.50000000 
0.00400    161646528.00000000 100833048.00000000 255332512.00000000 111055.61718750 8473583.00000000 6692518.00000000 
0.00500    161308672.00000000 100626880.00000000 254805168.00000000 110739.99218750 8452599.00000000 6676042.50000000 
0.00600    160897408.00000000 100373496.00000000 254162656.00000000 110355.68750000 8427090.00000000 6656015.00000000 
0.00700    160413344.00000000 100076632.00000000 253407584.00000000 109904.05468750 8397144.00000000 6632396.00000000 
0.00800    159854768.00000000 99735040.00000000 252538352.00000000 109385.59375000 8362638.00000000 6605313.00000000 
0.00900    159231440.00000000 99351632.00000000 251556416.00000000 108801.71093750 8323763.00000000 6574756.50000000 
0.01000    158541824.00000000 98924432.00000000 250466640.00000000 108154.32031250 8280620.00000000 6540814.50000000 
0.01100    157779840.00000000 98454352.00000000 249270400.00000000 107443.45312500 8233260.50000000 6503628.50000000 
0.01200    156947344.00000000 97942752.00000000 247964416.00000000 106672.35156250 8181687.00000000 6463101.00000000 
0.01300    156050960.00000000 97389648.00000000 246557744.00000000 105840.66406250 8126196.00000000 6419436.50000000 
0.01400    155089072.00000000 96797088.00000000 245049408.00000000 104952.33593750 8066696.00000000 6372708.00000000 
0.01500    154065104.00000000 96165856.00000000 243441216.00000000 104008.14062500 8003513.50000000 6322944.50000000 
0.01600    152982224.00000000 95498072.00000000 241739232.00000000 103010.68750000 7936568.00000000 6270302.00000000 
0.01700    151837184.00000000 94792960.00000000 239942928.00000000 101961.83593750 7866123.00000000 6214913.50000000 
0.01800    150636704.00000000 94051664.00000000 238054128.00000000 100864.35937500 7792216.50000000 6156788.00000000 
0.01900    149379056.00000000 93277008.00000000 236081952.00000000 99719.55468750  7715057.50000000 6096096.50000000 
0.02000    148069968.00000000 92469304.00000000 234023808.00000000 98530.96875000  7634739.00000000 6032912.50000000 
0.02100    146708496.00000000 91629688.00000000 231885440.00000000 97300.05468750  7551458.00000000 5967422.00000000 
0.02200    145297648.00000000 90759488.00000000 229670112.00000000 96029.92968750  7465321.00000000 5899679.50000000 
0.02300    143839696.00000000 89860584.00000000 227379536.00000000 94723.61718750  7376534.50000000 5829837.50000000 
0.02400    142338336.00000000 88933184.00000000 225020928.00000000 93383.64062500  7285258.00000000 5758011.00000000 
0.02500    140793728.00000000 87980432.00000000 222593552.00000000 92011.85156250  7191631.00000000 5684261.00000000 
0.02600    139209904.00000000 87002496.00000000 220105632.00000000 90611.12500000  7095762.50000000 5608908.00000000 
0.02700    137590176.00000000 86001136.00000000 217555936.00000000 89184.60937500  6997931.50000000 5531868.50000000 
0.02800    135932512.00000000 84978336.00000000 214953584.00000000 87735.27343750  6898228.50000000 5453392.00000000 
0.02900    134243696.00000000 83935112.00000000 212298896.00000000 86264.29687500  6796834.50000000 5373583.00000000 
0.03000    132525264.00000000 82872568.00000000 209597424.00000000 84776.62500000  6693937.00000000 5292558.50000000 
0.03100    130779344.00000000 81793528.00000000 206850016.00000000 83273.24218750  6589641.50000000 5210475.00000000 
0.03200    129007144.00000000 80698672.00000000 204064928.00000000 81757.03906250  6484249.50000000 5127409.00000000 
0.03300    127213472.00000000 79588984.00000000 201243680.00000000 80231.13281250  6377779.50000000 5043593.00000000 
0.03400    125398832.00000000 78467352.00000000 198389824.00000000 78697.17187500  6270451.00000000 4959074.00000000 
0.03500    123568112.00000000 77335040.00000000 195507968.00000000 77159.09375000  6162446.50000000 4874021.00000000 
0.03600    121720608.00000000 76192712.00000000 192601840.00000000 75617.28125000  6053892.00000000 4788526.00000000 
0.03700    119860040.00000000 75041648.00000000 189676048.00000000 74076.50781250  5944952.00000000 4702717.50000000 
0.03800    117990560.00000000 73883552.00000000 186732176.00000000 72538.19531250  5835727.50000000 4616668.50000000 
0.03900    116112816.00000000 72719760.00000000 183775360.00000000 71002.95312500  5726527.00000000 4530581.00000000 
0.04000    114228008.00000000 71552728.00000000 180810256.00000000 69474.33593750  5617382.00000000 4444532.50000000 
0.04100    112340256.00000000 70382504.00000000 177840064.00000000 67954.65625000  5508376.00000000 4358602.00000000 
0.04200    110451080.00000000 69212016.00000000 174864448.00000000 66445.07812500  5399715.00000000 4272961.50000000 
0.04300    108563432.00000000 68041296.00000000 171890176.00000000 64947.92968750  5291565.50000000 4187716.00000000 
0.04400    106677544.00000000 66872604.00000000 168920432.00000000 63464.36718750  5184000.50000000 4102900.00000000 
0.04500    104797936.00000000 65706328.00000000 165959376.00000000 61996.81250000  5077187.50000000 4018648.00000000 
0.04600    102924248.00000000 64543904.00000000 163007888.00000000 60546.66406250  4971120.50000000 3935003.75000000 
0.04700    101059944.00000000 63386480.00000000 160068688.00000000 59115.00781250  4866052.00000000 3852148.50000000 
0.04800    99205992.00000000 62235492.00000000 157148288.00000000 57703.37500000  4762003.50000000 3770076.00000000 
0.04900    97364816.00000000 61091784.00000000 154244576.00000000 56312.80468750  4659121.00000000 3688888.00000000 
0.05000    95537432.00000000 59956728.00000000 151364304.00000000 54945.03515625  4557471.00000000 3608670.00000000 
0.05100    93725456.00000000 58830780.00000000 148508544.00000000 53600.05078125  4457126.00000000 3529470.00000000 
0.05200    91930488.00000000 57715260.00000000 145678976.00000000 52279.26562500  4358132.50000000 3451354.25000000 
0.05300    90154328.00000000 56610532.00000000 142876928.00000000 50984.17578125  4260690.50000000 3374410.00000000 
0.05400    88397904.00000000 55518732.00000000 140107392.00000000 49714.42968750  4164710.00000000 3298633.50000000 
0.05500    86662808.00000000 54438860.00000000 137370656.00000000 48471.09375000  4070333.50000000 3224136.25000000 
0.05600    84950008.00000000 53373040.00000000 134669152.00000000 47254.50000000  3977580.50000000 3150922.50000000 
0.05700    83261240.00000000 52321548.00000000 132003528.00000000 46065.18750000  3886559.00000000 3079016.25000000 
0.05800    81596664.00000000 51285076.00000000 129375464.00000000 44903.01953125  3797264.50000000 3008481.25000000 
0.05900    79957320.00000000 50263960.00000000 126787792.00000000 43768.78125000  3709713.25000000 2939342.25000000 
0.06000    78344136.00000000 49259252.00000000 124241320.00000000 42662.60546875  3623989.50000000 2871587.25000000 
0.06100    76758616.00000000 48270744.00000000 121737352.00000000 41584.19140625  3540051.00000000 2805308.00000000 
0.06200    75199336.00000000 47299268.00000000 119276608.00000000 40532.97265625  3457976.25000000 2740449.75000000 
0.06300    73669640.00000000 46345240.00000000 116859832.00000000 39509.28515625  3377760.00000000 2677062.25000000 
0.06400    72168240.00000000 45409040.00000000 114489344.00000000 38513.60546875  3299376.75000000 2615115.50000000 
0.06500    70696248.00000000 44490708.00000000 112162944.00000000 37544.76171875  3222880.75000000 2554647.50000000 
0.06600    69253016.00000000 43590732.00000000 109883600.00000000 36602.95312500  3148227.50000000 2495641.00000000 
0.06700    67840488.00000000 42708768.00000000 107651792.00000000 35687.22656250  3075409.25000000 2438120.50000000 
0.06800    66457312.00000000 41845644.00000000 105466928.00000000 34797.81250000  3004452.75000000 2382035.50000000 
0.06900    65104876.00000000 41001088.00000000 103328840.00000000 33933.55078125  2935320.00000000 2327355.25000000 
0.07000    63782872.00000000 40175176.00000000 101238736.00000000 33094.51562500  2867996.00000000 2274139.00000000 
0.07100    62490088.00000000 39368528.00000000 99196904.00000000 32279.49804688  2802442.25000000 2222335.00000000 
0.07200    61228100.00000000 38580128.00000000 97201952.00000000 31488.35546875  2738672.50000000 2171903.00000000 
0.07300    59996200.00000000 37810852.00000000 95254592.00000000 30720.49218750  2676620.50000000 2122840.50000000 
0.07400    58794280.00000000 37060068.00000000 93354480.00000000 29975.08398438  2616267.00000000 2075143.00000000 
0.07500    57621880.00000000 36327772.00000000 91501520.00000000 29251.35742188  2557608.50000000 2028743.37500000 
0.07600    56478800.00000000 35613716.00000000 89694424.00000000 28548.43359375  2500545.75000000 1983628.12500000 
0.07700    55364760.00000000 34917700.00000000 87933648.00000000 27866.21679688  2445076.75000000 1939789.87500000 
0.07800    54279264.00000000 34240176.00000000 86218384.00000000 27203.62304688  2391203.75000000 1897169.37500000 
0.07900    53222604.00000000 33579668.00000000 84547584.00000000 26560.13085938  2338784.00000000 1855750.87500000 
0.08000    52193492.00000000 32937010.00000000 82920640.00000000 25934.66210938  2287870.25000000 1815487.25000000 
0.08100    51192156.00000000 32311352.00000000 81337208.00000000 25326.96484375  2238362.25000000 1776354.37500000 
0.08200    50216960.00000000 31702706.00000000 79797016.00000000 24735.72656250  2190241.50000000 1738319.25000000 
0.08300    49268648.00000000 31110236.00000000 78297784.00000000 24160.98828125  2143438.75000000 1701334.25000000 
0.08400    48345892.00000000 30534132.00000000 76839240.00000000 23601.66406250  2097947.25000000 1665382.75000000 
0.08500    47448764.00000000 29973948.00000000 75420848.00000000 23057.06445312  2053703.50000000 1630410.25000000 
0.08600    46575200.00000000 29429222.00000000 74041912.00000000 22526.75976562  2010667.12500000 1596386.62500000 
0.08700    45725836.00000000 28899334.00000000 72700368.00000000 22010.12304688  1968765.12500000 1563287.12500000 
0.08800    44900224.00000000 28384246.00000000 71395920.00000000 21506.32421875  1927992.00000000 1531067.12500000 
0.08900    44096792.00000000 27883490.00000000 70127184.00000000 21015.08593750  1888276.37500000 1499685.12500000 
0.09000    43315352.00000000 27396664.00000000 68893288.00000000 20535.57617188  1849597.25000000 1469120.37500000 
0.09100    42555324.00000000 26923080.00000000 67693784.00000000 20067.48046875  1811880.87500000 1439330.12500000 
0.09200    41816252.00000000 26462582.00000000 66526540.00000000 19610.22851562  1775125.00000000 1410290.62500000 
0.09300    41097008.00000000 26014850.00000000 65391636.00000000 19163.53125000  1739268.25000000 1381963.25000000 
0.09400    40397032.00000000 25579090.00000000 64286628.00000000 18726.61132812  1704262.75000000 1354310.75000000 
0.09500    39715500.00000000 25155168.00000000 63211940.00000000 18299.33984375  1670086.25000000 1327305.62500000 
0.09600    39051740.00000000 24742798.00000000 62165108.00000000 17881.21484375  1636695.87500000 1300934.50000000 
0.09700    38405992.00000000 24341246.00000000 61146268.00000000 17472.12109375  1604055.00000000 1275161.87500000 
0.09800    37776480.00000000 23950322.00000000 60154072.00000000 17071.45898438  1572144.87500000 1249942.62500000 
0.09900    37163196.00000000 23569614.00000000 59187584.00000000 16678.96093750  1540927.62500000 1225280.12500000 
0.10000    36565032.00000000 23198486.00000000 58245392.00000000 16294.32421875  1510346.75000000 1201129.25000000 
0.10100    35981848.00000000 22836676.00000000 57326120.00000000 15917.56250000  1480416.12500000 1177471.00000000 
0.10200    35412796.00000000 22483934.00000000 56430288.00000000 15548.23828125  1451073.25000000 1154298.87500000 
0.10300    34857416.00000000 22139758.00000000 55555660.00000000 15186.30371094  1422317.50000000 1131566.50000000 
0.10400    34314936.00000000 21803814.00000000 54701932.00000000 14831.42382812  1394100.00000000 1109282.00000000 
0.10500    33785216.00000000 21476088.00000000 53867776.00000000 14483.63183594  1366427.00000000 1087410.87500000 
0.10600    33267182.00000000 21155468.00000000 53052700.00000000 14142.37011719  1339260.00000000 1065922.50000000 
0.10700    32760642.00000000 20842406.00000000 52255880.00000000 13808.11035156  1312573.87500000 1044828.12500000 
0.10800    32265156.00000000 20535908.00000000 51476780.00000000 13480.39843750  1286383.50000000 1024111.31250000 
0.10900    31779862.00000000 20236036.00000000 50713720.00000000 13159.10449219  1260630.25000000 1003741.87500000 
0.11000    31304942.00000000 19942530.00000000 49966532.00000000 12844.34960938  1235323.62500000 983719.81250000 
0.11100    30839328.00000000 19655202.00000000 49234600.00000000 12535.88769531  1210449.12500000 964030.06250000 
0.11200    30382998.00000000 19373476.00000000 48517180.00000000 12233.83593750  1185982.25000000 944660.50000000 
0.11300    29935356.00000000 19096844.00000000 47813640.00000000 11937.95214844  1161918.12500000 925605.06250000 
0.11400    29495964.00000000 18825866.00000000 47123056.00000000 11648.40820312  1138267.75000000 906860.68750000 
0.11500    29064594.00000000 18559572.00000000 46445300.00000000 11364.93457031  1114981.62500000 888412.81250000 
0.11600    28640996.00000000 18298292.00000000 45779252.00000000 11087.71093750  1092078.75000000 870262.75000000 
0.11700    28224736.00000000 18041290.00000000 45124896.00000000 10816.63085938  1069549.50000000 852395.56250000 
0.11800    27815146.00000000 17788616.00000000 44481576.00000000 10551.54492188  1047378.37500000 834803.56250000 
0.11900    27412610.00000000 17540196.00000000 43848268.00000000 10292.50781250  1025563.68750000 817493.93750000 
0.12000    27016454.00000000 17295500.00000000 43225524.00000000 10039.51171875  1004108.00000000 800454.87500000 
0.12100    26626410.00000000 17054732.00000000 42612440.00000000 9792.55664062   982999.50000000 783686.25000000 
0.12200    26242398.00000000 16817468.00000000 42008576.00000000 9551.49707031   962241.62500000 767186.37500000 
0.12300    25864008.00000000 16583776.00000000 41413776.00000000 9316.31933594   941819.81250000 750954.68750000 
0.12400    25491034.00000000 16353417.00000000 40827104.00000000 9087.01464844   921742.00000000 734974.37500000 
0.12500    25123544.00000000 16126056.00000000 40248668.00000000 8863.42285156   901991.31250000 719255.81250000 
0.12600    24761166.00000000 15901921.00000000 39678256.00000000 8645.77441406   882585.75000000 703805.18750000 
0.12700    24403672.00000000 15680694.00000000 39115656.00000000 8433.73339844   863509.62500000 688612.43750000 
0.12800    24051050.00000000 15462284.00000000 38560052.00000000 8227.29882812   844764.81250000 673673.87500000 
0.12900    23703202.00000000 15246692.00000000 38012324.00000000 8026.32080078   826349.31250000 658989.31250000 
0.13000    23359520.00000000 15033681.00000000 37470792.00000000 7830.82666016   808256.62500000 644560.37500000 
0.13100    23020478.00000000 14823095.00000000 36936048.00000000 7640.64355469   790492.00000000 630378.43750000 
0.13200    22685854.00000000 14615180.00000000 36408212.00000000 7455.70996094   773054.18750000 616456.37500000 
0.13300    22355226.00000000 14409679.00000000 35886728.00000000 7276.03417969   755935.93750000 602778.25000000 
0.13400    22028574.00000000 14206600.00000000 35371384.00000000 7101.31347656   739141.12500000 589357.12500000 
0.13500    21706122.00000000 14005614.00000000 34862044.00000000 6931.52636719   722662.00000000 576182.43750000 
0.13600    21387360.00000000 13807059.00000000 34358504.00000000 6766.54003906   706503.56250000 563259.68750000 
0.13700    21072664.00000000 13610546.00000000 33861136.00000000 6606.22265625   690651.50000000 550574.75000000 
0.13800    20761682.00000000 13416325.00000000 33369274.00000000 6450.43017578   675110.00000000 538137.87500000 
0.13900    20454266.00000000 13224171.00000000 32883212.00000000 6299.06152344   659889.18750000 525939.25000000 
0.14000    20150688.00000000 13034169.00000000 32402404.00000000 6151.98291016   644962.37500000 513989.09375000 
0.14100    19850688.00000000 12846148.00000000 31927246.00000000 6009.03222656   630343.75000000 502273.21875000 
0.14200    19554008.00000000 12660119.00000000 31457214.00000000 5870.02050781   616019.50000000 490790.75000000 
0.14300    19260936.00000000 12476157.00000000 30992654.00000000 5734.88427734   601995.31250000 479547.09375000 
0.14400    18971378.00000000 12294017.00000000 30533082.00000000 5603.37744141   588252.12500000 468530.50000000 
0.14500    18685074.00000000 12114003.00000000 30078856.00000000 5475.45458984   574801.31250000 457742.40625000 
0.14600    18402136.00000000 11935858.00000000 29629578.00000000 5350.96777344   561634.75000000 447180.03125000 
0.14700    18122656.00000000 11759571.00000000 29185748.00000000 5229.70947266   548748.75000000 436839.40625000 
0.14800    17846510.00000000 11585207.00000000 28746378.00000000 5111.56054688   536128.37500000 426713.40625000 
0.14900    17573382.00000000 11412664.00000000 28312502.00000000 4996.35253906   523782.71875000 416802.28125000 
0.15000    17303864.00000000 11242014.00000000 27883204.00000000 4883.95605469   511697.90625000 407102.43750000 
0.15100    17037174.00000000 11073191.00000000 27458960.00000000 4774.31445312   499869.96875000 397608.65625000 
0.15200    16773890.00000000 10906246.00000000 27039302.00000000 4667.24316406   488295.28125000 388318.06250000 
0.15300    16513795.00000000 10741129.00000000 26624712.00000000 4562.60302734   476970.31250000 379226.84375000 
0.15400    16256628.00000000 10577755.00000000 26214652.00000000 4460.26708984   465879.09375000 370325.90625000 
0.15500    16002651.00000000 10416281.00000000 25809326.00000000 4360.16357422   455031.40625000 361619.00000000 
0.15600    15751752.00000000 10256436.00000000 25408760.00000000 4262.14697266   444407.90625000 353093.62500000 
0.15700    15503889.00000000 10098524.00000000 25012936.00000000 4166.17431641   434010.25000000 344752.68750000 
0.15800    15258913.00000000 9942308.00000000 24621638.00000000 4072.02929688   423828.25000000 336584.15625000 
0.15900    15016986.00000000 9787827.00000000 24234908.00000000 3979.73510742   413862.62500000 328593.06250000 
0.16000    14777968.00000000 9635078.00000000 23852690.00000000 3889.17480469   404098.40625000 320763.68750000 
0.16100    14541953.00000000 9484175.00000000 23475254.00000000 3800.25585938   394542.34375000 313104.78125000 
0.16200    14308763.00000000 9335038.00000000 23102024.00000000 3712.93994141   385176.71875000 305603.96875000 
0.16300    14078626.00000000 9187482.00000000 22733514.00000000 3627.14794922   376003.53125000 298254.40625000 
0.16400    13851150.00000000 9041732.00000000 22369242.00000000 3542.82275391   367016.87500000 291055.15625000 
0.16500    13626670.00000000 8897604.00000000 22009612.00000000 3459.89770508   358210.75000000 284005.87500000 
0.16600    13404969.00000000 8755309.00000000 21654436.00000000 3378.39135742   349574.28125000 277096.59375000 
0.16700    13185961.00000000 8614596.00000000 21303190.00000000 3298.17309570   341110.15625000 270325.37500000 
0.16800    12969644.00000000 8475512.00000000 20956588.00000000 3219.27343750   332810.71875000 263689.90625000 
0.16900    12756320.00000000 8338254.50000000 20614060.00000000 3141.69726562   324676.00000000 257186.48437500 
0.17000    12545590.00000000 8202554.00000000 20276116.00000000 3065.32690430   316693.21875000 250808.31250000 
