# SAXS profile: number of points = 501, q_min = 0, q_max = 0.5, delta_q = 0.001
#    q    intensity 
0.00000    162233664.00000000 101202184.00000000 256271536.00000000 106156.11718750 8300062.00000000 6555382.00000000 
0.00100    162203824.00000000 101182392.00000000 256220288.00000000 106127.75000000 8298100.00000000 6553831.50000000 
0.00200    162112672.00000000 101123280.00000000 256071248.00000000 106042.82812500 8292330.00000000 6549285.50000000 
0.00300    161956784.00000000 101024776.00000000 255820784.00000000 105901.32812500 8282644.00000000 6541704.00000000 
0.00400    161733040.00000000 100888448.00000000 255469888.00000000 105703.15625000 8269086.00000000 6531053.50000000 
0.00500    161444608.00000000 100711808.00000000 255020240.00000000 105448.89843750 8251792.00000000 6517466.50000000 
0.00600    161092256.00000000 100495592.00000000 254470960.00000000 105139.00000000 8230635.00000000 6500865.50000000 
0.00700    160680160.00000000 100242800.00000000 253826096.00000000 104774.72656250 8205733.00000000 6481300.00000000 
0.00800    160201504.00000000 99951424.00000000 253083712.00000000 104356.08593750 8177122.50000000 6458814.00000000 
0.00900    159667200.00000000 99623192.00000000 252243184.00000000 103884.03125000 8144856.00000000 6433476.00000000 
0.01000    159071360.00000000 99257832.00000000 251310400.00000000 103359.35937500 8108934.00000000 6405303.50000000 
0.01100    158419024.00000000 98856136.00000000 250282944.00000000 102783.24218750 8069511.50000000 6374265.50000000 
0.01200    157705728.00000000 98416344.00000000 249163840.00000000 102156.47656250 8026521.50000000 6340618.00000000 
0.01300    156932992.00000000 97943000.00000000 247954784.00000000 101480.25781250 7980196.00000000 6304174.50000000 
0.01400    156105248.00000000 97433144.00000000 246656144.00000000 100756.00781250 7930457.00000000 6265093.00000000 
0.01500    155221520.00000000 96890232.00000000 245271936.00000000 99985.90625000  7877507.00000000 6223514.50000000 
0.01600    154285232.00000000 96314280.00000000 243802272.00000000 99170.23437500  7821280.50000000 6179378.50000000 
0.01700    153295680.00000000 95705904.00000000 242249600.00000000 98310.18750000  7762084.50000000 6132839.50000000 
0.01800    152254000.00000000 95065472.00000000 240615680.00000000 97407.77343750  7699828.00000000 6083901.50000000 
0.01900    151163856.00000000 94394504.00000000 238904112.00000000 96464.75781250  7634700.00000000 6032732.00000000 
0.02000    150023168.00000000 93693248.00000000 237117296.00000000 95482.30468750  7566755.00000000 5979345.00000000 
0.02100    148835568.00000000 92964336.00000000 235256224.00000000 94463.01562500  7496128.50000000 5923865.50000000 
0.02200    147604496.00000000 92205880.00000000 233323648.00000000 93408.50000000  7422919.50000000 5866350.00000000 
0.02300    146328880.00000000 91420496.00000000 231320832.00000000 92319.39062500  7347246.50000000 5806841.50000000 
0.02400    145011200.00000000 90609032.00000000 229251968.00000000 91198.48437500  7269231.50000000 5745516.00000000 
0.02500    143653728.00000000 89772856.00000000 227122128.00000000 90047.36718750  7188969.00000000 5682429.50000000 
0.02600    142257024.00000000 88912856.00000000 224930016.00000000 88868.23437500  7106592.50000000 5617658.50000000 
0.02700    140823424.00000000 88030160.00000000 222680048.00000000 87663.42968750  7022222.00000000 5551313.50000000 
0.02800    139357216.00000000 87124864.00000000 220374816.00000000 86433.28125000  6935971.50000000 5483532.50000000 
0.02900    137855408.00000000 86200496.00000000 218019104.00000000 85181.71875000  6847951.00000000 5414318.50000000 
0.03000    136323200.00000000 85255792.00000000 215613680.00000000 83909.72656250  6758366.00000000 5343844.00000000 
0.03100    134762880.00000000 84293136.00000000 213161072.00000000 82618.72656250  6667251.50000000 5272088.00000000 
0.03200    133174096.00000000 83312984.00000000 210664752.00000000 81311.31250000  6574705.00000000 5199301.50000000 
0.03300    131559952.00000000 82316528.00000000 208129696.00000000 79989.55468750  6480958.00000000 5125570.00000000 
0.03400    129923216.00000000 81305792.00000000 205555552.00000000 78654.92968750  6386116.50000000 5050895.00000000 
0.03500    128263800.00000000 80281192.00000000 202948672.00000000 77309.82812500  6290228.50000000 4975448.00000000 
0.03600    126585240.00000000 79244392.00000000 200309952.00000000 75956.29687500  6193427.00000000 4899256.50000000 
0.03700    124888672.00000000 78197128.00000000 197643808.00000000 74595.20312500  6095940.50000000 4822506.50000000 
0.03800    123176144.00000000 77139000.00000000 194950576.00000000 73228.71875000  5997764.50000000 4745223.50000000 
0.03900    121450304.00000000 76072088.00000000 192235200.00000000 71859.24218750  5899091.00000000 4667532.00000000 
0.04000    119711136.00000000 74996344.00000000 189500640.00000000 70488.09375000  5800017.00000000 4589457.00000000 
0.04100    117962440.00000000 73914496.00000000 186749664.00000000 69116.82812500  5700643.00000000 4511198.00000000 
0.04200    116205672.00000000 72825832.00000000 183984256.00000000 67747.67187500  5601085.00000000 4432769.00000000 
0.04300    114441176.00000000 71734152.00000000 181208384.00000000 66381.00781250  5501454.00000000 4354236.00000000 
0.04400    112672360.00000000 70638552.00000000 178423216.00000000 65019.11328125  5401876.00000000 4275791.50000000 
0.04500    110899840.00000000 69540616.00000000 175633136.00000000 63663.91406250  5302433.50000000 4197409.00000000 
0.04600    109126272.00000000 68441096.00000000 172840208.00000000 62316.13671875  5203240.00000000 4119185.75000000 
0.04700    107352880.00000000 67341528.00000000 170046688.00000000 60977.78906250  5104364.50000000 4041240.75000000 
0.04800    105581352.00000000 66242064.00000000 167255552.00000000 59649.39843750  5005907.50000000 3963632.50000000 
0.04900    103812232.00000000 65144512.00000000 164468512.00000000 58332.54296875  4908031.50000000 3886404.00000000 
0.05000    102048408.00000000 64049596.00000000 161687888.00000000 57028.36718750  4810727.50000000 3809651.50000000 
0.05100    100290448.00000000 62957944.00000000 158916624.00000000 55737.91406250  4714151.50000000 3733445.50000000 
0.05200    98540224.00000000 61870384.00000000 156158016.00000000 54462.50390625  4618307.00000000 3657801.00000000 
0.05300    96798488.00000000 60788336.00000000 153412512.00000000 53202.80859375  4523291.00000000 3582833.50000000 
0.05400    95067504.00000000 59712148.00000000 150683648.00000000 51959.73046875  4429208.50000000 3508574.00000000 
0.05500    93348744.00000000 58642480.00000000 147971408.00000000 50734.18359375  4336101.50000000 3435047.75000000 
0.05600    91641904.00000000 57580688.00000000 145279008.00000000 49526.51171875  4244059.50000000 3362365.00000000 
0.05700    89948792.00000000 56527004.00000000 142608320.00000000 48337.90625000  4153053.75000000 3290530.75000000 
0.05800    88271648.00000000 55482064.00000000 139961520.00000000 47168.91796875  4063274.00000000 3219577.75000000 
0.05900    86609768.00000000 54447040.00000000 137337136.00000000 46019.73046875  3974651.00000000 3149580.00000000 
0.06000    84964896.00000000 53422092.00000000 134740416.00000000 44890.98437500  3887287.25000000 3080550.50000000 
0.06100    83338648.00000000 52408156.00000000 132171656.00000000 43783.27734375  3801207.00000000 3012525.75000000 
0.06200    81729784.00000000 51405344.00000000 129632016.00000000 42696.74609375  3716475.75000000 2945548.25000000 
0.06300    80141704.00000000 50414384.00000000 127123272.00000000 41631.81250000  3633093.25000000 2879629.50000000 
0.06400    78573240.00000000 49435672.00000000 124644416.00000000 40588.26953125  3551085.50000000 2814791.50000000 
0.06500    77026232.00000000 48469620.00000000 122199296.00000000 39566.93359375  3470506.25000000 2751077.00000000 
0.06600    75500920.00000000 47516848.00000000 119788512.00000000 38567.29296875  3391355.00000000 2688476.25000000 
0.06700    73996280.00000000 46577464.00000000 117411344.00000000 37589.58984375  3313656.50000000 2627028.50000000 
0.06800    72515880.00000000 45652120.00000000 115069592.00000000 36634.23437500  3237434.25000000 2566719.75000000 
0.06900    71058264.00000000 44740920.00000000 112764568.00000000 35701.00000000  3162690.25000000 2507586.50000000 
0.07000    69624384.00000000 43844124.00000000 110497272.00000000 34789.31250000  3089423.50000000 2449613.75000000 
0.07100    68214096.00000000 42961808.00000000 108266064.00000000 33899.45703125  3017661.75000000 2392820.75000000 
0.07200    66827660.00000000 42094792.00000000 106073400.00000000 33031.21875000  2947397.25000000 2337193.00000000 
0.07300    65466252.00000000 41242424.00000000 103918800.00000000 32184.50585938  2878629.25000000 2282769.75000000 
0.07400    64129660.00000000 40405712.00000000 101803104.00000000 31358.86523438  2811343.00000000 2229496.25000000 
0.07500    62817348.00000000 39583844.00000000 99726480.00000000 30553.85546875  2745522.50000000 2177398.75000000 
0.07600    61529980.00000000 38777940.00000000 97689200.00000000 29769.28710938  2681186.00000000 2126446.00000000 
0.07700    60268072.00000000 37987288.00000000 95691680.00000000 29005.20507812  2618316.75000000 2076671.37500000 
0.07800    59030756.00000000 37212408.00000000 93733584.00000000 28260.88281250  2556870.25000000 2028029.75000000 
0.07900    57818532.00000000 36452784.00000000 91814064.00000000 27536.08398438  2496885.50000000 1980501.75000000 
0.08000    56631492.00000000 35708800.00000000 89934608.00000000 26830.06054688  2438292.50000000 1934108.62500000 
0.08100    55469176.00000000 34980648.00000000 88094224.00000000 26142.76953125  2381114.75000000 1888813.75000000 
0.08200    54331504.00000000 34267488.00000000 86293432.00000000 25473.75000000  2325306.50000000 1844612.75000000 
0.08300    53218596.00000000 33569600.00000000 84530544.00000000 24822.55468750  2270814.75000000 1801466.62500000 
0.08400    52130200.00000000 32887580.00000000 82806744.00000000 24188.51757812  2217713.50000000 1759379.87500000 
0.08500    51065552.00000000 32220558.00000000 81121920.00000000 23571.43164062  2165866.75000000 1718322.25000000 
0.08600    50025280.00000000 31568534.00000000 79474328.00000000 22970.75000000  2115338.00000000 1678277.50000000 
0.08700    49008956.00000000 30931134.00000000 77864376.00000000 22386.00585938  2066032.25000000 1639224.50000000 
0.08800    48015544.00000000 30308466.00000000 76291736.00000000 21816.67578125  2017934.25000000 1601145.37500000 
0.08900    47045416.00000000 29700702.00000000 74755336.00000000 21262.37500000  1971068.75000000 1564006.62500000 
0.09000    46097768.00000000 29107002.00000000 73255480.00000000 20722.98632812  1925343.25000000 1527797.87500000 
0.09100    45173104.00000000 28527592.00000000 71791544.00000000 20197.28320312  1880779.25000000 1492502.62500000 
0.09200    44269756.00000000 27961936.00000000 70362096.00000000 19685.48242188  1837305.25000000 1458066.50000000 
0.09300    43388412.00000000 27410012.00000000 68967016.00000000 19187.05468750  1794933.37500000 1424507.37500000 
0.09400    42528548.00000000 26871648.00000000 67605520.00000000 18701.38671875  1753605.37500000 1391782.00000000 
0.09500    41689072.00000000 26346194.00000000 66277496.00000000 18228.09960938  1713315.12500000 1359858.00000000 
0.09600    40870216.00000000 25834014.00000000 64982144.00000000 17766.79882812  1673982.87500000 1328731.00000000 
0.09700    40071624.00000000 25334428.00000000 63718672.00000000 17317.29101562  1635648.12500000 1298372.37500000 
0.09800    39292656.00000000 24847274.00000000 62486772.00000000 16878.82031250  1598254.50000000 1268763.62500000 
0.09900    38532720.00000000 24372360.00000000 61284796.00000000 16451.50781250  1561762.37500000 1239881.87500000 
0.10000    37791268.00000000 23909224.00000000 60112868.00000000 16034.80859375  1526158.25000000 1211695.75000000 
0.10100    37068448.00000000 23457802.00000000 58970080.00000000 15628.18066406  1491402.25000000 1184190.75000000 
0.10200    36363064.00000000 23017722.00000000 57855912.00000000 15231.52929688  1457493.62500000 1157348.12500000 
0.10300    35675236.00000000 22588604.00000000 56769616.00000000 14844.48925781  1424387.62500000 1131146.12500000 
0.10400    35004908.00000000 22170230.00000000 55709952.00000000 14466.75292969  1392068.75000000 1105560.25000000 
0.10500    34350464.00000000 21762736.00000000 54676948.00000000 14098.28320312  1360497.62500000 1080588.62500000 
0.10600    33712204.00000000 21365198.00000000 53669112.00000000 13738.36132812  1329658.12500000 1056177.12500000 
0.10700    33089908.00000000 20977632.00000000 52686604.00000000 13387.12988281  1299543.25000000 1032353.37500000 
0.10800    32482534.00000000 20599856.00000000 51728552.00000000 13044.18945312  1270112.00000000 1009068.75000000 
0.10900    31889962.00000000 20231444.00000000 50793908.00000000 12709.44238281  1241362.12500000 986322.31250000 
0.11000    31311598.00000000 19872106.00000000 49881936.00000000 12382.52050781  1213252.62500000 964081.56250000 
0.11100    30747590.00000000 19521770.00000000 48992460.00000000 12063.41015625  1185781.25000000 942345.87500000 
0.11200    30196686.00000000 19179856.00000000 48124360.00000000 11751.83203125  1158924.87500000 921094.06250000 
0.11300    29659204.00000000 18846572.00000000 47277472.00000000 11447.64062500  1132666.37500000 900309.56250000 
0.11400    29134394.00000000 18521218.00000000 46450844.00000000 11150.66210938  1106973.37500000 879995.18750000 
0.11500    28621862.00000000 18203824.00000000 45644084.00000000 10860.81054688  1081849.75000000 860108.43750000 
0.11600    28121640.00000000 17893930.00000000 44856448.00000000 10577.85351562  1057275.25000000 840661.81250000 
0.11700    27632744.00000000 17591294.00000000 44087052.00000000 10301.80859375  1033236.56250000 821636.68750000 
0.11800    27155118.00000000 17295872.00000000 43335584.00000000 10032.37207031  1009711.18750000 803018.87500000 
0.11900    26688598.00000000 17007414.00000000 42601656.00000000 9769.45996094   986686.93750000 784799.25000000 
0.12000    26232338.00000000 16725553.00000000 41884112.00000000 9513.03906250   964155.43750000 766959.81250000 
0.12100    25786898.00000000 16450341.00000000 41183560.00000000 9263.00488281   942119.56250000 749510.75000000 
0.12200    25350866.00000000 16181313.00000000 40498304.00000000 9019.21484375   920547.43750000 732429.62500000 
0.12300    24924634.00000000 15918243.00000000 39828000.00000000 8781.72558594   899430.68750000 715703.93750000 
0.12400    24507840.00000000 15661000.00000000 39173148.00000000 8550.19628906   878766.25000000 699329.68750000 
0.12500    24099796.00000000 15409433.00000000 38532016.00000000 8324.64941406   858536.37500000 683303.37500000 
0.12600    23700984.00000000 15163456.00000000 37905364.00000000 8105.10693359   838740.25000000 667612.56250000 
0.12700    23310382.00000000 14922579.00000000 37291444.00000000 7891.31298828   819369.43750000 652250.37500000 
0.12800    22927802.00000000 14686893.00000000 36690520.00000000 7683.24755859   800406.93750000 637211.68750000 
0.12900    22553350.00000000 14456032.00000000 36102268.00000000 7480.84716797   781849.62500000 622496.81250000 
0.13000    22186716.00000000 14230059.00000000 35526200.00000000 7284.03222656   763693.25000000 608081.25000000 
0.13100    21827238.00000000 14008562.00000000 34961756.00000000 7092.57275391   745915.56250000 593971.87500000 
0.13200    21475270.00000000 13791528.00000000 34408568.00000000 6906.59130859   728526.50000000 580164.81250000 
0.13300    21130198.00000000 13578788.00000000 33866620.00000000 6725.86083984   711511.12500000 566650.62500000 
0.13400    20791848.00000000 13370296.00000000 33334796.00000000 6550.34814453   694868.93750000 553425.00000000 
0.13500    20460238.00000000 13165646.00000000 32813708.00000000 6379.96093750   678585.75000000 540476.56250000 
0.13600    20134986.00000000 12964968.00000000 32302510.00000000 6214.58593750   662654.62500000 527813.81250000 
0.13700    19815872.00000000 12768067.00000000 31800822.00000000 6054.10937500   647074.31250000 515416.62500000 
0.13800    19502892.00000000 12574740.00000000 31308322.00000000 5898.45947266   631835.50000000 503289.37500000 
0.13900    19195640.00000000 12384997.00000000 30825298.00000000 5747.51806641   616929.75000000 491424.00000000 
0.14000    18894276.00000000 12198519.00000000 30350720.00000000 5601.17626953   602365.68750000 479818.37500000 
0.14100    18598070.00000000 12015341.00000000 29884906.00000000 5459.36718750   588129.06250000 468469.87500000 
0.14200    18307364.00000000 11835455.00000000 29427326.00000000 5321.92626953   574200.31250000 457366.62500000 
0.14300    18021712.00000000 11658498.00000000 28977444.00000000 5188.82666016   560590.68750000 446509.59375000 
0.14400    17741206.00000000 11484571.00000000 28535274.00000000 5059.81787109   547284.50000000 435893.43750000 
0.14500    17465568.00000000 11313595.00000000 28100826.00000000 4934.91601562   534282.87500000 425509.65625000 
0.14600    17194730.00000000 11145292.00000000 27673782.00000000 4813.93115234   521577.81250000 415362.71875000 
0.14700    16928534.00000000 10979731.00000000 27253628.00000000 4696.79199219   509163.50000000 405445.90625000 
0.14800    16666714.00000000 10816769.00000000 26840374.00000000 4583.32373047   497030.15625000 395743.40625000 
0.14900    16409271.00000000 10656375.00000000 26433670.00000000 4473.40673828   485176.06250000 386266.78125000 
0.15000    16156088.00000000 10498460.00000000 26033702.00000000 4367.02490234   473592.65625000 377000.78125000 
0.15100    15907006.00000000 10342833.00000000 25639750.00000000 4263.92236328   462283.09375000 367945.65625000 
0.15200    15662068.00000000 10189687.00000000 25252256.00000000 4164.07958984   451232.03125000 359096.96875000 
0.15300    15421019.00000000 10038792.00000000 24870466.00000000 4067.33056641   440436.28125000 350448.00000000 
0.15400    15183670.00000000 9889916.00000000 24494596.00000000 3973.54687500   429889.78125000 341996.37500000 
0.15500    14950072.00000000 9743334.00000000 24124396.00000000 3882.62890625   419585.06250000 333738.71875000 
0.15600    14720130.00000000 9598754.00000000 23759528.00000000 3794.42822266   409519.59375000 325667.12500000 
0.15700    14493689.00000000 9456299.00000000 23400348.00000000 3708.91186523   399686.90625000 317781.56250000 
0.15800    14270736.00000000 9315757.00000000 23045930.00000000 3625.86474609   390080.18750000 310074.09375000 
0.15900    14051074.00000000 9177090.00000000 22697090.00000000 3545.25830078   380695.56250000 302542.21875000 
0.16000    13834636.00000000 9040288.00000000 22352782.00000000 3466.93676758   371525.31250000 295179.93750000 
0.16100    13621558.00000000 8905375.00000000 22013546.00000000 3390.83862305   362568.50000000 287988.68750000 
0.16200    13411510.00000000 8772184.00000000 21679040.00000000 3316.80371094   353814.78125000 280958.00000000 
0.16300    13204482.00000000 8640804.00000000 21348976.00000000 3244.78442383   345257.62500000 274086.09375000 
0.16400    13000432.00000000 8511120.00000000 21023800.00000000 3174.69213867   336897.78125000 267369.12500000 
0.16500    12799254.00000000 8383112.50000000 20702926.00000000 3106.39599609   328725.96875000 260802.64062500 
0.16600    12601135.00000000 8256791.50000000 20386244.00000000 3039.82397461   320737.06250000 254385.09375000 
0.16700    12405538.00000000 8131964.00000000 20073958.00000000 2974.91064453   312926.40625000 248106.84375000 
0.16800    12212744.00000000 8008760.00000000 19765602.00000000 2911.54467773   305287.71875000 241968.70312500 
0.16900    12022757.00000000 7887115.50000000 19461552.00000000 2849.71240234   297824.65625000 235970.14062500 
0.17000    11835318.00000000 7766995.50000000 19161424.00000000 2789.30004883   290521.46875000 230100.70312500 
