# SAXS profile: number of points = 501, q_min = 0, q_max = 0.5, delta_q = 0.001
#    q    intensity 
0.00000    162235568.00000000 101202352.00000000 256271152.00000000 118841.23437500 8781931.00000000 6935958.50000000 
0.00100    162197552.00000000 101177064.00000000 256208160.00000000 118804.32031250 8779491.00000000 6934052.50000000 
0.00200    162081024.00000000 101103544.00000000 256020016.00000000 118696.52343750 8772215.00000000 6928320.50000000 
0.00300    161883440.00000000 100980408.00000000 255707856.00000000 118515.88281250 8760079.00000000 6918810.50000000 
0.00400    161604096.00000000 100809568.00000000 255269728.00000000 118263.44531250 8743121.00000000 6905482.50000000 
0.00500    161245792.00000000 100589648.00000000 254710240.00000000 117941.38281250 8721415.00000000 6888394.50000000 
0.00600    160806160.00000000 100319680.00000000 254021456.00000000 117548.52343750 8694826.00000000 6867578.50000000 
0.00700    160292688.00000000 100003888.00000000 253216976.00000000 117084.25000000 8663594.00000000 6843061.00000000 
0.00800    159696864.00000000 99641072.00000000 252291968.00000000 116552.56250000 8627765.00000000 6814920.00000000 
0.00900    159028672.00000000 99231968.00000000 251245296.00000000 115953.52343750 8587279.00000000 6783196.50000000 
0.01000    158288480.00000000 98777880.00000000 250083184.00000000 115287.05468750 8542311.00000000 6747910.00000000 
0.01100    157475744.00000000 98277408.00000000 248805504.00000000 114556.98437500 8492997.00000000 6709163.50000000 
0.01200    156589680.00000000 97731392.00000000 247414544.00000000 113762.57812500 8439284.00000000 6667034.00000000 
0.01300    155630528.00000000 97142944.00000000 245913792.00000000 112906.09375000 8381382.50000000 6621520.50000000 
0.01400    154603072.00000000 96512048.00000000 244303712.00000000 111988.72656250 8319260.50000000 6572814.00000000 
0.01500    153509296.00000000 95840336.00000000 242589792.00000000 111013.53906250 8253264.00000000 6520984.00000000 
0.01600    152351296.00000000 95127648.00000000 240771744.00000000 109981.28125000 8183274.50000000 6466026.00000000 
0.01700    151128256.00000000 94376304.00000000 238854768.00000000 108894.47656250 8109561.00000000 6408142.50000000 
0.01800    149844496.00000000 93586920.00000000 236840768.00000000 107755.35156250 8032188.00000000 6347418.50000000 
0.01900    148500992.00000000 92760736.00000000 234733136.00000000 106565.61718750 7951342.50000000 6283923.00000000 
0.02000    147098464.00000000 91899528.00000000 232535504.00000000 105328.10937500 7867135.50000000 6217802.50000000 
0.02100    145642400.00000000 91004120.00000000 230251136.00000000 104044.87500000 7779723.00000000 6149155.00000000 
0.02200    144134000.00000000 90076112.00000000 227885744.00000000 102717.81250000 7689255.50000000 6078102.50000000 
0.02300    142575120.00000000 89117832.00000000 225439552.00000000 101350.32031250 7595901.50000000 6004746.50000000 
0.02400    140968160.00000000 88128872.00000000 222918240.00000000 99944.19531250  7499790.00000000 5929254.50000000 
0.02500    139315056.00000000 87111848.00000000 220325536.00000000 98502.67187500  7401085.50000000 5851725.50000000 
0.02600    137620384.00000000 86068232.00000000 217666656.00000000 97027.54687500  7299978.00000000 5772294.00000000 
0.02700    135885504.00000000 84999448.00000000 214942544.00000000 95522.16406250  7196639.00000000 5691070.00000000 
0.02800    134111880.00000000 83907816.00000000 212160640.00000000 93987.69531250  7091220.00000000 5608244.00000000 
0.02900    132304472.00000000 82794888.00000000 209322464.00000000 92428.70312500  6983920.50000000 5523904.00000000 
0.03000    130464080.00000000 81661184.00000000 206432304.00000000 90846.73437500  6874853.00000000 5438178.00000000 
0.03100    128594224.00000000 80509104.00000000 203499376.00000000 89244.82812500  6764216.00000000 5351231.00000000 
0.03200    126698000.00000000 79340056.00000000 200520336.00000000 87625.51562500  6652187.50000000 5263159.00000000 
0.03300    124777120.00000000 78155664.00000000 197503520.00000000 85991.64062500  6538977.00000000 5174110.50000000 
0.03400    122834992.00000000 76957640.00000000 194453200.00000000 84345.15625000  6424700.00000000 5084224.00000000 
0.03500    120874064.00000000 75748232.00000000 191373136.00000000 82688.95312500  6309538.50000000 4993672.50000000 
0.03600    118897864.00000000 74529648.00000000 188268320.00000000 81025.27343750  6193678.00000000 4902541.00000000 
0.03700    116907336.00000000 73300776.00000000 185140368.00000000 79358.03125000  6077268.50000000 4810963.00000000 
0.03800    114906816.00000000 72066336.00000000 181997248.00000000 77687.78906250  5960435.50000000 4719082.00000000 
0.03900    112897440.00000000 70825224.00000000 178838640.00000000 76018.07812500  5843413.50000000 4626975.50000000 
0.04000    110882944.00000000 69580992.00000000 175670800.00000000 74350.54687500  5726333.50000000 4534828.50000000 
0.04100    108864896.00000000 68334088.00000000 172498656.00000000 72688.53125000  5609362.00000000 4442713.00000000 
0.04200    106846672.00000000 67085536.00000000 169324608.00000000 71032.51562500  5492603.00000000 4350759.50000000 
0.04300    104831104.00000000 65838808.00000000 166152448.00000000 69385.88281250  5376184.50000000 4259099.50000000 
0.04400    102818936.00000000 64594136.00000000 162988496.00000000 67749.88281250  5260298.00000000 4167859.25000000 
0.04500    100813008.00000000 63352556.00000000 159832816.00000000 66127.33593750  5145080.50000000 4077090.75000000 
0.04600    98816824.00000000 62116472.00000000 156689904.00000000 64519.50390625  5030647.50000000 3986948.75000000 
0.04700    96831080.00000000 60886968.00000000 153563952.00000000 62928.94140625  4917164.50000000 3897520.25000000 
0.04800    94858272.00000000 59664824.00000000 150459152.00000000 61356.22265625  4804668.00000000 3808885.75000000 
0.04900    92900664.00000000 58451844.00000000 147375824.00000000 59803.30859375  4693385.00000000 3721121.00000000 
0.05000    90960848.00000000 57248624.00000000 144320512.00000000 58271.89843750  4583305.00000000 3634348.00000000 
0.05100    89039664.00000000 56056700.00000000 141293520.00000000 56763.20703125  4474615.00000000 3548632.75000000 
0.05200    87138512.00000000 54877000.00000000 138299584.00000000 55278.87890625  4367375.00000000 3464046.50000000 
0.05300    85260032.00000000 53711276.00000000 135338432.00000000 53819.66796875  4261639.00000000 3380682.75000000 
0.05400    83406168.00000000 52559104.00000000 132417992.00000000 52386.70312500  4157613.50000000 3298582.00000000 
0.05500    81577192.00000000 51423132.00000000 129533968.00000000 50981.12109375  4055273.25000000 3217808.50000000 
0.05600    79775496.00000000 50302816.00000000 126692408.00000000 49604.11718750  3954715.50000000 3138440.50000000 
0.05700    78002152.00000000 49199936.00000000 123894896.00000000 48255.92968750  3856053.25000000 3060523.50000000 
0.05800    76258176.00000000 48114696.00000000 121143344.00000000 46936.94140625  3759243.25000000 2984081.25000000 
0.05900    74544264.00000000 47048384.00000000 118439528.00000000 45648.74609375  3664411.75000000 2909181.25000000 
0.06000    72862336.00000000 46001060.00000000 115785832.00000000 44391.37890625  3571625.00000000 2835846.00000000 
0.06100    71213896.00000000 44973600.00000000 113181576.00000000 43164.93750000  3480884.75000000 2764144.00000000 
0.06200    69598656.00000000 43966392.00000000 110629960.00000000 41970.08984375  3392203.75000000 2694051.50000000 
0.06300    68017080.00000000 42980352.00000000 108132968.00000000 40807.09375000  3305705.50000000 2625627.00000000 
0.06400    66470492.00000000 42015200.00000000 105689640.00000000 39675.82421875  3221260.75000000 2558881.25000000 
0.06500    64959768.00000000 41072100.00000000 103302072.00000000 38576.30078125  3139030.50000000 2493832.25000000 
0.06600    63485092.00000000 40150580.00000000 100970488.00000000 37508.64062500  3058965.50000000 2430489.00000000 
0.06700    62046300.00000000 39252064.00000000 98696480.00000000 36472.93750000  2981059.50000000 2368816.00000000 
0.06800    60644556.00000000 38375584.00000000 96479480.00000000 35468.58593750  2905312.25000000 2308891.25000000 
0.06900    59279500.00000000 37521668.00000000 94319272.00000000 34495.82031250  2831787.75000000 2250633.25000000 
0.07000    57951752.00000000 36690164.00000000 92218392.00000000 33553.50000000  2760390.00000000 2194109.00000000 
0.07100    56660648.00000000 35881668.00000000 90175456.00000000 32641.86523438  2691147.50000000 2139264.25000000 
0.07200    55406788.00000000 35096080.00000000 88190536.00000000 31760.61914062  2624014.00000000 2086073.50000000 
0.07300    54189652.00000000 34333520.00000000 86263312.00000000 30908.72656250  2559003.00000000 2034555.62500000 
0.07400    53009504.00000000 33593136.00000000 84393688.00000000 30085.66015625  2496094.00000000 1984663.25000000 
0.07500    51865868.00000000 32875528.00000000 82582128.00000000 29291.64843750  2435210.25000000 1936389.50000000 
0.07600    50758328.00000000 32180370.00000000 80826200.00000000 28524.88085938  2376328.25000000 1889702.50000000 
0.07700    49686020.00000000 31507060.00000000 79127160.00000000 27785.79492188  2319463.25000000 1844581.62500000 
0.07800    48649380.00000000 30855808.00000000 77483984.00000000 27072.67187500  2264494.50000000 1800976.75000000 
0.07900    47647840.00000000 30226236.00000000 75895256.00000000 26385.29296875  2211443.25000000 1758859.75000000 
0.08000    46680324.00000000 29617664.00000000 74360576.00000000 25722.66406250  2160227.25000000 1718214.25000000 
0.08100    45746776.00000000 29030156.00000000 72879176.00000000 25084.31250000  2110819.25000000 1678982.12500000 
0.08200    44845708.00000000 28463094.00000000 71449792.00000000 24469.19140625  2063164.37500000 1641134.62500000 
0.08300    43976920.00000000 27916252.00000000 70071512.00000000 23876.56250000  2017184.62500000 1604625.75000000 
0.08400    43139820.00000000 27389056.00000000 68742552.00000000 23305.58007812  1972865.62500000 1569414.25000000 
0.08500    42333400.00000000 26881190.00000000 67462080.00000000 22755.26562500  1930140.12500000 1535463.00000000 
0.08600    41557176.00000000 26391678.00000000 66229700.00000000 22224.88476562  1888934.37500000 1502713.12500000 
0.08700    40809688.00000000 25920454.00000000 65042968.00000000 21713.58593750  1849221.00000000 1471142.87500000 
0.08800    40090332.00000000 25467146.00000000 63900588.00000000 21220.48828125  1810917.37500000 1440693.37500000 
0.08900    39398540.00000000 25030722.00000000 62801660.00000000 20744.84570312  1773969.12500000 1411321.25000000 
0.09000    38732884.00000000 24610922.00000000 61744456.00000000 20285.95117188  1738323.37500000 1382976.25000000 
0.09100    38092668.00000000 24207274.00000000 60727168.00000000 19842.65234375  1703917.75000000 1355626.25000000 
0.09200    37476952.00000000 23818954.00000000 59749532.00000000 19414.30078125  1670713.00000000 1329224.00000000 
0.09300    36885016.00000000 23445370.00000000 58809108.00000000 19000.32031250  1638633.50000000 1303709.75000000 
0.09400    36315300.00000000 23086260.00000000 57904200.00000000 18599.65429688  1607625.12500000 1279054.50000000 
0.09500    35767032.00000000 22740660.00000000 57033676.00000000 18211.70507812  1577635.75000000 1255205.00000000 
0.09600    35239824.00000000 22408034.00000000 56195924.00000000 17835.70507812  1548614.37500000 1232119.75000000 
0.09700    34731668.00000000 22088132.00000000 55390176.00000000 17471.10351562  1520494.37500000 1209765.75000000 
0.09800    34242964.00000000 21779972.00000000 54613428.00000000 17116.81054688  1493241.87500000 1188091.37500000 
0.09900    33771544.00000000 21483330.00000000 53865440.00000000 16772.81054688  1466789.75000000 1167063.37500000 
0.10000    33316996.00000000 21197276.00000000 53144456.00000000 16437.99023438  1441090.62500000 1146634.25000000 
0.10100    32878320.00000000 20921000.00000000 52448536.00000000 16112.05566406  1416102.50000000 1126764.75000000 
0.10200    32454606.00000000 20654730.00000000 51776200.00000000 15794.32031250  1391783.75000000 1107437.50000000 
0.10300    32044888.00000000 20397344.00000000 51126840.00000000 15484.25585938  1368068.37500000 1088576.00000000 
0.10400    31648274.00000000 20148412.00000000 50498708.00000000 15181.50292969  1344934.12500000 1070201.37500000 
0.10500    31264342.00000000 19907642.00000000 49889900.00000000 14885.47460938  1322342.12500000 1052242.75000000 
0.10600    30891530.00000000 19673896.00000000 49299856.00000000 14595.71972656  1300236.00000000 1034684.75000000 
0.10700    30529442.00000000 19447274.00000000 48726792.00000000 14312.04296875  1278580.75000000 1017484.87500000 
0.10800    30177146.00000000 19226900.00000000 48169504.00000000 14033.67480469  1257357.50000000 1000626.37500000 
0.10900    29834080.00000000 19012736.00000000 47627140.00000000 13760.60742188  1236516.00000000 984076.75000000 
0.11000    29499396.00000000 18803730.00000000 47098136.00000000 13492.45898438  1216053.00000000 967817.00000000 
0.11100    29172532.00000000 18599584.00000000 46581392.00000000 13228.99316406  1195894.62500000 951814.87500000 
0.11200    28852386.00000000 18400300.00000000 46076336.00000000 12969.65820312  1176046.62500000 936060.75000000 
0.11300    28538528.00000000 18205100.00000000 45580964.00000000 12714.62792969  1156487.75000000 920528.62500000 
0.11400    28230428.00000000 18013476.00000000 45095408.00000000 12463.45117188  1137173.37500000 905198.75000000 
0.11500    27927652.00000000 17825408.00000000 44617980.00000000 12216.09277344  1118100.12500000 890058.81250000 
0.11600    27629306.00000000 17640380.00000000 44147636.00000000 11972.21484375  1099237.50000000 875092.75000000 
0.11700    27335166.00000000 17458148.00000000 43684640.00000000 11731.81738281  1080581.12500000 860282.37500000 
0.11800    27044304.00000000 17277966.00000000 43226800.00000000 11494.67187500  1062103.50000000 845613.56250000 
0.11900    26756950.00000000 17100126.00000000 42774464.00000000 11260.75585938  1043796.81250000 831079.31250000 
0.12000    26472058.00000000 16923920.00000000 42326324.00000000 11030.03417969  1025645.43750000 816678.68750000 
0.12100    26189560.00000000 16749287.00000000 41882144.00000000 10802.30078125  1007652.75000000 802388.93750000 
0.12200    25908980.00000000 16576066.00000000 41440904.00000000 10577.63574219  989791.50000000 788206.00000000 
0.12300    25629994.00000000 16403874.00000000 41002424.00000000 10356.01953125  972070.37500000 774133.93750000 
0.12400    25352198.00000000 16232510.00000000 40565940.00000000 10137.39160156  954468.31250000 760154.12500000 
0.12500    25075558.00000000 16061777.00000000 40131116.00000000 9921.62890625   936991.62500000 746276.75000000 
0.12600    24799698.00000000 15891647.00000000 39697524.00000000 9708.97265625   919642.43750000 732495.81250000 
0.12700    24524382.00000000 15721855.00000000 39265096.00000000 9499.18750000   902406.31250000 718803.56250000 
0.12800    24249300.00000000 15552195.00000000 38832772.00000000 9292.44140625   885289.93750000 705200.81250000 
0.12900    23974604.00000000 15382765.00000000 38401192.00000000 9088.75097656   868297.87500000 691688.12500000 
0.13000    23699930.00000000 15213352.00000000 37969568.00000000 8888.06054688   851434.25000000 678270.00000000 
0.13100    23425020.00000000 15043806.00000000 37537692.00000000 8690.52832031   834672.62500000 664941.87500000 
0.13200    23150246.00000000 14874153.00000000 37105700.00000000 8495.96582031   818044.43750000 651718.75000000 
0.13300    22875104.00000000 14704278.00000000 36672812.00000000 8304.66796875   801552.50000000 638588.25000000 
0.13400    22599538.00000000 14534107.00000000 36240028.00000000 8116.56347656   785189.68750000 625558.93750000 
0.13500    22323962.00000000 14363631.00000000 35806300.00000000 7931.58203125   768963.37500000 612639.12500000 
0.13600    22047922.00000000 14192936.00000000 35371732.00000000 7749.97705078   752885.93750000 599826.00000000 
0.13700    21771588.00000000 14021965.00000000 34937344.00000000 7571.63232422   736956.68750000 587134.68750000 
0.13800    21495020.00000000 13850609.00000000 34501696.00000000 7396.65136719   721177.06250000 574549.37500000 
0.13900    21218332.00000000 13679011.00000000 34065576.00000000 7224.94482422   705557.68750000 562096.31250000 
0.14000    20941340.00000000 13507213.00000000 33629020.00000000 7056.72509766   690112.87500000 549768.87500000 
0.14100    20664206.00000000 13335212.00000000 33192164.00000000 6891.82812500   674841.18750000 537577.06250000 
0.14200    20387032.00000000 13162800.00000000 32754988.00000000 6730.41162109   659748.12500000 525520.18750000 
0.14300    20110112.00000000 12990483.00000000 32317630.00000000 6572.42187500   644838.56250000 513614.25000000 
0.14400    19832956.00000000 12817950.00000000 31880344.00000000 6417.86962891   630123.43750000 501848.34375000 
0.14500    19556408.00000000 12645481.00000000 31443106.00000000 6266.75537109   615607.81250000 490242.81250000 
0.14600    19280044.00000000 12472995.00000000 31006292.00000000 6119.11035156   601294.68750000 478791.09375000 
0.14700    19004416.00000000 12300651.00000000 30570098.00000000 5974.95458984   587191.37500000 467507.37500000 
0.14800    18729042.00000000 12128421.00000000 30134390.00000000 5834.14794922   573306.93750000 456384.31250000 
0.14900    18454562.00000000 11956513.00000000 29699844.00000000 5696.73730469   559637.06250000 445437.46875000 
0.15000    18180936.00000000 11784908.00000000 29266150.00000000 5562.70898438   546193.50000000 434662.59375000 
0.15100    17908162.00000000 11613715.00000000 28833924.00000000 5432.00488281   532981.00000000 424067.40625000 
0.15200    17636796.00000000 11443100.00000000 28403110.00000000 5304.68652344   519999.59375000 413656.09375000 
0.15300    17366350.00000000 11273058.00000000 27974458.00000000 5180.56005859   507257.15625000 403432.12500000 
0.15400    17097580.00000000 11103606.00000000 27547228.00000000 5059.65527344   494749.90625000 393392.50000000 
0.15500    16830278.00000000 10934983.00000000 27122550.00000000 4941.89306641   482487.37500000 383545.40625000 
0.15600    16564722.00000000 10767225.00000000 26699936.00000000 4827.26562500   470468.81250000 373887.46875000 
0.15700    16300930.00000000 10600289.00000000 26280224.00000000 4715.65576172   458693.37500000 364426.03125000 
0.15800    16038962.00000000 10434421.00000000 25863108.00000000 4607.02343750   447163.37500000 355156.37500000 
0.15900    15779228.00000000 10269660.00000000 25449178.00000000 4501.33984375   435883.43750000 346087.78125000 
0.16000    15521374.00000000 10105984.00000000 25038398.00000000 4398.41699219   424851.71875000 337209.34375000 
0.16100    15266141.00000000 9943705.00000000 24631034.00000000 4298.33544922   414070.84375000 328530.31250000 
0.16200    15013104.00000000 9782675.00000000 24227238.00000000 4200.89794922   403530.90625000 320048.28125000 
0.16300    14762693.00000000 9623090.00000000 23827262.00000000 4106.11865234   393239.93750000 311758.65625000 
0.16400    14514707.00000000 9464880.00000000 23431130.00000000 4013.83203125   383193.21875000 303668.40625000 
0.16500    14269694.00000000 9308323.00000000 23039074.00000000 3924.01586914   373386.84375000 295769.21875000 
0.16600    14027305.00000000 9153328.00000000 22651240.00000000 3836.57495117   363822.12500000 288063.37500000 
0.16700    13787776.00000000 8999825.00000000 22267770.00000000 3751.41845703   354495.09375000 280544.81250000 
0.16800    13551219.00000000 8848255.00000000 21888842.00000000 3668.46606445   345401.84375000 273218.81250000 
0.16900    13317775.00000000 8698364.00000000 21514688.00000000 3587.64965820   336540.25000000 266073.96875000 
0.17000    13087354.00000000 8550339.00000000 21145102.00000000 3508.88647461   327905.40625000 259110.95312500 
