# SAXS profile: number of points = 501, q_min = 0, q_max = 0.5, delta_q = 0.001
#    q    intensity 
0.00000    162234928.00000000 101201784.00000000 256269856.00000000 109914.98437500 8445678.00000000 6670397.50000000 
0.00100    162195504.00000000 101175616.00000000 256205904.00000000 109881.03125000 8443279.00000000 6668513.50000000 
0.00200    162075344.00000000 101097976.00000000 256009328.00000000 109779.28906250 8436094.00000000 6662830.50000000 
0.00300    161869408.00000000 100969248.00000000 255681568.00000000 109610.40625000 8424116.00000000 6653396.50000000 
0.00400    161576176.00000000 100788320.00000000 255222128.00000000 109374.08593750 8407339.00000000 6640195.00000000 
0.00500    161199840.00000000 100556992.00000000 254632640.00000000 109071.25000000 8385867.00000000 6623265.50000000 
0.00600    160744896.00000000 100273344.00000000 253915776.00000000 108702.57812500 8359692.50000000 6602632.00000000 
0.00700    160206480.00000000 99941464.00000000 253072880.00000000 108270.07031250 8328890.50000000 6578393.50000000 
0.00800    159586688.00000000 99560504.00000000 252102912.00000000 107771.26562500 8293479.50000000 6550536.50000000 
0.00900    158891744.00000000 99131272.00000000 251009712.00000000 107211.12500000 8253650.00000000 6519148.00000000 
0.01000    158122336.00000000 98653728.00000000 249792976.00000000 106588.31250000 8209370.50000000 6484236.00000000 
0.01100    157277040.00000000 98128216.00000000 248459680.00000000 105905.09375000 8160808.50000000 6446024.00000000 
0.01200    156353440.00000000 97556664.00000000 247008256.00000000 105163.27343750 8107994.00000000 6404378.50000000 
0.01300    155357328.00000000 96939984.00000000 245442384.00000000 104364.34375000 8051045.00000000 6359535.00000000 
0.01400    154291968.00000000 96280048.00000000 243763568.00000000 103509.84375000 7990120.50000000 6311538.50000000 
0.01500    153158016.00000000 95577360.00000000 241979024.00000000 102602.19531250 7925316.50000000 6260491.00000000 
0.01600    151955840.00000000 94833712.00000000 240087728.00000000 101641.19531250 7856753.50000000 6206478.50000000 
0.01700    150690640.00000000 94049480.00000000 238095424.00000000 100631.19531250 7784595.50000000 6149606.50000000 
0.01800    149362544.00000000 93226152.00000000 236004944.00000000 99573.57812500  7708926.50000000 6090028.50000000 
0.01900    147974592.00000000 92366280.00000000 233819120.00000000 98470.68750000  7629983.50000000 6027794.50000000 
0.02000    146529600.00000000 91470992.00000000 231544672.00000000 97324.07031250  7547830.00000000 5963070.50000000 
0.02100    145030640.00000000 90541344.00000000 229182688.00000000 96137.10937500  7462704.00000000 5895950.00000000 
0.02200    143478704.00000000 89579752.00000000 226737936.00000000 94910.93750000  7374660.50000000 5826621.50000000 
0.02300    141876464.00000000 88586520.00000000 224214944.00000000 93649.83593750  7283972.00000000 5755149.50000000 
0.02400    140227536.00000000 87563960.00000000 221618784.00000000 92354.54687500  7190736.50000000 5681669.00000000 
0.02500    138535632.00000000 86514032.00000000 218954352.00000000 91028.00781250  7095189.50000000 5606348.50000000 
0.02600    136801152.00000000 85438512.00000000 216222208.00000000 89673.17187500  6997434.50000000 5529306.00000000 
0.02700    135029920.00000000 84339168.00000000 213431568.00000000 88292.58593750  6897698.50000000 5450660.50000000 
0.02800    133222552.00000000 83218000.00000000 210584240.00000000 86888.39062500  6796069.50000000 5370593.50000000 
0.02900    131383480.00000000 82076416.00000000 207684864.00000000 85463.41406250  6692852.00000000 5289179.50000000 
0.03000    129514048.00000000 80916424.00000000 204740160.00000000 84020.10156250  6588151.50000000 5206603.50000000 
0.03100    127618328.00000000 79738776.00000000 201753360.00000000 82561.24218750  6482110.00000000 5123059.50000000 
0.03200    125698592.00000000 78547280.00000000 198728224.00000000 81089.60937500  6374961.50000000 5038540.00000000 
0.03300    123759248.00000000 77342472.00000000 195670624.00000000 79606.53125000  6266866.50000000 4953307.00000000 
0.03400    121801472.00000000 76126768.00000000 192585792.00000000 78115.53125000  6158035.00000000 4867457.00000000 
0.03500    119829240.00000000 74902072.00000000 189476240.00000000 76618.68750000  6048531.50000000 4781126.00000000 
0.03600    117844160.00000000 73669248.00000000 186347536.00000000 75118.44531250  5938623.00000000 4694434.50000000 
0.03700    115851016.00000000 72429864.00000000 183203696.00000000 73616.24218750  5828384.00000000 4607479.50000000 
0.03800    113850216.00000000 71186648.00000000 180050016.00000000 72115.13281250  5718050.00000000 4520424.00000000 
0.03900    111847152.00000000 69940544.00000000 176889216.00000000 70618.17968750  5607743.50000000 4433406.50000000 
0.04000    109842496.00000000 68693448.00000000 173727472.00000000 69125.95312500  5497587.00000000 4346514.00000000 
0.04100    107838712.00000000 67447728.00000000 170568464.00000000 67641.60937500  5387800.00000000 4259865.00000000 
0.04200    105839544.00000000 66203944.00000000 167415088.00000000 66165.07031250  5278472.00000000 4173578.50000000 
0.04300    103847312.00000000 64964084.00000000 164271568.00000000 64700.01953125  5169764.00000000 4087790.75000000 
0.04400    101863568.00000000 63729664.00000000 161141488.00000000 63247.65625000  5061752.50000000 4002528.75000000 
0.04500    99891704.00000000 62501728.00000000 158028640.00000000 61809.83984375  4954590.00000000 3918002.00000000 
0.04600    97933200.00000000 61282328.00000000 154936400.00000000 60388.47656250  4848455.50000000 3834185.25000000 
0.04700    95989136.00000000 60072396.00000000 151868640.00000000 58984.08984375  4743388.00000000 3751240.00000000 
0.04800    94063512.00000000 58872712.00000000 148828240.00000000 57598.80859375  4639473.00000000 3669231.50000000 
0.04900    92156896.00000000 57685124.00000000 145820864.00000000 56233.17578125  4536922.50000000 3588260.25000000 
0.05000    90271960.00000000 56510472.00000000 142844816.00000000 54889.50781250  4435736.00000000 3508361.25000000 
0.05100    88409656.00000000 55350052.00000000 139904320.00000000 53567.73828125  4336028.00000000 3429643.00000000 
0.05200    86572152.00000000 54204936.00000000 137003328.00000000 52268.92187500  4237884.50000000 3352104.50000000 
0.05300    84761024.00000000 53075672.00000000 134142584.00000000 50994.81640625  4141333.75000000 3275887.25000000 
0.05400    82977432.00000000 51963516.00000000 131326592.00000000 49744.87890625  4046471.50000000 3200973.50000000 
0.05500    81222608.00000000 50868944.00000000 128555736.00000000 48520.96484375  3953390.75000000 3127445.25000000 
0.05600    79497600.00000000 49793692.00000000 125830928.00000000 47323.17968750  3862101.00000000 3055344.50000000 
0.05700    77803952.00000000 48737000.00000000 123156008.00000000 46151.48437500  3772663.25000000 2984692.75000000 
0.05800    76142040.00000000 47700572.00000000 120531000.00000000 45006.78125000  3685080.25000000 2915530.50000000 
0.05900    74513560.00000000 46684660.00000000 117958232.00000000 43889.19140625  3599478.75000000 2847875.25000000 
0.06000    72918200.00000000 45689164.00000000 115438496.00000000 42799.12109375  3515762.75000000 2781766.75000000 
0.06100    71358056.00000000 44715476.00000000 112972552.00000000 41736.61328125  3434039.00000000 2717196.25000000 
0.06200    69832336.00000000 43762824.00000000 110562000.00000000 40701.18750000  3354289.00000000 2654188.25000000 
0.06300    68342384.00000000 42833064.00000000 108207000.00000000 39693.08203125  3276522.50000000 2592743.00000000 
0.06400    66887392.00000000 41925092.00000000 105908864.00000000 38712.38671875  3200749.25000000 2532891.50000000 
0.06500    65468476.00000000 41039844.00000000 103667000.00000000 37758.73437500  3126955.50000000 2474607.25000000 
0.06600    64085868.00000000 40176824.00000000 101482448.00000000 36832.03515625  3055152.00000000 2417877.50000000 
0.06700    62739480.00000000 39336344.00000000 99355736.00000000 35931.19140625  2985317.25000000 2362686.75000000 
0.06800    61429024.00000000 38519008.00000000 97284848.00000000 35056.91406250  2917399.50000000 2309048.50000000 
0.06900    60154892.00000000 37723620.00000000 95272008.00000000 34208.19531250  2851454.75000000 2256939.25000000 
0.07000    58916624.00000000 36951116.00000000 93315856.00000000 33384.08593750  2787382.75000000 2206324.75000000 
0.07100    57714136.00000000 36200456.00000000 91415872.00000000 32585.17382812  2725195.25000000 2157198.75000000 
0.07200    56546452.00000000 35472624.00000000 89572176.00000000 31809.52148438  2664823.75000000 2109529.25000000 
0.07300    55413800.00000000 34766492.00000000 87783688.00000000 31057.74218750  2606278.75000000 2063286.87500000 
0.07400    54315656.00000000 34082104.00000000 86049248.00000000 30328.17578125  2549499.50000000 2018447.25000000 
0.07500    53251764.00000000 33418884.00000000 84369128.00000000 29621.00390625  2494408.00000000 1974978.25000000 
0.07600    52220560.00000000 32776568.00000000 82741696.00000000 28935.15625000  2441028.50000000 1932815.37500000 
0.07700    51222568.00000000 32155184.00000000 81165784.00000000 28269.96679688  2389255.00000000 1891962.87500000 
0.07800    50256036.00000000 31554070.00000000 79640976.00000000 27624.69531250  2339075.75000000 1852339.62500000 
0.07900    49321196.00000000 30972116.00000000 78166264.00000000 26998.38476562  2290426.75000000 1813951.75000000 
0.08000    48416716.00000000 30409486.00000000 76739272.00000000 26390.72851562  2243263.25000000 1776733.37500000 
0.08100    47541648.00000000 29865920.00000000 75360000.00000000 25800.82421875  2197533.00000000 1740639.62500000 
0.08200    46695736.00000000 29340610.00000000 74026752.00000000 25227.61718750  2153165.25000000 1705648.12500000 
0.08300    45877668.00000000 28832828.00000000 72737624.00000000 24670.88867188  2110116.00000000 1671705.25000000 
0.08400    45086396.00000000 28342434.00000000 71492168.00000000 24129.80273438  2068354.75000000 1638768.25000000 
0.08500    44322048.00000000 27868532.00000000 70287384.00000000 23603.21484375  2027814.75000000 1606793.62500000 
0.08600    43582508.00000000 27410838.00000000 69123968.00000000 23090.97265625  1988437.25000000 1575759.37500000 
0.08700    42867008.00000000 26968296.00000000 67998864.00000000 22592.21875000  1950150.87500000 1545594.25000000 
0.08800    42175508.00000000 26540936.00000000 66911480.00000000 22106.11718750  1912939.62500000 1516266.87500000 
0.08900    41506048.00000000 26127768.00000000 65859632.00000000 21632.32421875  1876733.87500000 1487739.25000000 
0.09000    40858476.00000000 25728312.00000000 64842352.00000000 21169.85937500  1841490.37500000 1459978.12500000 
0.09100    40231412.00000000 25341880.00000000 63857660.00000000 20718.51562500  1807166.00000000 1432932.25000000 
0.09200    39623768.00000000 24968030.00000000 62904076.00000000 20277.57031250  1773677.37500000 1406578.50000000 
0.09300    39035196.00000000 24606078.00000000 61981196.00000000 19846.50195312  1741031.00000000 1380856.62500000 
0.09400    38464256.00000000 24255622.00000000 61086036.00000000 19424.48632812  1709129.00000000 1355751.62500000 
0.09500    37910412.00000000 23915834.00000000 60217884.00000000 19011.79101562  1677975.12500000 1331229.00000000 
0.09600    37372352.00000000 23586360.00000000 59375692.00000000 18607.41601562  1647500.62500000 1307240.62500000 
0.09700    36849776.00000000 23266424.00000000 58557448.00000000 18210.76953125  1617679.62500000 1283766.75000000 
0.09800    36341212.00000000 22955584.00000000 57762096.00000000 17822.11718750  1588465.25000000 1260778.37500000 
0.09900    35846040.00000000 22653468.00000000 56988580.00000000 17440.60156250  1559829.25000000 1238242.75000000 
0.10000    35363920.00000000 22359386.00000000 56235100.00000000 17066.03125000  1531723.37500000 1216128.25000000 
0.10100    34893648.00000000 22072906.00000000 55501168.00000000 16698.03515625  1504133.87500000 1194416.50000000 
0.10200    34434684.00000000 21793508.00000000 54784568.00000000 16336.44335938  1477016.87500000 1173074.62500000 
0.10300    33986100.00000000 21520594.00000000 54084804.00000000 15980.79785156  1450359.50000000 1152083.12500000 
0.10400    33547408.00000000 21254208.00000000 53400384.00000000 15631.13867188  1424125.50000000 1131438.87500000 
0.10500    33117802.00000000 20993512.00000000 52730808.00000000 15287.34375000  1398289.00000000 1111110.12500000 
0.10600    32696922.00000000 20738010.00000000 52074148.00000000 14948.90332031  1372845.00000000 1091071.75000000 
0.10700    32283530.00000000 20487634.00000000 51430448.00000000 14615.88574219  1347748.37500000 1071303.25000000 
0.10800    31877550.00000000 20241744.00000000 50798284.00000000 14288.09179688  1322993.62500000 1051812.25000000 
0.10900    31478398.00000000 19999924.00000000 50176784.00000000 13965.46679688  1298575.62500000 1032570.25000000 
0.11000    31085636.00000000 19762254.00000000 49565296.00000000 13647.78515625  1274475.12500000 1013567.68750000 
0.11100    30698732.00000000 19528154.00000000 48963056.00000000 13335.14843750  1250657.25000000 994796.50000000 
0.11200    30317190.00000000 19297318.00000000 48369032.00000000 13027.57226562  1227133.37500000 976247.56250000 
0.11300    29940686.00000000 19069324.00000000 47782832.00000000 12724.77441406  1203891.37500000 957910.25000000 
0.11400    29568792.00000000 18844308.00000000 47203888.00000000 12426.84863281  1180911.87500000 939787.50000000 
0.11500    29201150.00000000 18621866.00000000 46631552.00000000 12133.80664062  1158209.50000000 921860.68750000 
0.11600    28837436.00000000 18401682.00000000 46065244.00000000 11845.58105469  1135762.00000000 904129.50000000 
0.11700    28477274.00000000 18183552.00000000 45504684.00000000 11562.25000000  1113562.75000000 886597.18750000 
0.11800    28120606.00000000 17967242.00000000 44948548.00000000 11283.64160156  1091623.62500000 869250.25000000 
0.11900    27767016.00000000 17752864.00000000 44397468.00000000 11009.97851562  1069924.25000000 852094.56250000 
0.12000    27416446.00000000 17540098.00000000 43851072.00000000 10741.25097656  1048469.93750000 835125.12500000 
0.12100    27068528.00000000 17328856.00000000 43308276.00000000 10477.44238281  1027276.06250000 818355.50000000 
0.12200    26723150.00000000 17118852.00000000 42769444.00000000 10218.57812500  1006320.50000000 801768.00000000 
0.12300    26380346.00000000 16910260.00000000 42234296.00000000 9964.62695312   985622.37500000 785368.93750000 
0.12400    26039596.00000000 16702776.00000000 41702120.00000000 9715.65820312   965174.06250000 769160.62500000 
0.12500    25701306.00000000 16496425.00000000 41173188.00000000 9471.62597656   944974.37500000 753139.50000000 
0.12600    25365000.00000000 16291115.00000000 40647648.00000000 9232.71679688   925035.87500000 737320.31250000 
0.12700    25030864.00000000 16086712.00000000 40124724.00000000 8998.78515625   905359.18750000 721691.56250000 
0.12800    24698708.00000000 15883212.00000000 39604424.00000000 8769.95703125   885930.56250000 706270.75000000 
0.12900    24368602.00000000 15680894.00000000 39086932.00000000 8546.18359375   866781.31250000 691049.00000000 
0.13000    24040276.00000000 15479260.00000000 38572012.00000000 8327.52734375   847896.75000000 676029.18750000 
0.13100    23713986.00000000 15278567.00000000 38060076.00000000 8113.81054688   829277.18750000 661217.81250000 
0.13200    23389574.00000000 15078736.00000000 37550308.00000000 7905.12158203   810938.12500000 646624.12500000 
0.13300    23067068.00000000 14879925.00000000 37043968.00000000 7701.51904297   792867.18750000 632238.25000000 
0.13400    22746662.00000000 14681942.00000000 36540020.00000000 7502.92285156   775086.93750000 618073.87500000 
0.13500    22428370.00000000 14485012.00000000 36038824.00000000 7309.27734375   757584.62500000 604121.50000000 
0.13600    22111964.00000000 14288907.00000000 35540312.00000000 7120.50097656   740372.43750000 590394.06250000 
0.13700    21797626.00000000 14093740.00000000 35044948.00000000 6936.64062500   723450.81250000 576889.06250000 
0.13800    21485280.00000000 13899638.00000000 34552324.00000000 6757.62109375   706816.81250000 563610.50000000 
0.13900    21175502.00000000 13706655.00000000 34063056.00000000 6583.32714844   690475.31250000 550560.93750000 
0.14000    20867612.00000000 13514659.00000000 33576828.00000000 6413.76953125   674432.37500000 537742.56250000 
0.14100    20562396.00000000 13323794.00000000 33093664.00000000 6248.83251953   658681.25000000 525151.31250000 
0.14200    20259208.00000000 13134211.00000000 32614194.00000000 6088.43798828   643224.68750000 512791.59375000 
0.14300    19958572.00000000 12945793.00000000 32137934.00000000 5932.49462891   628067.62500000 500660.68750000 
0.14400    19660268.00000000 12758620.00000000 31665240.00000000 5780.91943359   613199.56250000 488762.00000000 
0.14500    19364912.00000000 12572741.00000000 31196290.00000000 5633.65087891   598635.43750000 477098.96875000 
0.14600    19071854.00000000 12388163.00000000 30731100.00000000 5490.57714844   584363.87500000 465667.68750000 
0.14700    18781632.00000000 12205114.00000000 30270262.00000000 5351.57617188   570385.18750000 454467.68750000 
0.14800    18494134.00000000 12023524.00000000 29812994.00000000 5216.54296875   556697.87500000 443495.09375000 
0.14900    18209400.00000000 11843329.00000000 29359874.00000000 5085.38281250   543300.00000000 432752.00000000 
0.15000    17927404.00000000 11664753.00000000 28910896.00000000 4957.96191406   530188.93750000 422237.34375000 
0.15100    17648568.00000000 11487642.00000000 28466294.00000000 4834.15917969   517364.18750000 411948.25000000 
0.15200    17372498.00000000 11312269.00000000 28026154.00000000 4713.96533203   504820.78125000 401883.62500000 
0.15300    17099268.00000000 11138436.00000000 27590340.00000000 4597.21093750   492554.90625000 392038.28125000 
0.15400    16829234.00000000 10966405.00000000 27159006.00000000 4483.70654297   480560.56250000 382405.93750000 
0.15500    16562553.00000000 10795939.00000000 26732670.00000000 4373.43554688   468840.34375000 372998.62500000 
0.15600    16298656.00000000 10627380.00000000 26310846.00000000 4266.25000000   457381.71875000 363796.28125000 
0.15700    16037996.00000000 10460587.00000000 25893772.00000000 4162.05566406   446195.40625000 354806.56250000 
0.15800    15780355.00000000 10295601.00000000 25481320.00000000 4060.69165039   435254.53125000 346018.75000000 
0.15900    15526022.00000000 10132496.00000000 25073822.00000000 3962.13964844   424574.84375000 337437.34375000 
0.16000    15274863.00000000 9971194.00000000 24671170.00000000 3866.25073242   414134.59375000 329051.12500000 
0.16100    15026962.00000000 9811785.00000000 24273704.00000000 3772.92944336   403942.56250000 320862.81250000 
0.16200    14782159.00000000 9654258.00000000 23881042.00000000 3682.07470703   393988.06250000 312860.59375000 
0.16300    14540719.00000000 9498635.00000000 23493294.00000000 3593.59326172   384268.37500000 305050.03125000 
0.16400    14302573.00000000 9344986.00000000 23110542.00000000 3507.41967773   374771.12500000 297417.09375000 
0.16500    14067589.00000000 9193292.00000000 22733062.00000000 3423.47094727   365498.28125000 289966.78125000 
0.16600    13835767.00000000 9043506.00000000 22360440.00000000 3341.64941406   356442.06250000 282687.18750000 
0.16700    13607253.00000000 8895646.00000000 21992734.00000000 3261.85498047   347595.06250000 275579.09375000 
0.16800    13381931.00000000 8749777.00000000 21630158.00000000 3184.04125977   338955.46875000 268637.00000000 
0.16900    13159872.00000000 8605862.00000000 21272698.00000000 3108.17163086   330517.71875000 261859.39062500 
0.17000    12941019.00000000 8463880.00000000 20920086.00000000 3034.12597656   322276.18750000 255235.39062500 
