# SAXS profile: number of points = 501, q_min = 0, q_max = 0.5, delta_q = 0.001
#    q    intensity 
0.00000    162232064.00000000 101202288.00000000 256270448.00000000 107490.21875000 8352051.50000000 6596432.00000000 
0.00100    162187472.00000000 101171200.00000000 256192848.00000000 107448.89843750 8349145.50000000 6594151.50000000 
0.00200    162046928.00000000 101079912.00000000 255961104.00000000 107326.84375000 8340505.50000000 6587390.00000000 
0.00300    161802944.00000000 100928472.00000000 255574000.00000000 107122.72656250 8326169.50000000 6576049.00000000 
0.00400    161457616.00000000 100715176.00000000 255032960.00000000 106837.77343750 8306086.50000000 6560339.50000000 
0.00500    161012992.00000000 100441328.00000000 254339632.00000000 106472.32812500 8280436.50000000 6540092.50000000 
0.00600    160476752.00000000 100110408.00000000 253498368.00000000 106028.92968750 8249163.00000000 6515487.00000000 
0.00700    159837616.00000000 99720040.00000000 252504592.00000000 105507.92968750 8212411.00000000 6486539.50000000 
0.00800    159113792.00000000 99274136.00000000 251363648.00000000 104910.17968750 8170245.00000000 6453394.00000000 
0.00900    158300800.00000000 98770560.00000000 250082784.00000000 104237.91406250 8122852.00000000 6416124.00000000 
0.01000    157396256.00000000 98210864.00000000 248658496.00000000 103492.96875000 8070226.50000000 6374699.50000000 
0.01100    156401824.00000000 97596856.00000000 247095408.00000000 102678.14843750 8012625.00000000 6329367.00000000 
0.01200    155321536.00000000 96929776.00000000 245401232.00000000 101795.18750000 7950100.00000000 6280150.00000000 
0.01300    154160080.00000000 96211880.00000000 243573824.00000000 100846.19531250 7882881.50000000 6227260.00000000 
0.01400    152920784.00000000 95443920.00000000 241621760.00000000 99834.35937500  7811096.00000000 6170740.00000000 
0.01500    151599040.00000000 94629400.00000000 239547296.00000000 98762.22656250  7734955.00000000 6110856.00000000 
0.01600    150205968.00000000 93767488.00000000 237355024.00000000 97632.48437500  7654644.50000000 6047579.50000000 
0.01700    148740912.00000000 92862144.00000000 235051360.00000000 96448.37500000  7570331.00000000 5981190.00000000 
0.01800    147206864.00000000 91913704.00000000 232641120.00000000 95213.50781250  7482207.00000000 5911850.00000000 
0.01900    145608480.00000000 90925760.00000000 230125312.00000000 93929.86718750  7390519.50000000 5839691.00000000 
0.02000    143949264.00000000 89898744.00000000 227514832.00000000 92602.84375000  7295561.00000000 5764882.50000000 
0.02100    142230976.00000000 88836496.00000000 224811888.00000000 91233.94531250  7197384.00000000 5687579.00000000 
0.02200    140458720.00000000 87739328.00000000 222025424.00000000 89827.14062500  7096364.50000000 5608046.50000000 
0.02300    138637088.00000000 86611576.00000000 219157696.00000000 88385.88281250  6992705.50000000 5526406.50000000 
0.02400    136768176.00000000 85453760.00000000 216216432.00000000 86914.55468750  6886584.50000000 5442785.50000000 
0.02500    134853936.00000000 84269968.00000000 213205344.00000000 85415.65625000  6778300.00000000 5357441.00000000 
0.02600    132904336.00000000 83060800.00000000 210133136.00000000 83892.50000000  6667981.50000000 5270591.00000000 
0.02700    130917576.00000000 81829904.00000000 207006208.00000000 82350.29687500  6555988.00000000 5182365.50000000 
0.02800    128899080.00000000 80578240.00000000 203828432.00000000 80791.16406250  6442543.00000000 5092954.50000000 
0.02900    126853568.00000000 79309640.00000000 200605264.00000000 79218.60937500  6327861.50000000 5002529.00000000 
0.03000    124783096.00000000 78027136.00000000 197344624.00000000 77636.90625000  6212161.00000000 4911356.00000000 
0.03100    122693712.00000000 76730896.00000000 194053728.00000000 76047.97656250  6095700.50000000 4819536.50000000 
0.03200    120588288.00000000 75425416.00000000 190737664.00000000 74456.56250000  5978673.50000000 4727281.00000000 
0.03300    118470208.00000000 74111136.00000000 187398768.00000000 72864.38281250  5861310.00000000 4634730.50000000 
0.03400    116343112.00000000 72790192.00000000 184047760.00000000 71275.37500000  5743848.50000000 4542102.00000000 
0.03500    114211760.00000000 71465280.00000000 180687328.00000000 69692.27343750  5626466.50000000 4449516.50000000 
0.03600    112077800.00000000 70139736.00000000 177324752.00000000 68117.82031250  5509386.50000000 4357148.50000000 
0.03700    109945672.00000000 68814664.00000000 173961216.00000000 66554.88281250  5392750.00000000 4265144.00000000 
0.03800    107819168.00000000 67492120.00000000 170606816.00000000 65005.62500000  5276887.50000000 4173643.25000000 
0.03900    105701192.00000000 66174884.00000000 167268048.00000000 63472.79296875  5161791.50000000 4082839.25000000 
0.04000    103593744.00000000 64864276.00000000 163943056.00000000 61958.40625000  5047788.00000000 3992817.75000000 
0.04100    101502304.00000000 63562044.00000000 160642464.00000000 60464.90625000  4934923.50000000 3903763.50000000 
0.04200    99427760.00000000 62270136.00000000 157367440.00000000 58994.07031250  4823421.50000000 3815725.75000000 
0.04300    97372176.00000000 60990256.00000000 154122864.00000000 57547.65234375  4713422.50000000 3728895.50000000 
0.04400    95339000.00000000 59724108.00000000 150913024.00000000 56127.44921875  4605063.50000000 3643285.75000000 
0.04500    93332016.00000000 58473540.00000000 147744576.00000000 54734.45312500  4498435.00000000 3559059.00000000 
0.04600    91352360.00000000 57238396.00000000 144617920.00000000 53370.77734375  4393626.00000000 3476301.00000000 
0.04700    89400840.00000000 56021740.00000000 141537664.00000000 52037.07812500  4290821.50000000 3395051.50000000 
0.04800    87482304.00000000 54824572.00000000 138505248.00000000 50733.96093750  4190076.00000000 3315452.50000000 
0.04900    85595784.00000000 53647824.00000000 135527056.00000000 49462.77734375  4091454.25000000 3237504.00000000 
0.05000    83744808.00000000 52492292.00000000 132600616.00000000 48223.72265625  3995020.00000000 3161297.25000000 
0.05100    81929784.00000000 51359516.00000000 129733680.00000000 47018.33984375  3900849.50000000 3086873.50000000 
0.05200    80152552.00000000 50249316.00000000 126924936.00000000 45846.16406250  3809003.25000000 3014249.50000000 
0.05300    78414584.00000000 49163840.00000000 124177320.00000000 44707.43359375  3719492.75000000 2943496.50000000 
0.05400    76717360.00000000 48102676.00000000 121493208.00000000 43602.55078125  3632416.50000000 2874592.75000000 
0.05500    75060800.00000000 47067068.00000000 118872384.00000000 42531.26953125  3547689.50000000 2807627.75000000 
0.05600    73445280.00000000 46057124.00000000 116318512.00000000 41493.44531250  3465422.50000000 2742570.00000000 
0.05700    71871864.00000000 45073584.00000000 113830568.00000000 40488.32031250  3385568.25000000 2679420.00000000 
0.05800    70341928.00000000 44116264.00000000 111409472.00000000 39516.66796875  3308106.50000000 2618168.50000000 
0.05900    68854552.00000000 43185824.00000000 109057224.00000000 38577.33984375  3233101.00000000 2558836.50000000 
0.06000    67410456.00000000 42282436.00000000 106772200.00000000 37669.45312500  3160451.50000000 2501379.25000000 
0.06100    66008828.00000000 41405660.00000000 104556704.00000000 36792.67968750  3090185.25000000 2445783.50000000 
0.06200    64651164.00000000 40555896.00000000 102407464.00000000 35945.88671875  3022230.25000000 2392056.00000000 
0.06300    63336340.00000000 39733060.00000000 100327104.00000000 35129.28906250  2956582.75000000 2340127.50000000 
0.06400    62063836.00000000 38936648.00000000 98314408.00000000 34340.65234375  2893170.50000000 2289967.00000000 
0.06500    60833728.00000000 38166816.00000000 96367360.00000000 33579.78906250  2831944.00000000 2241545.75000000 
0.06600    59644960.00000000 37423576.00000000 94488032.00000000 32846.07812500  2772848.00000000 2194840.00000000 
0.06700    58496968.00000000 36705504.00000000 92671768.00000000 32137.76757812  2715853.50000000 2149760.00000000 
0.06800    57389404.00000000 36012708.00000000 90920272.00000000 31454.05078125  2660839.50000000 2106314.50000000 
0.06900    56321036.00000000 35345048.00000000 89230728.00000000 30794.11523438  2607818.25000000 2064390.12500000 
0.07000    55291748.00000000 34702096.00000000 87603600.00000000 30156.39257812  2556642.75000000 2023957.75000000 
0.07100    54299552.00000000 34081944.00000000 86035360.00000000 29540.03320312  2507287.50000000 1984974.00000000 
0.07200    53344112.00000000 33486236.00000000 84525560.00000000 28944.23437500  2459668.50000000 1947334.37500000 
0.07300    52424568.00000000 32912414.00000000 83072592.00000000 28367.57617188  2413675.25000000 1911046.00000000 
0.07400    51538816.00000000 32360546.00000000 81674224.00000000 27808.88085938  2369301.25000000 1876002.87500000 
0.07500    50687188.00000000 31829424.00000000 80328960.00000000 27267.51953125  2326438.25000000 1842165.62500000 
0.07600    49866820.00000000 31318550.00000000 79034760.00000000 26742.15820312  2284977.50000000 1809459.75000000 
0.07700    49077288.00000000 30827990.00000000 77789472.00000000 26231.90625000  2244892.75000000 1777833.87500000 
0.07800    48317372.00000000 30355874.00000000 76591096.00000000 25735.58593750  2206067.50000000 1747221.62500000 
0.07900    47585624.00000000 29901950.00000000 75438304.00000000 25252.64648438  2168460.00000000 1717580.25000000 
0.08000    46881300.00000000 29465354.00000000 74329504.00000000 24781.76367188  2131969.25000000 1688840.12500000 
0.08100    46202336.00000000 29045030.00000000 73261328.00000000 24322.62890625  2096565.62500000 1660942.62500000 
0.08200    45547920.00000000 28640700.00000000 72232072.00000000 23873.82421875  2062132.75000000 1633835.62500000 
0.08300    44916792.00000000 28251216.00000000 71240616.00000000 23435.03320312  2028632.25000000 1607460.75000000 
0.08400    44307464.00000000 27875756.00000000 70284056.00000000 23005.14648438  1995975.50000000 1581770.25000000 
0.08500    43719352.00000000 27513594.00000000 69360712.00000000 22584.08203125  1964135.50000000 1556724.75000000 
0.08600    43150040.00000000 27163714.00000000 68468392.00000000 22170.54492188  1933031.37500000 1532252.00000000 
0.08700    42599908.00000000 26826012.00000000 67605192.00000000 21764.58398438  1902602.87500000 1508337.50000000 
0.08800    42065848.00000000 26499250.00000000 66770092.00000000 21365.07031250  1872785.37500000 1484900.62500000 
0.08900    41548408.00000000 26182688.00000000 65960208.00000000 20972.28320312  1843562.50000000 1461929.75000000 
0.09000    41045272.00000000 25875802.00000000 65174248.00000000 20585.13281250  1814874.12500000 1439379.75000000 
0.09100    40556180.00000000 25577816.00000000 64410616.00000000 20203.65429688  1786663.37500000 1417207.00000000 
0.09200    40079856.00000000 25287896.00000000 63666680.00000000 19827.33593750  1758892.62500000 1395400.12500000 
0.09300    39615048.00000000 25005488.00000000 62941884.00000000 19456.06835938  1731516.62500000 1373896.75000000 
0.09400    39160976.00000000 24729980.00000000 62234280.00000000 19089.24804688  1704531.12500000 1352680.87500000 
0.09500    38716392.00000000 24460690.00000000 61542348.00000000 18726.95507812  1677874.75000000 1331736.12500000 
0.09600    38281404.00000000 24197452.00000000 60864364.00000000 18369.14453125  1651531.12500000 1311031.37500000 
0.09700    37854140.00000000 23939328.00000000 60200428.00000000 18015.45507812  1625472.12500000 1290536.62500000 
0.09800    37434144.00000000 23685768.00000000 59547264.00000000 17665.83593750  1599659.75000000 1270260.00000000 
0.09900    37020876.00000000 23436524.00000000 58904972.00000000 17320.31445312  1574117.87500000 1250160.75000000 
0.10000    36613256.00000000 23190668.00000000 58271860.00000000 16978.60937500  1548782.00000000 1230231.50000000 
0.10100    36211048.00000000 22948520.00000000 57647324.00000000 16641.05664062  1523667.37500000 1210466.25000000 
0.10200    35813388.00000000 22709094.00000000 57030012.00000000 16307.54003906  1498736.25000000 1190854.62500000 
0.10300    35420248.00000000 22472282.00000000 56418632.00000000 15977.79882812  1474012.62500000 1171381.37500000 
0.10400    35030536.00000000 22237334.00000000 55813564.00000000 15652.30761719  1449464.50000000 1152038.12500000 
0.10500    34644004.00000000 22004618.00000000 55213112.00000000 15330.81250000  1425082.37500000 1132826.75000000 
0.10600    34259956.00000000 21773434.00000000 54616660.00000000 15013.36035156  1400875.75000000 1113737.00000000 
0.10700    33878492.00000000 21543590.00000000 54024112.00000000 14700.34082031  1376842.50000000 1094783.75000000 
0.10800    33499250.00000000 21314540.00000000 53434020.00000000 14391.53417969  1352993.75000000 1075939.87500000 
0.10900    33121282.00000000 21086842.00000000 52846504.00000000 14086.94140625  1329297.37500000 1057226.87500000 
0.11000    32744722.00000000 20859454.00000000 52261200.00000000 13786.98535156  1305773.25000000 1038632.12500000 
0.11100    32369786.00000000 20632624.00000000 51677328.00000000 13491.46289062  1282447.00000000 1020181.06250000 
0.11200    31995586.00000000 20406192.00000000 51094612.00000000 13200.51367188  1259280.37500000 1001856.43750000 
0.11300    31622182.00000000 20180382.00000000 50513108.00000000 12914.28027344  1236303.75000000 983665.56250000 
0.11400    31249586.00000000 19954276.00000000 49932612.00000000 12632.74804688  1213524.12500000 965614.31250000 
0.11500    30877688.00000000 19728396.00000000 49352424.00000000 12355.96777344  1190926.87500000 947713.50000000 
0.11600    30506510.00000000 19502348.00000000 48772516.00000000 12084.00390625  1168547.25000000 929962.75000000 
0.11700    30135666.00000000 19276402.00000000 48193676.00000000 11816.82031250  1146383.25000000 912377.75000000 
0.11800    29764976.00000000 19050476.00000000 47614328.00000000 11554.60449219  1124427.87500000 894940.00000000 
0.11900    29395346.00000000 18824600.00000000 47035428.00000000 11297.28515625  1102690.12500000 877671.56250000 
0.12000    29025948.00000000 18598358.00000000 46456972.00000000 11044.87695312  1081182.37500000 860583.06250000 
0.12100    28656932.00000000 18372112.00000000 45879176.00000000 10797.40527344  1059931.87500000 843678.00000000 
0.12200    28288788.00000000 18145936.00000000 45301528.00000000 10554.77441406  1038912.62500000 826955.25000000 
0.12300    27921068.00000000 17919670.00000000 44724488.00000000 10317.04296875  1018143.06250000 810425.75000000 
0.12400    27554248.00000000 17693384.00000000 44147804.00000000 10084.15820312  997638.43750000 794090.00000000 
0.12500    27188040.00000000 17467300.00000000 43572128.00000000 9855.90820312   977382.18750000 777955.62500000 
0.12600    26822730.00000000 17241516.00000000 42997124.00000000 9632.52929688   957403.50000000 762031.68750000 
0.12700    26458364.00000000 17015680.00000000 42423476.00000000 9413.85351562   937696.50000000 746314.06250000 
0.12800    26095070.00000000 16790252.00000000 41851084.00000000 9199.70605469   918266.93750000 730817.43750000 
0.12900    25733058.00000000 16565447.00000000 41279848.00000000 8990.16992188   899117.06250000 715530.87500000 
0.13000    25372262.00000000 16340859.00000000 40710300.00000000 8784.93750000   880247.68750000 700467.87500000 
0.13100    25013032.00000000 16116780.00000000 40142972.00000000 8584.08300781   861660.50000000 685624.62500000 
0.13200    24655098.00000000 15893266.00000000 39577184.00000000 8387.58691406   843368.18750000 671013.93750000 
0.13300    24299384.00000000 15670598.00000000 39013812.00000000 8195.17578125   825350.75000000 656627.31250000 
0.13400    23944884.00000000 15448754.00000000 38452676.00000000 8006.79589844   807639.37500000 642467.00000000 
0.13500    23592600.00000000 15227770.00000000 37894580.00000000 7822.44775391   790220.75000000 628535.37500000 
0.13600    23242490.00000000 15007676.00000000 37338988.00000000 7641.85888672   773081.12500000 614840.12500000 
0.13700    22894358.00000000 14788678.00000000 36786456.00000000 7465.01123047   756238.06250000 601372.06250000 
0.13800    22548666.00000000 14570809.00000000 36237856.00000000 7291.81396484   739681.00000000 588131.93750000 
0.13900    22205394.00000000 14354208.00000000 35691988.00000000 7122.20800781   723408.68750000 575119.37500000 
0.14000    21864356.00000000 14138812.00000000 35149896.00000000 6955.91748047   707425.75000000 562342.12500000 
0.14100    21526248.00000000 13924981.00000000 34612272.00000000 6793.07812500   691727.81250000 549787.12500000 
0.14200    21190800.00000000 13712643.00000000 34078388.00000000 6633.42968750   676310.75000000 537454.62500000 
0.14300    20858340.00000000 13501721.00000000 33548516.00000000 6476.93115234   661166.18750000 525345.25000000 
0.14400    20528682.00000000 13292493.00000000 33023264.00000000 6323.50195312   646293.18750000 513454.65625000 
0.14500    20202118.00000000 13084991.00000000 32502498.00000000 6173.04541016   631702.25000000 501787.25000000 
0.14600    19878348.00000000 12879147.00000000 31986352.00000000 6025.54736328   617378.50000000 490335.12500000 
0.14700    19558120.00000000 12675248.00000000 31475240.00000000 5880.89794922   603322.62500000 479098.37500000 
0.14800    19240984.00000000 12473264.00000000 30968868.00000000 5738.91601562   589518.81250000 468069.62500000 
0.14900    18927114.00000000 12273110.00000000 30467810.00000000 5599.71728516   575979.87500000 457247.09375000 
0.15000    18616772.00000000 12075021.00000000 29971762.00000000 5463.19238281   562694.75000000 446633.65625000 
0.15100    18309918.00000000 11878898.00000000 29481152.00000000 5329.30078125   549657.56250000 436218.71875000 
0.15200    18006558.00000000 11684964.00000000 28996026.00000000 5197.97558594   536870.00000000 426005.81250000 
0.15300    17706746.00000000 11493105.00000000 28516488.00000000 5069.17138672   524319.06250000 415985.81250000 
0.15400    17410458.00000000 11303434.00000000 28042284.00000000 4942.85791016   512010.06250000 406158.78125000 
0.15500    17117786.00000000 11116020.00000000 27573918.00000000 4819.07421875   499940.71875000 396520.84375000 
0.15600    16828848.00000000 10930797.00000000 27111098.00000000 4697.67724609   488094.75000000 387069.59375000 
0.15700    16543648.00000000 10747873.00000000 26654558.00000000 4578.85449219   476480.21875000 377805.50000000 
0.15800    16262200.00000000 10567079.00000000 26203376.00000000 4462.37060547   465089.09375000 368714.71875000 
0.15900    15984453.00000000 10388779.00000000 25758202.00000000 4348.30175781   453918.43750000 359806.40625000 
0.16000    15710363.00000000 10212679.00000000 25319074.00000000 4236.66992188   442965.00000000 351070.50000000 
0.16100    15440131.00000000 10039091.00000000 24885962.00000000 4127.46533203   432229.46875000 342506.81250000 
0.16200    15173707.00000000 9867706.00000000 24458686.00000000 4020.62158203   421700.31250000 334113.21875000 
0.16300    14911094.00000000 9698757.00000000 24037544.00000000 3916.19360352   411376.31250000 325886.46875000 
0.16400    14652305.00000000 9532208.00000000 23622250.00000000 3814.16772461   401265.28125000 317818.18750000 
0.16500    14397121.00000000 9367961.00000000 23213032.00000000 3714.54711914   391351.84375000 309921.31250000 
0.16600    14145983.00000000 9205967.00000000 22809692.00000000 3617.28271484   381639.96875000 302179.71875000 
0.16700    13898457.00000000 9046586.00000000 22412234.00000000 3522.38012695   372122.09375000 294589.68750000 
0.16800    13654603.00000000 8889391.00000000 22021030.00000000 3429.90234375   362795.06250000 287159.43750000 
0.16900    13414636.00000000 8734645.00000000 21635876.00000000 3339.82666016   353669.00000000 279882.40625000 
0.17000    13178426.00000000 8582312.00000000 21256460.00000000 3252.08984375   344724.15625000 272748.43750000 
