# SAXS profile: number of points = 501, q_min = 0, q_max = 0.5, delta_q = 0.001
#    q    intensity 
0.00000    162238032.00000000 101201392.00000000 256271616.00000000 103478.25781250 8194706.00000000 6472131.50000000 
0.00100    162210960.00000000 101185432.00000000 256229904.00000000 103456.58593750 8193122.50000000 6470947.50000000 
0.00200    162133216.00000000 101136232.00000000 256104304.00000000 103391.73437500 8188496.00000000 6467275.00000000 
0.00300    162000112.00000000 101054064.00000000 255895776.00000000 103283.17968750 8180774.50000000 6461220.00000000 
0.00400    161814448.00000000 100939656.00000000 255602256.00000000 103131.21093750 8169938.00000000 6452753.50000000 
0.00500    161573824.00000000 100792440.00000000 255227232.00000000 102936.79687500 8156085.50000000 6441865.00000000 
0.00600    161282064.00000000 100612528.00000000 254768608.00000000 102699.14843750 8139141.00000000 6428565.50000000 
0.00700    160936336.00000000 100400856.00000000 254228992.00000000 102419.02343750 8119201.50000000 6412900.50000000 
0.00800    160539152.00000000 100156496.00000000 253605232.00000000 102097.02343750 8096215.00000000 6394874.50000000 
0.00900    160089888.00000000 99880880.00000000 252901536.00000000 101732.81250000 8070247.00000000 6374480.00000000 
0.01000    159588496.00000000 99573656.00000000 252118816.00000000 101327.50000000 8041335.00000000 6351791.00000000 
0.01100    159037888.00000000 99235552.00000000 251255376.00000000 100881.17187500 8009473.00000000 6326810.00000000 
0.01200    158436480.00000000 98866104.00000000 250312288.00000000 100394.98437500 7974742.50000000 6299515.00000000 
0.01300    157786000.00000000 98466592.00000000 249291488.00000000 99868.61718750  7937139.00000000 6269991.50000000 
0.01400    157086592.00000000 98036256.00000000 248195216.00000000 99303.13281250  7896721.00000000 6238292.00000000 
0.01500    156339248.00000000 97576472.00000000 247021888.00000000 98699.07812500  7853523.50000000 6204367.50000000 
0.01600    155543456.00000000 97087216.00000000 245773232.00000000 98057.31250000  7807600.50000000 6168330.00000000 
0.01700    154699760.00000000 96569096.00000000 244452096.00000000 97378.57031250  7759022.50000000 6130203.00000000 
0.01800    153811008.00000000 96023176.00000000 243059488.00000000 96663.98437500  7707805.50000000 6089989.00000000 
0.01900    152877472.00000000 95448944.00000000 241594800.00000000 95913.53906250  7654032.50000000 6047764.50000000 
0.02000    151898704.00000000 94847416.00000000 240060480.00000000 95128.46875000  7597709.50000000 6003561.50000000 
0.02100    150877824.00000000 94219872.00000000 238460048.00000000 94310.07812500  7538972.50000000 5957431.50000000 
0.02200    149814112.00000000 93565952.00000000 236790784.00000000 93458.88281250  7477831.50000000 5909422.00000000 
0.02300    148708448.00000000 92886520.00000000 235057440.00000000 92576.00000000  7414351.50000000 5859575.00000000 
0.02400    147562928.00000000 92181728.00000000 233260480.00000000 91662.64843750  7348649.00000000 5807953.50000000 
0.02500    146379152.00000000 91453000.00000000 231401744.00000000 90719.31250000  7280682.50000000 5754608.00000000 
0.02600    145155776.00000000 90701600.00000000 229483952.00000000 89747.89843750  7210662.50000000 5699624.50000000 
0.02700    143896544.00000000 89926264.00000000 227508976.00000000 88748.23437500  7138539.00000000 5642985.50000000 
0.02800    142601072.00000000 89129744.00000000 225476944.00000000 87722.32031250  7064480.50000000 5584812.50000000 
0.02900    141271488.00000000 88310952.00000000 223389984.00000000 86671.36718750  6988520.50000000 5525124.00000000 
0.03000    139907712.00000000 87472272.00000000 221251760.00000000 85596.33593750  6910692.00000000 5464001.00000000 
0.03100    138512032.00000000 86613400.00000000 219061200.00000000 84498.64062500  6831137.00000000 5401523.50000000 
0.03200    137085504.00000000 85735776.00000000 216823200.00000000 83378.62500000  6749925.50000000 5337692.50000000 
0.03300    135630048.00000000 84839848.00000000 214539632.00000000 82238.27343750  6667130.00000000 5272655.50000000 
0.03400    134146184.00000000 83926280.00000000 212210480.00000000 81078.64843750  6582815.00000000 5206411.00000000 
0.03500    132635376.00000000 82995456.00000000 209839040.00000000 79901.04687500  6497079.00000000 5139026.50000000 
0.03600    131099392.00000000 82049624.00000000 207427744.00000000 78706.75000000  6410033.50000000 5070619.50000000 
0.03700    129538832.00000000 81088984.00000000 204978976.00000000 77496.73437500  6321710.00000000 5001188.50000000 
0.03800    127955520.00000000 80113000.00000000 202492672.00000000 76272.21093750  6232227.00000000 4930844.50000000 
0.03900    126350704.00000000 79124880.00000000 199974032.00000000 75034.78906250  6141621.00000000 4859634.00000000 
0.04000    124726072.00000000 78123584.00000000 197423360.00000000 73785.25000000  6050042.50000000 4787630.50000000 
0.04100    123083048.00000000 77110648.00000000 194843168.00000000 72525.61718750  5957517.00000000 4714900.00000000 
0.04200    121422720.00000000 76087312.00000000 192235568.00000000 71256.08593750  5864221.50000000 4641519.00000000 
0.04300    119745688.00000000 75053600.00000000 189602784.00000000 69978.98437500  5770139.50000000 4567521.00000000 
0.04400    118055240.00000000 74010592.00000000 186946976.00000000 68694.78125000  5675384.00000000 4493014.50000000 
0.04500    116351328.00000000 72959912.00000000 184270416.00000000 67405.14843750  5580105.00000000 4418048.50000000 
0.04600    114635592.00000000 71901304.00000000 181574672.00000000 66110.72656250  5484263.50000000 4342695.50000000 
0.04700    112909848.00000000 70836640.00000000 178864144.00000000 64813.42578125  5388058.00000000 4266989.50000000 
0.04800    111175224.00000000 69766072.00000000 176138176.00000000 63514.09765625  5291539.00000000 4191034.25000000 
0.04900    109433144.00000000 68691200.00000000 173401360.00000000 62214.09375000  5194766.00000000 4114881.25000000 
0.05000    107684784.00000000 67611848.00000000 170653296.00000000 60914.33984375  5097816.50000000 4038570.75000000 
0.05100    105931736.00000000 66528900.00000000 167896880.00000000 59615.75000000  5000801.00000000 3962206.25000000 
0.05200    104174752.00000000 65443700.00000000 165135840.00000000 58320.09375000  4903756.50000000 3885818.00000000 
0.05300    102416008.00000000 64357208.00000000 162370640.00000000 57028.23437500  4806804.50000000 3809490.00000000 
0.05400    100656016.00000000 63270068.00000000 159603456.00000000 55740.80078125  4709983.00000000 3733251.50000000 
0.05500    98896784.00000000 62182392.00000000 156837264.00000000 54459.36718750  4613406.50000000 3657205.50000000 
0.05600    97138960.00000000 61095596.00000000 154073888.00000000 53184.72656250  4517140.00000000 3581366.00000000 
0.05700    95384720.00000000 60010432.00000000 151313424.00000000 51917.93359375  4421241.00000000 3505810.00000000 
0.05800    93633944.00000000 58927700.00000000 148560016.00000000 50659.98046875  4325794.50000000 3430606.50000000 
0.05900    91889232.00000000 57848052.00000000 145814512.00000000 49411.68750000  4230813.50000000 3355792.50000000 
0.06000    90150608.00000000 56772088.00000000 143077792.00000000 48174.07031250  4136444.25000000 3281396.50000000 
0.06100    88419440.00000000 55700360.00000000 140354512.00000000 46948.20312500  4042719.25000000 3207520.75000000 
0.06200    86697392.00000000 54634024.00000000 137644192.00000000 45734.73046875  3949692.75000000 3134182.25000000 
0.06300    84985600.00000000 53573488.00000000 134949264.00000000 44534.14843750  3857448.50000000 3061433.75000000 
0.06400    83284456.00000000 52518900.00000000 132270568.00000000 43347.48437500  3765992.50000000 2989326.50000000 
0.06500    81595120.00000000 51472360.00000000 129610464.00000000 42175.62109375  3675450.25000000 2917895.75000000 
0.06600    79918584.00000000 50432948.00000000 126970600.00000000 41019.30859375  3585841.00000000 2847199.50000000 
0.06700    78256160.00000000 49401692.00000000 124351408.00000000 39878.96875000  3497230.25000000 2777265.50000000 
0.06800    76608880.00000000 48379752.00000000 121756016.00000000 38755.44531250  3409639.00000000 2708157.50000000 
0.06900    74977016.00000000 47367188.00000000 119184952.00000000 37648.98828125  3323154.50000000 2639890.50000000 
0.07000    73362360.00000000 46364500.00000000 116639680.00000000 36560.48828125  3237788.00000000 2572488.25000000 
0.07100    71764000.00000000 45372164.00000000 114121240.00000000 35490.51953125  3153604.50000000 2506002.50000000 
0.07200    70184816.00000000 44390976.00000000 111631320.00000000 34439.08593750  3070625.75000000 2440477.25000000 
0.07300    68624640.00000000 43421392.00000000 109170816.00000000 33407.31640625  2988919.00000000 2375937.25000000 
0.07400    67083632.00000000 42463412.00000000 106741344.00000000 32395.12695312  2908518.75000000 2312379.00000000 
0.07500    65563236.00000000 41517872.00000000 104343192.00000000 31402.89257812  2829400.25000000 2249878.25000000 
0.07600    64063920.00000000 40585240.00000000 101977408.00000000 30431.21484375  2751677.25000000 2188426.75000000 
0.07700    62586544.00000000 39665628.00000000 99645920.00000000 29480.46679688  2675335.50000000 2128041.50000000 
0.07800    61131236.00000000 38759512.00000000 97349208.00000000 28550.45117188  2600387.00000000 2068780.00000000 
0.07900    59698540.00000000 37867256.00000000 95087936.00000000 27641.91796875  2526869.75000000 2010637.62500000 
0.08000    58289496.00000000 36988940.00000000 92862704.00000000 26754.50390625  2454833.50000000 1953631.50000000 
0.08100    56904128.00000000 36125296.00000000 90674384.00000000 25888.87695312  2384254.75000000 1897777.37500000 
0.08200    55542552.00000000 35276228.00000000 88524608.00000000 25044.81445312  2315174.50000000 1843093.25000000 
0.08300    54205760.00000000 34442228.00000000 86412024.00000000 24222.59179688  2247610.75000000 1789588.75000000 
0.08400    52893800.00000000 33623016.00000000 84338536.00000000 23422.16210938  2181561.25000000 1737275.12500000 
0.08500    51607176.00000000 32819690.00000000 82304712.00000000 22643.70117188  2117041.75000000 1686157.62500000 
0.08600    50346000.00000000 32031604.00000000 80310664.00000000 21886.95898438  2054046.12500000 1636248.75000000 
0.08700    49110220.00000000 31259276.00000000 78356896.00000000 21152.14843750  1992616.62500000 1587542.75000000 
0.08800    47900600.00000000 30502628.00000000 76443104.00000000 20438.83203125  1932706.37500000 1540051.62500000 
0.08900    46717060.00000000 29762102.00000000 74570568.00000000 19747.27929688  1874366.87500000 1493771.50000000 
0.09000    45559604.00000000 29037528.00000000 72738872.00000000 19077.20703125  1817561.25000000 1448702.75000000 
0.09100    44428552.00000000 28329096.00000000 70947632.00000000 18428.56250000  1762297.87500000 1404853.12500000 
0.09200    43323864.00000000 27636746.00000000 69199072.00000000 17800.90234375  1708573.50000000 1362197.25000000 
0.09300    42245404.00000000 26960536.00000000 67490568.00000000 17194.28515625  1656386.50000000 1320759.12500000 
0.09400    41193248.00000000 26300590.00000000 65823972.00000000 16608.08593750  1605717.75000000 1280507.25000000 
0.09500    40167604.00000000 25656796.00000000 64198584.00000000 16042.61328125  1556560.50000000 1241441.12500000 
0.09600    39167904.00000000 25029188.00000000 62614020.00000000 15497.21484375  1508898.00000000 1203559.62500000 
0.09700    38194780.00000000 24417568.00000000 61071036.00000000 14971.65136719  1462720.12500000 1166849.12500000 
0.09800    37247600.00000000 23822096.00000000 59569080.00000000 14465.67968750  1418021.87500000 1131290.87500000 
0.09900    36326448.00000000 23242522.00000000 58107384.00000000 13978.85156250  1374775.00000000 1096884.00000000 
0.10000    35430788.00000000 22678792.00000000 56685864.00000000 13510.89355469  1332962.00000000 1063598.00000000 
0.10100    34560896.00000000 22130830.00000000 55305056.00000000 13061.42480469  1292560.37500000 1031432.25000000 
0.10200    33716064.00000000 21598304.00000000 53963132.00000000 12629.98632812  1253558.12500000 1000366.06250000 
0.10300    32896358.00000000 21081408.00000000 52661124.00000000 12216.11523438  1215916.62500000 970374.50000000 
0.10400    32101216.00000000 20579694.00000000 51397740.00000000 11819.61035156  1179632.50000000 941453.18750000 
0.10500    31330910.00000000 20093150.00000000 50173244.00000000 11439.96972656  1144669.75000000 913575.12500000 
0.10600    30584232.00000000 19621318.00000000 48986228.00000000 11076.50781250  1110998.75000000 886708.31250000 
0.10700    29861672.00000000 19164562.00000000 47836584.00000000 10729.15527344  1078608.00000000 860854.00000000 
0.10800    29162298.00000000 18722180.00000000 46723940.00000000 10397.20996094  1047446.87500000 835976.93750000 
0.10900    28485880.00000000 18293980.00000000 45647508.00000000 10080.35937500  1017509.43750000 812066.68750000 
0.11000    27832472.00000000 17879846.00000000 44606852.00000000 9778.04296875   988752.75000000 789088.62500000 
0.11100    27201008.00000000 17479386.00000000 43601288.00000000 9489.76269531   961148.93750000 767023.56250000 
0.11200    26591224.00000000 17092722.00000000 42629792.00000000 9215.07128906   934669.18750000 745850.31250000 
0.11300    26002996.00000000 16719050.00000000 41692116.00000000 8953.51757812   909287.43750000 725539.62500000 
0.11400    25435444.00000000 16358525.00000000 40787360.00000000 8704.60839844   884970.00000000 706075.06250000 
0.11500    24888474.00000000 16010761.00000000 39914684.00000000 8467.93554688   861678.87500000 687423.18750000 
0.11600    24361254.00000000 15675286.00000000 39073584.00000000 8242.82128906   839384.68750000 669565.93750000 
0.11700    23853536.00000000 15352116.00000000 38263396.00000000 8029.01269531   818060.68750000 652475.18750000 
0.11800    23364734.00000000 15040607.00000000 37482836.00000000 7825.86523438   797662.00000000 636124.18750000 
0.11900    22894534.00000000 14740688.00000000 36731468.00000000 7632.96582031   778165.75000000 620485.31250000 
0.12000    22441970.00000000 14451906.00000000 36008536.00000000 7449.84716797   759537.93750000 605539.75000000 
0.12100    22007158.00000000 14174140.00000000 35313212.00000000 7276.13623047   741751.68750000 591259.50000000 
0.12200    21588958.00000000 13906931.00000000 34644516.00000000 7111.24121094   724761.81250000 577617.12500000 
0.12300    21187364.00000000 13649908.00000000 34001824.00000000 6954.74560547   708541.31250000 564588.81250000 
0.12400    20801434.00000000 13402863.00000000 33384064.00000000 6806.24658203   693059.43750000 552147.75000000 
0.12500    20430738.00000000 13165518.00000000 32790674.00000000 6665.28076172   678286.50000000 540264.93750000 
0.12600    20074882.00000000 12937437.00000000 32220966.00000000 6531.48193359   664187.56250000 528930.87500000 
0.12700    19733420.00000000 12718290.00000000 31673660.00000000 6404.36767578   650734.68750000 518101.68750000 
0.12800    19405378.00000000 12507825.00000000 31148186.00000000 6283.55712891   637885.93750000 507765.53125000 
0.12900    19090672.00000000 12305743.00000000 30643638.00000000 6168.60058594   625623.31250000 497897.53125000 
0.13000    18788780.00000000 12111710.00000000 30159176.00000000 6059.21875000   613911.50000000 488463.53125000 
0.13100    18498794.00000000 11925183.00000000 29694424.00000000 5954.93505859   602719.00000000 479451.87500000 
0.13200    18220472.00000000 11746180.00000000 29247842.00000000 5855.49658203   592024.31250000 470834.56250000 
0.13300    17953444.00000000 11574262.00000000 28819208.00000000 5760.43652344   581791.31250000 462591.31250000 
0.13400    17696890.00000000 11409074.00000000 28407414.00000000 5669.41748047   571993.12500000 454700.93750000 
0.13500    17450590.00000000 11250271.00000000 28011888.00000000 5582.30322266   562610.62500000 447141.28125000 
0.13600    17213852.00000000 11097645.00000000 27631678.00000000 5498.59960938   553608.62500000 439889.81250000 
0.13700    16986234.00000000 10950883.00000000 27266094.00000000 5418.06054688   544967.06250000 432923.78125000 
0.13800    16767326.00000000 10809711.00000000 26914430.00000000 5340.39599609   536656.25000000 426233.56250000 
0.13900    16556693.00000000 10673822.00000000 26575882.00000000 5265.35253906   528656.81250000 419791.65625000 
0.14000    16353691.00000000 10542836.00000000 26250056.00000000 5192.64648438   520947.31250000 413581.96875000 
0.14100    16158146.00000000 10416650.00000000 25935704.00000000 5122.03564453   513499.65625000 407586.43750000 
0.14200    15969466.00000000 10294898.00000000 25632448.00000000 5053.33056641   506291.59375000 401789.65625000 
0.14300    15787185.00000000 10177278.00000000 25339828.00000000 4986.28125000   499310.12500000 396172.62500000 
0.14400    15610989.00000000 10063604.00000000 25056510.00000000 4920.66064453   492525.15625000 390719.53125000 
0.14500    15440358.00000000 9953628.00000000 24782710.00000000 4856.32177734   485928.09375000 385416.21875000 
0.14600    15275133.00000000 9847036.00000000 24517274.00000000 4793.09228516   479494.09375000 380251.43750000 
0.14700    15114764.00000000 9743657.00000000 24259736.00000000 4730.78613281   473210.12500000 375207.15625000 
0.14800    14958851.00000000 9643212.00000000 24009474.00000000 4669.20263672   467054.12500000 370271.65625000 
0.14900    14807160.00000000 9545532.00000000 23765942.00000000 4608.23144531   461016.81250000 365430.90625000 
0.15000    14659300.00000000 9450380.00000000 23528882.00000000 4547.78417969   455077.81250000 360673.93750000 
0.15100    14514907.00000000 9357567.00000000 23297324.00000000 4487.74121094   449227.65625000 355992.12500000 
0.15200    14373758.00000000 9266852.00000000 23070942.00000000 4428.00292969   443456.18750000 351373.65625000 
0.15300    14235458.00000000 9178101.00000000 22849562.00000000 4368.44482422   437745.25000000 346805.00000000 
0.15400    14099850.00000000 9091093.00000000 22632172.00000000 4308.93554688   432083.12500000 342284.56250000 
0.15500    13966542.00000000 9005638.00000000 22418730.00000000 4249.50244141   426463.53125000 337797.96875000 
0.15600    13835183.00000000 8921597.00000000 22208724.00000000 4190.04394531   420871.68750000 333340.40625000 
0.15700    13705841.00000000 8838841.00000000 22001834.00000000 4130.54638672   415311.40625000 328905.18750000 
0.15800    13577947.00000000 8757138.00000000 21797516.00000000 4070.84228516   409757.87500000 324480.65625000 
0.15900    13451498.00000000 8676470.00000000 21595466.00000000 4011.07202148   404214.93750000 320064.00000000 
0.16000    13326231.00000000 8596578.00000000 21395348.00000000 3951.10644531   398673.37500000 315653.06250000 
0.16100    13202014.00000000 8517426.00000000 21196974.00000000 3890.96777344   393126.78125000 311241.43750000 
0.16200    13078461.00000000 8438813.00000000 21000140.00000000 3830.62646484   387572.37500000 306820.40625000 
0.16300    12955594.00000000 8360734.00000000 20804168.00000000 3770.07226562   382000.93750000 302393.78125000 
0.16400    12833151.00000000 8282902.50000000 20609224.00000000 3709.35668945   376413.53125000 297952.96875000 
0.16500    12711086.00000000 8205455.50000000 20414658.00000000 3648.46166992   370804.53125000 293496.06250000 
0.16600    12589164.00000000 8128150.00000000 20220580.00000000 3587.41699219   365175.93750000 289022.25000000 
0.16700    12467389.00000000 8050965.50000000 20026730.00000000 3526.22778320   359519.40625000 284529.96875000 
0.16800    12345486.00000000 7973757.00000000 19832720.00000000 3464.92968750   353833.93750000 280015.25000000 
0.16900    12223583.00000000 7896588.00000000 19638770.00000000 3403.59863281   348127.03125000 275482.06250000 
0.17000    12101339.00000000 7819310.00000000 19444386.00000000 3342.22290039   342390.90625000 270927.21875000 
