# SAXS profile: number of points = 501, q_min = 0, q_max = 0.5, delta_q = 0.001
#    q    intensity 
0.00000    162238608.00000000 101201664.00000000 256271632.00000000 102514.82031250 8156455.00000000 6441923.00000000 
0.00100    162211120.00000000 101184928.00000000 256229248.00000000 102492.88281250 8154884.00000000 6440714.00000000 
0.00200    162130496.00000000 101134512.00000000 256100864.00000000 102427.67187500 8150217.50000000 6437059.50000000 
0.00300    161995104.00000000 101050248.00000000 255886832.00000000 102319.08593750 8142418.50000000 6430924.50000000 
0.00400    161804432.00000000 100932512.00000000 255587712.00000000 102167.29687500 8131524.50000000 6422395.50000000 
0.00500    161559472.00000000 100781768.00000000 255202896.00000000 101971.99218750 8117553.00000000 6411383.50000000 
0.00600    161260320.00000000 100597256.00000000 254733424.00000000 101734.00781250 8100528.50000000 6397984.00000000 
0.00700    160907936.00000000 100380104.00000000 254179184.00000000 101453.81250000 8080413.00000000 6382176.50000000 
0.00800    160502576.00000000 100129392.00000000 253542112.00000000 101131.17187500 8057301.00000000 6363982.00000000 
0.00900    160043008.00000000 99846480.00000000 252822208.00000000 100766.68750000 8031158.00000000 6343425.50000000 
0.01000    159531408.00000000 99531736.00000000 252019840.00000000 100360.99218750 8002023.00000000 6320555.50000000 
0.01100    158967904.00000000 99185072.00000000 251136720.00000000 99914.44531250  7969938.00000000 6295346.50000000 
0.01200    158354720.00000000 98806856.00000000 250172880.00000000 99427.17187500  7934989.00000000 6267846.50000000 
0.01300    157690736.00000000 98397152.00000000 249128960.00000000 98899.82031250  7897149.00000000 6238130.50000000 
0.01400    156977392.00000000 97956512.00000000 248006752.00000000 98334.38281250  7856483.50000000 6206149.00000000 
0.01500    156214144.00000000 97485360.00000000 246806544.00000000 97729.66406250  7813054.50000000 6171961.50000000 
0.01600    155401840.00000000 96984264.00000000 245532112.00000000 97087.43750000  7766876.00000000 6135660.50000000 
0.01700    154541504.00000000 96454416.00000000 244181312.00000000 96408.38281250  7717988.00000000 6097254.50000000 
0.01800    153635168.00000000 95894816.00000000 242757648.00000000 95692.67968750  7666506.50000000 6056755.00000000 
0.01900    152683760.00000000 95307072.00000000 241261648.00000000 94942.40625000  7612382.50000000 6014237.50000000 
0.02000    151685568.00000000 94692456.00000000 239696432.00000000 94157.36718750  7555812.50000000 5969729.50000000 
0.02100    150645680.00000000 94050848.00000000 238061056.00000000 93338.87500000  7496759.00000000 5923293.00000000 
0.02200    149562816.00000000 93381976.00000000 236358160.00000000 92487.51562500  7435346.00000000 5874998.50000000 
0.02300    148436896.00000000 92687632.00000000 234590720.00000000 91604.46875000  7371586.50000000 5824843.50000000 
0.02400    147271120.00000000 91967592.00000000 232759760.00000000 90691.17187500  7305555.00000000 5772915.00000000 
0.02500    146066544.00000000 91223880.00000000 230865808.00000000 89749.05468750  7237364.00000000 5719288.00000000 
0.02600    144822624.00000000 90456312.00000000 228911520.00000000 88777.71875000  7167046.00000000 5663990.00000000 
0.02700    143541248.00000000 89665904.00000000 226898736.00000000 87779.36718750  7094700.50000000 5607062.50000000 
0.02800    142225424.00000000 88853328.00000000 224831088.00000000 86754.42187500  7020391.00000000 5548632.50000000 
0.02900    140874896.00000000 88019168.00000000 222707568.00000000 85704.96093750  6944154.50000000 5488673.50000000 
0.03000    139490608.00000000 87164704.00000000 220531840.00000000 84631.28125000  6866169.50000000 5427293.50000000 
0.03100    138074256.00000000 86289936.00000000 218306464.00000000 83535.14843750  6786418.00000000 5364572.00000000 
0.03200    136626992.00000000 85396720.00000000 216032336.00000000 82417.72656250  6705042.00000000 5300542.50000000 
0.03300    135152224.00000000 84485416.00000000 213713152.00000000 81280.06250000  6622070.50000000 5235253.50000000 
0.03400    133648248.00000000 83556432.00000000 211349808.00000000 80122.84375000  6537641.50000000 5168826.50000000 
0.03500    132118328.00000000 82611280.00000000 208944304.00000000 78948.93750000  6451829.00000000 5101289.00000000 
0.03600    130563064.00000000 81650608.00000000 206499728.00000000 77757.52343750  6364673.50000000 5032701.50000000 
0.03700    128984712.00000000 80674912.00000000 204016848.00000000 76551.35156250  6276290.50000000 4963162.00000000 
0.03800    127383880.00000000 79685632.00000000 201500304.00000000 75330.90625000  6186808.00000000 4892737.00000000 
0.03900    125762192.00000000 78683616.00000000 198951440.00000000 74098.14062500  6096226.50000000 4821460.50000000 
0.04000    124121816.00000000 77669208.00000000 196371152.00000000 72853.68750000  6004732.00000000 4749398.00000000 
0.04100    122463672.00000000 76644176.00000000 193763856.00000000 71598.85156250  5912324.50000000 4676668.00000000 
0.04200    120788656.00000000 75608232.00000000 191128816.00000000 70335.38281250  5819129.50000000 4603313.00000000 
0.04300    119099072.00000000 74563752.00000000 188472320.00000000 69064.28125000  5725230.50000000 4529369.50000000 
0.04400    117395936.00000000 73510256.00000000 185793024.00000000 67786.60937500  5630734.50000000 4454949.00000000 
0.04500    115680952.00000000 72449000.00000000 183094464.00000000 66504.28125000  5535674.50000000 4380103.50000000 
0.04600    113954896.00000000 71381840.00000000 180380736.00000000 65217.30078125  5440171.50000000 4304869.50000000 
0.04700    112220800.00000000 70308952.00000000 177652080.00000000 63927.81640625  5344294.50000000 4229377.50000000 
0.04800    110478104.00000000 69231136.00000000 174910816.00000000 62636.57031250  5248141.50000000 4153647.25000000 
0.04900    108730072.00000000 68149088.00000000 172159312.00000000 61345.22656250  5151810.50000000 4077760.75000000 
0.05000    106976272.00000000 67063036.00000000 169399456.00000000 60054.56250000  5055345.00000000 4001757.25000000 
0.05100    105219368.00000000 65975484.00000000 166633808.00000000 58765.78515625  4958841.00000000 3925733.50000000 
0.05200    103460936.00000000 64886260.00000000 163865424.00000000 57480.35546875  4862406.50000000 3849732.50000000 
0.05300    101700640.00000000 63796476.00000000 161096528.00000000 56198.61328125  4766058.50000000 3773800.00000000 
0.05400    99941544.00000000 62706760.00000000 158327536.00000000 54922.04687500  4669908.50000000 3698033.25000000 
0.05500    98184120.00000000 61617816.00000000 155561408.00000000 53652.23828125  4574043.50000000 3622465.25000000 
0.05600    96430056.00000000 60531140.00000000 152799360.00000000 52389.03515625  4478531.00000000 3547176.50000000 
0.05700    94680720.00000000 59446828.00000000 150045008.00000000 51134.53906250  4383408.00000000 3472198.50000000 
0.05800    92936784.00000000 58365832.00000000 147298896.00000000 49889.11718750  4288808.00000000 3397607.25000000 
0.05900    91199616.00000000 57288492.00000000 144563328.00000000 48653.81250000  4194757.00000000 3323441.25000000 
0.06000    89470976.00000000 56216608.00000000 141839200.00000000 47429.50000000  4101312.25000000 3249738.50000000 
0.06100    87750920.00000000 55149788.00000000 139130704.00000000 46217.26171875  4008572.00000000 3176584.00000000 
0.06200    86041632.00000000 54089468.00000000 136436640.00000000 45017.60156250  3916573.50000000 3104017.25000000 
0.06300    84343512.00000000 53035912.00000000 133762568.00000000 43831.56250000  3825381.75000000 3032074.50000000 
0.06400    82657768.00000000 51989892.00000000 131107272.00000000 42659.26171875  3735048.00000000 2960807.00000000 
0.06500    80986552.00000000 50951796.00000000 128472144.00000000 41502.90625000  3645647.00000000 2890251.50000000 
0.06600    79328280.00000000 49922724.00000000 125859704.00000000 40361.56640625  3557215.75000000 2820451.75000000 
0.06700    77686192.00000000 48902724.00000000 123270984.00000000 39236.78515625  3469805.75000000 2751463.50000000 
0.06800    76060088.00000000 47892816.00000000 120707840.00000000 38128.71484375  3383468.00000000 2683307.75000000 
0.06900    74452152.00000000 46893404.00000000 118172208.00000000 37038.63281250  3298271.75000000 2616042.00000000 
0.07000    72860960.00000000 45904852.00000000 115664272.00000000 35966.29296875  3214235.75000000 2549658.75000000 
0.07100    71289120.00000000 44927908.00000000 113185072.00000000 34912.60546875  3131370.25000000 2484237.50000000 
0.07200    69736704.00000000 43962672.00000000 110737240.00000000 33877.90625000  3049777.50000000 2419786.75000000 
0.07300    68204688.00000000 43009908.00000000 108320520.00000000 32862.96093750  2969471.75000000 2356330.50000000 
0.07400    66693628.00000000 42070076.00000000 105937096.00000000 31867.59375000  2890466.25000000 2293917.75000000 
0.07500    65204508.00000000 41143556.00000000 103587400.00000000 30892.43945312  2812791.75000000 2232547.25000000 
0.07600    63737196.00000000 40230304.00000000 101272256.00000000 29937.82031250  2736522.25000000 2172249.50000000 
0.07700    62293136.00000000 39331156.00000000 98992560.00000000 29004.07226562  2661632.00000000 2113040.75000000 
0.07800    60871692.00000000 38446128.00000000 96750112.00000000 28091.32226562  2588176.25000000 2054973.37500000 
0.07900    59474608.00000000 37575956.00000000 94544136.00000000 27199.78125000  2516171.00000000 1998025.62500000 
0.08000    58101404.00000000 36720628.00000000 92376424.00000000 26329.66796875  2445627.00000000 1942229.00000000 
0.08100    56753256.00000000 35880212.00000000 90247312.00000000 25481.25000000  2376543.00000000 1887594.62500000 
0.08200    55429472.00000000 35055072.00000000 88157024.00000000 24654.30664062  2308982.25000000 1834137.25000000 
0.08300    54131420.00000000 34245456.00000000 86106080.00000000 23849.04296875  2242921.50000000 1781869.00000000 
0.08400    52858584.00000000 33451578.00000000 84095952.00000000 23065.61328125  2178379.25000000 1730779.75000000 
0.08500    51611848.00000000 32673790.00000000 82126328.00000000 22303.91210938  2115350.00000000 1680898.50000000 
0.08600    50391040.00000000 31911746.00000000 80197376.00000000 21563.85156250  2053874.25000000 1632213.12500000 
0.08700    49196200.00000000 31166054.00000000 78309296.00000000 20845.54101562  1993907.12500000 1584730.12500000 
0.08800    48027748.00000000 30436278.00000000 76462008.00000000 20148.60351562  1935502.87500000 1538452.12500000 
0.08900    46885680.00000000 29722880.00000000 74657136.00000000 19472.97656250  1878590.62500000 1493380.25000000 
0.09000    45770324.00000000 29025860.00000000 72893096.00000000 18818.86718750  1823246.37500000 1449514.37500000 
0.09100    44681280.00000000 28345168.00000000 71170576.00000000 18185.72851562  1769403.00000000 1406844.62500000 
0.09200    43618728.00000000 27680832.00000000 69490016.00000000 17573.50976562  1717068.37500000 1365361.87500000 
0.09300    42582676.00000000 27032568.00000000 67851256.00000000 16981.96679688  1666259.37500000 1325075.50000000 
0.09400    41572712.00000000 26400788.00000000 66252744.00000000 16410.74414062  1616938.12500000 1285959.12500000 
0.09500    40588964.00000000 25785028.00000000 64696644.00000000 15859.59863281  1569097.62500000 1248008.62500000 
0.09600    39631208.00000000 25185620.00000000 63181132.00000000 15328.39160156  1522721.75000000 1211214.87500000 
0.09700    38699700.00000000 24602110.00000000 61706568.00000000 14816.65234375  1477803.37500000 1175572.50000000 
0.09800    37793812.00000000 24034312.00000000 60271964.00000000 14324.07714844  1434326.75000000 1141050.87500000 
0.09900    36913632.00000000 23482846.00000000 58878408.00000000 13850.34667969  1392261.75000000 1107651.50000000 
0.10000    36058400.00000000 22946554.00000000 57523568.00000000 13395.05957031  1351588.62500000 1075351.37500000 
0.10100    35228320.00000000 22425882.00000000 56208476.00000000 12957.84570312  1312281.37500000 1044135.50000000 
0.10200    34422768.00000000 21920554.00000000 54932184.00000000 12538.31640625  1274350.50000000 1013993.25000000 
0.10300    33641248.00000000 21430332.00000000 53694492.00000000 12135.89648438  1237722.00000000 984886.18750000 
0.10400    32884290.00000000 20954898.00000000 52493916.00000000 11750.45996094  1202414.50000000 956810.62500000 
0.10500    32150670.00000000 20494202.00000000 51331384.00000000 11381.39843750  1168371.75000000 929750.06250000 
0.10600    31440348.00000000 20047952.00000000 50205176.00000000 11028.26171875  1135566.50000000 903667.62500000 
0.10700    30752954.00000000 19615762.00000000 49114924.00000000 10690.62597656  1104000.00000000 878554.37500000 
0.10800    30087878.00000000 19197746.00000000 48060164.00000000 10367.90429688  1073626.12500000 854379.50000000 
0.10900    29444564.00000000 18793034.00000000 47040016.00000000 10059.84179688  1044402.12500000 831112.87500000 
0.11000    28823078.00000000 18402002.00000000 46053596.00000000 9765.93652344   1016324.68750000 808760.56250000 
0.11100    28222584.00000000 18023998.00000000 45100692.00000000 9485.62011719   989344.06250000 787273.43750000 
0.11200    27642688.00000000 17658884.00000000 44180080.00000000 9218.46191406   963431.25000000 766632.37500000 
0.11300    27082804.00000000 17306130.00000000 43291032.00000000 8963.92382812   938555.50000000 746812.18750000 
0.11400    26542522.00000000 16965736.00000000 42433084.00000000 8721.66503906   914699.12500000 727799.37500000 
0.11500    26021250.00000000 16637324.00000000 41605500.00000000 8491.11718750   891817.31250000 709555.75000000 
0.11600    25518728.00000000 16320448.00000000 40807208.00000000 8271.81054688   869869.93750000 692057.50000000 
0.11700    25034182.00000000 16014783.00000000 40037124.00000000 8063.27441406   848847.12500000 675283.93750000 
0.11800    24567086.00000000 15719974.00000000 39295004.00000000 7864.95996094   828693.93750000 659207.25000000 
0.11900    24116954.00000000 15435897.00000000 38579768.00000000 7676.56787109   809391.50000000 643806.25000000 
0.12000    23683252.00000000 15162050.00000000 37890304.00000000 7497.46435547   790904.37500000 629045.43750000 
0.12100    23265536.00000000 14898178.00000000 37226148.00000000 7327.36718750   773204.37500000 614915.00000000 
0.12200    22863096.00000000 14643973.00000000 36586244.00000000 7165.71337891   756249.81250000 601371.62500000 
0.12300    22475604.00000000 14399065.00000000 35969768.00000000 7012.05957031   740017.31250000 588403.81250000 
0.12400    22102202.00000000 14162964.00000000 35376096.00000000 6866.05322266   724465.00000000 575983.00000000 
0.12500    21742360.00000000 13935609.00000000 34803888.00000000 6727.12646484   709571.62500000 564082.06250000 
0.12600    21396188.00000000 13716502.00000000 34252800.00000000 6595.16357422   695313.56250000 552677.93750000 
0.12700    21062342.00000000 13505461.00000000 33721832.00000000 6469.36718750   681647.18750000 541755.68750000 
0.12800    20740730.00000000 13301933.00000000 33209822.00000000 6349.62890625   668545.25000000 531279.06250000 
0.12900    20430686.00000000 13105683.00000000 32716562.00000000 6235.45166016   655980.62500000 521232.65625000 
0.13000    20131928.00000000 12916492.00000000 32240754.00000000 6126.48046875   643928.75000000 511591.53125000 
0.13100    19843444.00000000 12733945.00000000 31781612.00000000 6022.31054688   632348.81250000 502330.50000000 
0.13200    19565218.00000000 12557795.00000000 31338882.00000000 5922.69921875   621227.12500000 493433.90625000 
0.13300    19296594.00000000 12387679.00000000 30911056.00000000 5827.27587891   610533.37500000 484878.71875000 
0.13400    19036952.00000000 12223284.00000000 30497938.00000000 5735.61914062   600239.50000000 476642.15625000 
0.13500    18786166.00000000 12064316.00000000 30098284.00000000 5647.50537109   590320.25000000 468706.06250000 
0.13600    18543228.00000000 11910498.00000000 29711656.00000000 5562.66113281   580750.37500000 461050.15625000 
0.13700    18308196.00000000 11761631.00000000 29337348.00000000 5480.73242188   571510.93750000 453658.59375000 
0.13800    18080308.00000000 11617293.00000000 28974444.00000000 5401.46142578   562571.62500000 446507.78125000 
0.13900    17859286.00000000 11477299.00000000 28622610.00000000 5324.63769531   553917.37500000 439582.81250000 
0.14000    17644652.00000000 11341364.00000000 28280940.00000000 5249.98339844   545523.06250000 432869.93750000 
0.14100    17436028.00000000 11209230.00000000 27948838.00000000 5177.25878906   537374.81250000 426351.15625000 
0.14200    17232928.00000000 11080618.00000000 27625308.00000000 5106.25097656   529438.75000000 420007.65625000 
0.14300    17034946.00000000 10955299.00000000 27310442.00000000 5036.79101562   521709.93750000 413827.65625000 
0.14400    16841824.00000000 10833117.00000000 27002936.00000000 4968.58935547   514163.90625000 407794.93750000 
0.14500    16653312.00000000 10713741.00000000 26702802.00000000 4901.55468750   506785.37500000 401896.93750000 
0.14600    16468754.00000000 10597005.00000000 26409210.00000000 4835.51074219   499560.37500000 396125.53125000 
0.14700    16288120.00000000 10482710.00000000 26121750.00000000 4770.29589844   492469.81250000 390461.75000000 
0.14800    16110916.00000000 10370578.00000000 25839718.00000000 4705.72363281   485499.37500000 384893.21875000 
0.14900    15936793.00000000 10260486.00000000 25562706.00000000 4641.70458984   478636.25000000 379415.40625000 
0.15000    15765565.00000000 10152185.00000000 25290368.00000000 4578.09521484   471869.25000000 374014.28125000 
0.15100    15597046.00000000 10045603.00000000 25022102.00000000 4514.83007812   465186.84375000 368682.62500000 
0.15200    15430919.00000000 9940602.00000000 24757832.00000000 4451.80468750   458579.65625000 363408.46875000 
0.15300    15266679.00000000 9836864.00000000 24496738.00000000 4388.90869141   452029.90625000 358187.71875000 
0.15400    15104279.00000000 9734280.00000000 24238494.00000000 4326.03955078   445532.96875000 353005.87500000 
0.15500    14943624.00000000 9632748.00000000 23983058.00000000 4263.21191406   439083.40625000 347864.00000000 
0.15600    14784320.00000000 9532187.00000000 23729842.00000000 4200.28906250   432663.43750000 342749.68750000 
0.15700    14626327.00000000 9432428.00000000 23478534.00000000 4137.30566406   426279.34375000 337660.71875000 
0.15800    14469336.00000000 9333241.00000000 23229034.00000000 4074.15478516   419913.65625000 332591.15625000 
0.15900    14313274.00000000 9234692.00000000 22980908.00000000 4010.87768555   413563.50000000 327534.93750000 
0.16000    14157846.00000000 9136550.00000000 22733850.00000000 3947.36914062   407224.65625000 322488.15625000 
0.16100    14003039.00000000 9038926.00000000 22487974.00000000 3883.70703125   400898.00000000 317450.59375000 
0.16200    13848735.00000000 8941488.00000000 22242660.00000000 3819.82031250   394572.87500000 312415.46875000 
0.16300    13694729.00000000 8844300.00000000 21997852.00000000 3755.70751953   388246.28125000 307378.09375000 
0.16400    13541029.00000000 8747271.00000000 21753512.00000000 3691.44213867   381919.31250000 302342.59375000 
0.16500    13387385.00000000 8650314.00000000 21509340.00000000 3626.99584961   375587.93750000 297303.62500000 
0.16600    13233874.00000000 8553374.00000000 21265236.00000000 3562.37988281   369253.00000000 292260.53125000 
0.16700    13080269.00000000 8456377.00000000 21021196.00000000 3497.61938477   362907.53125000 287213.18750000 
0.16800    12926562.00000000 8359316.00000000 20776804.00000000 3432.73266602   356553.87500000 282157.93750000 
0.16900    12772810.00000000 8262252.00000000 20532480.00000000 3367.84106445   350198.96875000 277100.87500000 
0.17000    12618900.00000000 8164983.50000000 20287718.00000000 3302.89355469   343834.71875000 272036.96875000 
