# SAXS profile: number of points = 501, q_min = 0, q_max = 0.5, delta_q = 0.001
#    q    intensity 
0.00000    162229088.00000000 101202408.00000000 256268272.00000000 112219.59375000 8533834.00000000 6739959.00000000 
0.00100    162192416.00000000 101175408.00000000 256203392.00000000 112178.38281250 8531191.00000000 6737820.50000000 
0.00200    162073488.00000000 101097792.00000000 256007088.00000000 112058.04687500 8523067.00000000 6731518.50000000 
0.00300    161869632.00000000 100969224.00000000 255676080.00000000 111855.53125000 8509713.00000000 6720967.50000000 
0.00400    161573440.00000000 100788384.00000000 255216608.00000000 111573.29687500 8490980.00000000 6706261.50000000 
0.00500    161193184.00000000 100553416.00000000 254622128.00000000 111211.53125000 8466984.00000000 6687424.50000000 
0.00600    160731888.00000000 100270928.00000000 253904096.00000000 110772.51562500 8437744.00000000 6664480.00000000 
0.00700    160183376.00000000 99939312.00000000 253055056.00000000 110255.39843750 8403342.00000000 6637468.00000000 
0.00800    159561248.00000000 99558512.00000000 252077936.00000000 109663.08593750 8363971.50000000 6606459.00000000 
0.00900    158862384.00000000 99128120.00000000 250979856.00000000 108995.13281250 8319535.00000000 6571619.00000000 
0.01000    158088016.00000000 98648592.00000000 249757040.00000000 108255.78125000 8270307.50000000 6532847.00000000 
0.01100    157231472.00000000 98122048.00000000 248416016.00000000 107445.52343750 8216310.50000000 6490341.50000000 
0.01200    156299440.00000000 97549408.00000000 246958832.00000000 106567.14062500 8157639.00000000 6444254.00000000 
0.01300    155297808.00000000 96932376.00000000 245385616.00000000 105621.57031250 8094514.00000000 6394573.00000000 
0.01400    154224752.00000000 96272328.00000000 243700560.00000000 104612.61718750 8027010.50000000 6341521.50000000 
0.01500    153082624.00000000 95569192.00000000 241906128.00000000 103542.27343750 7955328.50000000 6285141.00000000 
0.01600    151873248.00000000 94824664.00000000 240010096.00000000 102413.64843750 7879541.50000000 6225533.50000000 
0.01700    150598352.00000000 94040296.00000000 238010496.00000000 101228.88281250 7799916.50000000 6162945.00000000 
0.01800    149261952.00000000 93217208.00000000 235914144.00000000 99990.81250000  7716591.50000000 6097333.00000000 
0.01900    147866608.00000000 92357904.00000000 233723344.00000000 98702.94531250  7629709.50000000 6029043.00000000 
0.02000    146414576.00000000 91462464.00000000 231440256.00000000 97368.42968750  7539525.50000000 5958056.50000000 
0.02100    144904736.00000000 90533520.00000000 229073424.00000000 95990.25000000  7446179.00000000 5884617.50000000 
0.02200    143346960.00000000 89572112.00000000 226624624.00000000 94571.20312500  7349860.50000000 5808842.00000000 
0.02300    141737696.00000000 88579880.00000000 224097616.00000000 93114.63281250  7250769.50000000 5730837.50000000 
0.02400    140082416.00000000 87558568.00000000 221498816.00000000 91625.00781250  7149154.00000000 5650914.00000000 
0.02500    138384176.00000000 86510432.00000000 218828896.00000000 90104.28906250  7045219.00000000 5569082.50000000 
0.02600    136645088.00000000 85437416.00000000 216096272.00000000 88555.10937500  6939080.00000000 5485556.50000000 
0.02700    134868704.00000000 84339952.00000000 213304000.00000000 86982.76562500  6831049.00000000 5400513.50000000 
0.02800    133056280.00000000 83221152.00000000 210456320.00000000 85389.27343750  6721268.00000000 5314110.00000000 
0.02900    131212792.00000000 82080992.00000000 207556928.00000000 83778.40625000  6609981.00000000 5226454.50000000 
0.03000    129340192.00000000 80923424.00000000 204612800.00000000 82152.96875000  6497369.00000000 5137790.00000000 
0.03100    127442360.00000000 79751048.00000000 201627856.00000000 80517.39062500  6383631.00000000 5048136.50000000 
0.03200    125520232.00000000 78562920.00000000 198606224.00000000 78872.72656250  6268946.00000000 4957875.50000000 
0.03300    123577984.00000000 77362400.00000000 195550768.00000000 77224.10156250  6153597.50000000 4866973.50000000 
0.03400    121619592.00000000 76149712.00000000 192468240.00000000 75571.85156250  6037628.50000000 4775617.00000000 
0.03500    119646496.00000000 74927984.00000000 189363120.00000000 73922.14843750  5921335.00000000 4683989.50000000 
0.03600    117661376.00000000 73697288.00000000 186236576.00000000 72274.82031250  5804799.00000000 4592169.00000000 
0.03700    115667520.00000000 72461448.00000000 183098784.00000000 70634.43750000  5688419.00000000 4500396.50000000 
0.03800    113668264.00000000 71221720.00000000 179948688.00000000 69002.10156250  5572180.00000000 4408724.00000000 
0.03900    111665360.00000000 69979200.00000000 176793088.00000000 67381.58593750  5456192.50000000 4317348.00000000 
0.04000    109661232.00000000 68735640.00000000 173634416.00000000 65774.11718750  5340812.50000000 4226315.50000000 
0.04100    107658456.00000000 67492488.00000000 170479616.00000000 64182.62109375  5226023.00000000 4135817.00000000 
0.04200    105660056.00000000 66250252.00000000 167328160.00000000 62609.02734375  5112113.00000000 4045926.25000000 
0.04300    103667168.00000000 65012532.00000000 164187488.00000000 61054.64453125  4999101.50000000 3956776.25000000 
0.04400    101683528.00000000 63779760.00000000 161059904.00000000 59522.12109375  4887128.00000000 3868437.25000000 
0.04500    99710768.00000000 62552760.00000000 157947632.00000000 58012.59375000  4776361.50000000 3781056.75000000 
0.04600    97750728.00000000 61333312.00000000 154855984.00000000 56527.71875000  4666988.00000000 3694659.25000000 
0.04700    95805656.00000000 60122724.00000000 151787104.00000000 55068.81250000  4558918.50000000 3609401.00000000 
0.04800    93876800.00000000 58921704.00000000 148743024.00000000 53636.48046875  4452412.00000000 3525296.00000000 
0.04900    91967200.00000000 57732052.00000000 145728064.00000000 52232.88281250  4347499.00000000 3442481.00000000 
0.05000    90077264.00000000 56554640.00000000 142745696.00000000 50858.42578125  4244318.00000000 3360962.75000000 
0.05100    88209184.00000000 55390268.00000000 139796832.00000000 49513.18750000  4142808.50000000 3280828.75000000 
0.05200    86365336.00000000 54240212.00000000 136883072.00000000 48199.42187500  4043226.75000000 3202129.50000000 
0.05300    84545968.00000000 53104740.00000000 134009776.00000000 46916.24609375  3945455.75000000 3124926.75000000 
0.05400    82752944.00000000 51985580.00000000 131175184.00000000 45664.59375000  3849652.75000000 3049184.25000000 
0.05500    80986488.00000000 50883056.00000000 128384056.00000000 44444.83203125  3755828.00000000 2975019.50000000 
0.05600    79247528.00000000 49797856.00000000 125637936.00000000 43257.05468750  3664030.50000000 2902456.50000000 
0.05700    77539496.00000000 48730092.00000000 122936512.00000000 42101.70312500  3574257.25000000 2831503.50000000 
0.05800    75861496.00000000 47681724.00000000 120282448.00000000 40977.94140625  3486537.25000000 2762151.00000000 
0.05900    74214208.00000000 46651476.00000000 117678048.00000000 39885.89062500  3400921.00000000 2694451.50000000 
0.06000    72598576.00000000 45641240.00000000 115123112.00000000 38825.67968750  3317423.50000000 2628372.75000000 
0.06100    71015776.00000000 44650904.00000000 112619424.00000000 37796.86718750  3235978.50000000 2563993.00000000 
0.06200    69465904.00000000 43681044.00000000 110167000.00000000 36799.02343750  3156640.50000000 2501220.25000000 
0.06300    67948344.00000000 42732024.00000000 107766344.00000000 35831.39062500  3079391.50000000 2440120.25000000 
0.06400    66465224.00000000 41803180.00000000 105419856.00000000 34894.07421875  3004186.50000000 2380619.50000000 
0.06500    65015812.00000000 40896164.00000000 103126552.00000000 33985.82421875  2931067.50000000 2322774.25000000 
0.06600    63600624.00000000 40010116.00000000 100886752.00000000 33106.21875000  2859981.25000000 2266487.00000000 
0.06700    62219360.00000000 39145696.00000000 98701272.00000000 32254.80273438  2790873.25000000 2211821.25000000 
0.06800    60872060.00000000 38302336.00000000 96570456.00000000 31430.52343750  2723785.00000000 2158732.00000000 
0.06900    59560012.00000000 37480340.00000000 94492232.00000000 30632.87500000  2658614.50000000 2107149.00000000 
0.07000    58282212.00000000 36680008.00000000 92468848.00000000 29860.95898438  2595356.25000000 2057106.62500000 
0.07100    57037256.00000000 35900976.00000000 90499816.00000000 29113.73828125  2533973.50000000 2008528.25000000 
0.07200    55826332.00000000 35142848.00000000 88583896.00000000 28390.81445312  2474420.75000000 1961382.37500000 
0.07300    54649252.00000000 34405920.00000000 86720880.00000000 27690.97851562  2416654.75000000 1915684.62500000 
0.07400    53504852.00000000 33690140.00000000 84910856.00000000 27013.67773438  2360643.25000000 1871335.00000000 
0.07500    52393800.00000000 32995562.00000000 83152216.00000000 26357.98828125  2306311.50000000 1828336.87500000 
0.07600    51315112.00000000 32320766.00000000 81446288.00000000 25723.12890625  2253635.75000000 1786644.12500000 
0.07700    50267708.00000000 31666242.00000000 79789848.00000000 25108.03906250  2202567.75000000 1746235.12500000 
0.07800    49251940.00000000 31031304.00000000 78184024.00000000 24511.99023438  2153063.25000000 1707066.87500000 
0.07900    48267140.00000000 30416132.00000000 76626680.00000000 23934.25000000  2105072.50000000 1669084.62500000 
0.08000    47312856.00000000 29820408.00000000 75118688.00000000 23374.08789062  2058528.00000000 1632264.75000000 
0.08100    46388060.00000000 29243274.00000000 73658024.00000000 22830.46679688  2013392.12500000 1596560.50000000 
0.08200    45492196.00000000 28684722.00000000 72242696.00000000 22303.37500000  1969637.62500000 1561935.12500000 
0.08300    44625672.00000000 28144282.00000000 70873752.00000000 21791.53515625  1927172.75000000 1528366.50000000 
0.08400    43785936.00000000 27621318.00000000 69548928.00000000 21294.03125000  1886006.62500000 1495809.87500000 
0.08500    42973856.00000000 27116038.00000000 68267096.00000000 20810.86718750  1846046.87500000 1464201.50000000 
0.08600    42188032.00000000 26627452.00000000 67027420.00000000 20341.03125000  1807277.50000000 1433560.75000000 
0.08700    41428216.00000000 26155394.00000000 65829412.00000000 19884.22656250  1769644.87500000 1403807.75000000 
0.08800    40693440.00000000 25699158.00000000 64671688.00000000 19439.51757812  1733124.37500000 1374933.75000000 
0.08900    39982948.00000000 25258578.00000000 63552376.00000000 19006.50585938  1697637.12500000 1346882.50000000 
0.09000    39296192.00000000 24833098.00000000 62470828.00000000 18585.01562500  1663169.00000000 1319653.75000000 
0.09100    38632264.00000000 24422260.00000000 61426180.00000000 18174.31054688  1629683.25000000 1293197.25000000 
0.09200    37990532.00000000 24025454.00000000 60416396.00000000 17773.94531250  1597131.75000000 1267485.00000000 
0.09300    37370104.00000000 23642146.00000000 59441124.00000000 17383.91601562  1565488.75000000 1242485.25000000 
0.09400    36770684.00000000 23272386.00000000 58499372.00000000 17003.58593750  1534711.50000000 1218179.75000000 
0.09500    36191316.00000000 22915312.00000000 57588880.00000000 16632.36914062  1504779.87500000 1194549.75000000 
0.09600    35630964.00000000 22570510.00000000 56709664.00000000 16270.44726562  1475646.37500000 1171544.37500000 
0.09700    35089764.00000000 22237418.00000000 55860316.00000000 15917.10253906  1447295.12500000 1149162.62500000 
0.09800    34565904.00000000 21916026.00000000 55039416.00000000 15572.60839844  1419694.87500000 1127365.25000000 
0.09900    34059624.00000000 21605250.00000000 54245936.00000000 15236.13671875  1392823.62500000 1106160.87500000 
0.10000    33569964.00000000 21305086.00000000 53478744.00000000 14907.83691406  1366630.25000000 1085476.50000000 
0.10100    33096114.00000000 21014854.00000000 52736540.00000000 14587.39843750  1341110.37500000 1065342.12500000 
0.10200    32637380.00000000 20734322.00000000 52018984.00000000 14274.74902344  1316251.25000000 1045714.06250000 
0.10300    32192970.00000000 20463052.00000000 51324068.00000000 13969.59960938  1292005.75000000 1026573.56250000 
0.10400    31762576.00000000 20200354.00000000 50651528.00000000 13671.59765625  1268367.75000000 1007914.93750000 
0.10500    31345882.00000000 19946242.00000000 50000088.00000000 13381.12207031  1245323.12500000 989717.06250000 
0.10600    30941374.00000000 19699670.00000000 49368228.00000000 13097.66406250  1222834.75000000 971960.50000000 
0.10700    30548994.00000000 19461036.00000000 48755904.00000000 12821.07128906  1200886.12500000 954639.00000000 
0.10800    30168118.00000000 19229380.00000000 48161224.00000000 12551.35742188  1179477.12500000 937735.37500000 
0.10900    29798206.00000000 19004428.00000000 47583824.00000000 12288.39648438  1158580.62500000 921225.37500000 
0.11000    29438462.00000000 18785832.00000000 47022676.00000000 12031.87304688  1138162.50000000 905105.06250000 
0.11100    29088422.00000000 18573288.00000000 46476432.00000000 11781.92578125  1118228.62500000 889359.75000000 
0.11200    28747794.00000000 18366388.00000000 45945416.00000000 11538.22753906  1098759.75000000 873967.62500000 
0.11300    28415682.00000000 18164658.00000000 45427700.00000000 11300.85742188  1079735.50000000 858937.43750000 
0.11400    28091738.00000000 17968088.00000000 44922252.00000000 11069.60937500  1061146.87500000 844238.81250000 
0.11500    27775294.00000000 17776218.00000000 44429260.00000000 10844.27734375  1042964.12500000 829878.31250000 
0.11600    27466426.00000000 17588252.00000000 43947140.00000000 10624.75097656  1025194.12500000 815821.25000000 
0.11700    27163976.00000000 17404402.00000000 43475376.00000000 10410.97851562  1007814.75000000 802071.62500000 
0.11800    26868026.00000000 17224472.00000000 43013180.00000000 10202.87304688  990816.18750000 788617.06250000 
0.11900    26577686.00000000 17047856.00000000 42560212.00000000 10000.07226562  974165.56250000 775442.68750000 
0.12000    26292684.00000000 16874376.00000000 42115428.00000000 9802.51953125   957867.18750000 762541.43750000 
0.12100    26012682.00000000 16703577.00000000 41677688.00000000 9610.18066406   941921.31250000 749897.50000000 
0.12200    25737420.00000000 16535580.00000000 41247364.00000000 9422.85839844   926278.37500000 737507.93750000 
0.12300    25466268.00000000 16369884.00000000 40823276.00000000 9240.29785156   910956.50000000 725363.56250000 
0.12400    25198850.00000000 16206320.00000000 40404560.00000000 9062.25781250   895930.31250000 713446.50000000 
0.12500    24934924.00000000 16044645.00000000 39991188.00000000 8888.79882812   881186.06250000 701753.31250000 
0.12600    24674222.00000000 15884541.00000000 39582904.00000000 8719.69531250   866715.00000000 690277.06250000 
0.12700    24416226.00000000 15725913.00000000 39177836.00000000 8554.59765625   852507.06250000 678999.50000000 
0.12800    24160768.00000000 15568636.00000000 38777120.00000000 8393.56250000   838540.68750000 667910.81250000 
0.12900    23907502.00000000 15412442.00000000 38379000.00000000 8236.34082031   824820.56250000 657011.93750000 
0.13000    23656162.00000000 15257123.00000000 37983592.00000000 8082.60205078   811309.93750000 646283.43750000 
0.13100    23406610.00000000 15102482.00000000 37590796.00000000 7932.31982422   798029.18750000 635716.18750000 
0.13200    23158246.00000000 14948546.00000000 37199408.00000000 7785.32812500   784940.00000000 625318.31250000 
0.13300    22911310.00000000 14794916.00000000 36809780.00000000 7641.45068359   772039.68750000 615060.81250000 
0.13400    22665096.00000000 14641679.00000000 36421580.00000000 7500.37841797   759329.93750000 604938.25000000 
0.13500    22419674.00000000 14488691.00000000 36033816.00000000 7362.14013672   746781.75000000 594955.25000000 
0.13600    22174952.00000000 14335661.00000000 35646644.00000000 7226.40527344   734388.06250000 585090.50000000 
0.13700    21930648.00000000 14182654.00000000 35259752.00000000 7093.13476562   722147.06250000 575344.75000000 
0.13800    21686362.00000000 14029490.00000000 34872876.00000000 6962.05712891   710049.68750000 565710.75000000 
0.13900    21442522.00000000 13876201.00000000 34486276.00000000 6833.18603516   698087.31250000 556181.00000000 
0.14000    21198554.00000000 13722534.00000000 34099032.00000000 6706.23046875   686242.56250000 546741.50000000 
0.14100    20954452.00000000 13568569.00000000 33711568.00000000 6581.20361328   674521.37500000 537394.56250000 
0.14200    20710172.00000000 13414369.00000000 33322974.00000000 6457.84765625   662901.37500000 528135.18750000 
0.14300    20465280.00000000 13259593.00000000 32933996.00000000 6336.12158203   651384.43750000 518946.71875000 
0.14400    20220254.00000000 13104315.00000000 32543896.00000000 6215.87841797   639960.12500000 509837.06250000 
0.14500    19975020.00000000 12948639.00000000 32152934.00000000 6097.06494141   628621.37500000 500799.03125000 
0.14600    19728996.00000000 12792427.00000000 31760916.00000000 5979.58056641   617380.68750000 491827.53125000 
0.14700    19482746.00000000 12635775.00000000 31367938.00000000 5863.36523438   606210.81250000 482915.12500000 
0.14800    19235512.00000000 12478415.00000000 30973972.00000000 5748.28271484   595116.68750000 474060.18750000 
0.14900    18988158.00000000 12320678.00000000 30579000.00000000 5634.35546875   584090.62500000 465260.81250000 
0.15000    18740082.00000000 12162415.00000000 30182748.00000000 5521.50488281   573134.00000000 456516.06250000 
0.15100    18491840.00000000 12003781.00000000 29785548.00000000 5409.63818359   562246.81250000 447824.12500000 
0.15200    18242844.00000000 11844621.00000000 29387730.00000000 5298.85205078   551429.93750000 439181.65625000 
0.15300    17993654.00000000 11684970.00000000 28988860.00000000 5189.00097656   540673.31250000 430591.18750000 
0.15400    17744116.00000000 11525132.00000000 28589108.00000000 5080.16455078   529972.37500000 422048.59375000 
0.15500    17493936.00000000 11364801.00000000 28188982.00000000 4972.23291016   519339.68750000 413552.53125000 
0.15600    17243736.00000000 11204285.00000000 27788056.00000000 4865.24316406   508767.28125000 405106.15625000 
0.15700    16993534.00000000 11043694.00000000 27387202.00000000 4759.24414062   498261.68750000 396713.87500000 
0.15800    16743018.00000000 10882744.00000000 26985600.00000000 4654.31738281   487815.03125000 388365.96875000 
0.15900    16492878.00000000 10721929.00000000 26584364.00000000 4550.34619141   477434.93750000 380072.96875000 
0.16000    16242688.00000000 10560902.00000000 26183178.00000000 4447.42480469   467124.68750000 371833.25000000 
0.16100    15992668.00000000 10400019.00000000 25782228.00000000 4345.58544922   456891.68750000 363650.46875000 
0.16200    15743090.00000000 10239390.00000000 25381674.00000000 4244.89257812   446723.40625000 355526.90625000 
0.16300    15493962.00000000 10078862.00000000 24981778.00000000 4145.33251953   436635.43750000 347460.18750000 
0.16400    15245380.00000000 9918760.00000000 24582848.00000000 4047.01318359   426629.50000000 339453.96875000 
0.16500    14997612.00000000 9758913.00000000 24184972.00000000 3949.93432617   416702.25000000 331517.18750000 
0.16600    14750672.00000000 9599617.00000000 23788306.00000000 3854.15991211   406865.96875000 323648.62500000 
0.16700    14504600.00000000 9440965.00000000 23393134.00000000 3759.74047852   397118.93750000 315852.12500000 
0.16800    14259478.00000000 9282739.00000000 22999392.00000000 3666.67236328   387466.81250000 308127.71875000 
0.16900    14015885.00000000 9125402.00000000 22607966.00000000 3575.14062500   377916.65625000 300483.84375000 
0.17000    13773563.00000000 8968997.00000000 22218490.00000000 3485.08764648   368465.75000000 292920.06250000 
