# SAXS profile: number of points = 501, q_min = 0, q_max = 0.5, delta_q = 0.001
#    q    intensity 
0.00000    162233024.00000000 101202376.00000000 256269840.00000000 112965.60156250 8562104.00000000 6762339.50000000 
0.00100    162197776.00000000 101177536.00000000 256209024.00000000 112930.20312500 8559713.00000000 6760479.00000000 
0.00200    162084400.00000000 101105856.00000000 256026128.00000000 112825.19531250 8552633.00000000 6754872.50000000 
0.00300    161893248.00000000 100985200.00000000 255720112.00000000 112649.95312500 8540738.00000000 6745485.50000000 
0.00400    161620928.00000000 100816896.00000000 255291072.00000000 112405.25000000 8524178.00000000 6732520.50000000 
0.00500    161269424.00000000 100600792.00000000 254741120.00000000 112091.45312500 8502962.00000000 6715811.00000000 
0.00600    160839952.00000000 100335824.00000000 254069632.00000000 111709.15625000 8477063.00000000 6695413.50000000 
0.00700    160337664.00000000 100025496.00000000 253280976.00000000 111259.89062500 8446648.00000000 6671480.00000000 
0.00800    159756016.00000000 99668944.00000000 252373392.00000000 110743.62500000 8411611.00000000 6643914.00000000 
0.00900    159104736.00000000 99267312.00000000 251349152.00000000 110161.99218750 8372154.00000000 6612838.50000000 
0.01000    158380416.00000000 98820136.00000000 250209360.00000000 109515.34375000 8328265.00000000 6578350.50000000 
0.01100    157584752.00000000 98328720.00000000 248957056.00000000 108805.78125000 8280113.00000000 6540418.00000000 
0.01200    156718960.00000000 97792552.00000000 247593632.00000000 108035.15625000 8227703.00000000 6499221.00000000 
0.01300    155780720.00000000 97214448.00000000 246121984.00000000 107203.78125000 8171185.50000000 6454706.50000000 
0.01400    154775728.00000000 96592776.00000000 244544272.00000000 106314.66406250 8110619.50000000 6407036.50000000 
0.01500    153705536.00000000 95931880.00000000 242860992.00000000 105369.22656250 8046112.50000000 6356274.00000000 
0.01600    152570912.00000000 95230864.00000000 241076416.00000000 104369.04687500 7977857.50000000 6302576.50000000 
0.01700    151374944.00000000 94491480.00000000 239194416.00000000 103315.22656250 7905912.00000000 6245922.50000000 
0.01800    150114320.00000000 93714024.00000000 237215312.00000000 102211.46093750 7830421.50000000 6186509.00000000 
0.01900    148798672.00000000 92900512.00000000 235146272.00000000 101059.37500000 7751531.00000000 6124358.50000000 
0.02000    147425584.00000000 92051832.00000000 232986320.00000000 99861.70312500  7669311.00000000 6059713.00000000 
0.02100    145996752.00000000 91169008.00000000 230740544.00000000 98619.54687500  7583983.00000000 5992519.50000000 
0.02200    144515504.00000000 90254232.00000000 228413440.00000000 97336.19531250  7495669.00000000 5922983.00000000 
0.02300    142986432.00000000 89307032.00000000 226005584.00000000 96013.60156250  7404540.00000000 5851238.00000000 
0.02400    141408256.00000000 88332056.00000000 223523872.00000000 94654.39062500  7310744.50000000 5777377.00000000 
0.02500    139783696.00000000 87327888.00000000 220969056.00000000 93261.02343750  7214384.50000000 5701511.00000000 
0.02600    138117200.00000000 86296808.00000000 218347280.00000000 91836.46875000  7115742.50000000 5623822.00000000 
0.02700    136410656.00000000 85239696.00000000 215662800.00000000 90382.83593750  7014833.50000000 5544366.50000000 
0.02800    134665552.00000000 84160456.00000000 212915280.00000000 88903.22656250  6911901.00000000 5463304.00000000 
0.02900    132884216.00000000 83057800.00000000 210113312.00000000 87399.17968750  6807136.50000000 5380783.50000000 
0.03000    131070472.00000000 81934984.00000000 207259696.00000000 85874.15625000  6700658.00000000 5296909.50000000 
0.03100    129225968.00000000 80793304.00000000 204356768.00000000 84331.26562500  6592704.00000000 5211820.50000000 
0.03200    127354296.00000000 79633864.00000000 201411744.00000000 82771.69531250  6483265.50000000 5125675.00000000 
0.03300    125457080.00000000 78458504.00000000 198424576.00000000 81198.96875000  6372699.50000000 5038518.00000000 
0.03400    123537768.00000000 77269584.00000000 195401744.00000000 79614.59375000  6261112.50000000 4950588.00000000 
0.03500    121597848.00000000 76067904.00000000 192348864.00000000 78022.71875000  6148653.50000000 4861923.00000000 
0.03600    119640232.00000000 74854552.00000000 189267248.00000000 76424.85937500  6035499.50000000 4772798.00000000 
0.03700    117667288.00000000 73632816.00000000 186161424.00000000 74823.92968750  5921745.50000000 4683133.50000000 
0.03800    115683632.00000000 72402816.00000000 183035856.00000000 73221.00000000  5807632.00000000 4593215.50000000 
0.03900    113689472.00000000 71165288.00000000 179894096.00000000 71620.09375000  5693291.50000000 4503098.50000000 
0.04000    111687320.00000000 69923480.00000000 176740144.00000000 70022.12500000  5578885.50000000 4412884.50000000 
0.04100    109680064.00000000 68677800.00000000 173578560.00000000 68429.70312500  5464507.00000000 4322711.50000000 
0.04200    107671456.00000000 67431000.00000000 170412160.00000000 66845.08593750  5350392.00000000 4232711.00000000 
0.04300    105661368.00000000 66182876.00000000 167245568.00000000 65270.32031250  5236576.00000000 4142960.75000000 
0.04400    103653304.00000000 64936164.00000000 164081440.00000000 63706.54687500  5123342.00000000 4053619.25000000 
0.04500    101650272.00000000 63692008.00000000 160924512.00000000 62156.71093750  5010650.50000000 3964733.50000000 
0.04600    99654264.00000000 62451888.00000000 157776032.00000000 60622.20312500  4898695.50000000 3876444.00000000 
0.04700    97666424.00000000 61216544.00000000 154642416.00000000 59104.36718750  4787700.50000000 3788853.75000000 
0.04800    95689232.00000000 59987548.00000000 151524816.00000000 57605.14843750  4677610.00000000 3702015.25000000 
0.04900    93725232.00000000 58766704.00000000 148427504.00000000 56125.83593750  4568670.00000000 3616042.00000000 
0.05000    91775960.00000000 57553880.00000000 145352496.00000000 54668.52734375  4460898.00000000 3531009.00000000 
0.05100    89842352.00000000 56351424.00000000 142302144.00000000 53233.21093750  4354512.50000000 3447006.50000000 
0.05200    87926824.00000000 55160172.00000000 139281248.00000000 51822.04296875  4249452.50000000 3364084.25000000 
0.05300    86032552.00000000 53980704.00000000 136291872.00000000 50436.06640625  4145944.75000000 3282374.00000000 
0.05400    84159552.00000000 52814452.00000000 133337144.00000000 49075.76953125  4043963.50000000 3201857.75000000 
0.05500    82309160.00000000 51662460.00000000 130417128.00000000 47742.64843750  3943651.00000000 3122666.25000000 
0.05600    80484224.00000000 50525696.00000000 127535400.00000000 46436.71875000  3845064.00000000 3044808.75000000 
0.05700    78684536.00000000 49404620.00000000 124694728.00000000 45159.52734375  3748249.25000000 2968347.50000000 
0.05800    76912696.00000000 48300320.00000000 121897064.00000000 43911.16406250  3653286.25000000 2893353.25000000 
0.05900    75168856.00000000 47213612.00000000 119144032.00000000 42692.21875000  3560228.50000000 2819834.50000000 
0.06000    73454952.00000000 46144776.00000000 116437448.00000000 41503.32421875  3469091.25000000 2747851.75000000 
0.06100    71771368.00000000 45095284.00000000 113778640.00000000 40344.51171875  3379964.50000000 2677400.75000000 
0.06200    70120152.00000000 44065244.00000000 111169216.00000000 39216.04687500  3292842.50000000 2608575.00000000 
0.06300    68500360.00000000 43054760.00000000 108610568.00000000 38118.51953125  3207776.25000000 2541354.50000000 
0.06400    66913808.00000000 42064696.00000000 106104992.00000000 37050.92968750  3124755.50000000 2475763.25000000 
0.06500    65361992.00000000 41095940.00000000 103651800.00000000 36014.50781250  3043852.50000000 2411789.50000000 
0.06600    63843804.00000000 40148368.00000000 101253064.00000000 35008.32031250  2965038.50000000 2349512.75000000 
0.06700    62360624.00000000 39222124.00000000 98909152.00000000 34032.56640625  2888296.50000000 2288864.25000000 
0.06800    60912636.00000000 38318176.00000000 96620640.00000000 33086.78125000  2813710.75000000 2229893.50000000 
0.06900    59500324.00000000 37436500.00000000 94388920.00000000 32170.65625000  2741226.50000000 2172575.75000000 
0.07000    58124100.00000000 36576408.00000000 92213504.00000000 31284.03515625  2670824.75000000 2116905.25000000 
0.07100    56784200.00000000 35739020.00000000 90094232.00000000 30426.58789062  2602497.00000000 2062894.87500000 
0.07200    55480084.00000000 34924304.00000000 88033472.00000000 29597.40820312  2536278.75000000 2010520.25000000 
0.07300    54212552.00000000 34131908.00000000 86029152.00000000 28796.47851562  2472083.25000000 1959765.50000000 
0.07400    52980996.00000000 33362698.00000000 84081744.00000000 28022.79101562  2409903.00000000 1910608.37500000 
0.07500    51785632.00000000 32615672.00000000 82192680.00000000 27276.03710938  2349768.25000000 1863039.37500000 
0.07600    50626484.00000000 31891110.00000000 80359608.00000000 26555.00585938  2291552.50000000 1817010.12500000 
0.07700    49502664.00000000 31188874.00000000 78582928.00000000 25859.66210938  2235305.25000000 1772518.75000000 
0.07800    48414448.00000000 30509116.00000000 76862504.00000000 25189.16210938  2180934.25000000 1729516.25000000 
0.07900    47361380.00000000 29851058.00000000 75197424.00000000 24542.64257812  2128423.00000000 1687992.37500000 
0.08000    46342644.00000000 29214580.00000000 73587208.00000000 23919.07617188  2077726.50000000 1647899.62500000 
0.08100    45358476.00000000 28599798.00000000 72031504.00000000 23318.16992188  2028790.75000000 1609208.75000000 
0.08200    44407940.00000000 28005930.00000000 70528344.00000000 22738.94335938  1981597.50000000 1571885.87500000 
0.08300    43489820.00000000 27432940.00000000 69077680.00000000 22180.58593750  1936072.87500000 1535893.75000000 
0.08400    42605448.00000000 26880588.00000000 67679328.00000000 21642.17187500  1892165.25000000 1501184.25000000 
0.08500    41751944.00000000 26347998.00000000 66331572.00000000 21123.21289062  1849843.75000000 1467715.25000000 
0.08600    40929776.00000000 25835020.00000000 65032524.00000000 20622.53515625  1809045.75000000 1435456.00000000 
0.08700    40138716.00000000 25341508.00000000 63782520.00000000 20139.64843750  1769706.50000000 1404371.00000000 
0.08800    39376640.00000000 24866604.00000000 62579476.00000000 19673.57812500  1731799.00000000 1374399.75000000 
0.08900    38643928.00000000 24410228.00000000 61422692.00000000 19223.65625000  1695242.62500000 1345515.87500000 
0.09000    37939160.00000000 23971560.00000000 60310248.00000000 18788.87890625  1660001.37500000 1317667.12500000 
0.09100    37261880.00000000 23550078.00000000 59242132.00000000 18368.79101562  1626014.50000000 1290800.00000000 
0.09200    36610608.00000000 23145460.00000000 58215048.00000000 17962.23828125  1593224.25000000 1264904.50000000 
0.09300    35985652.00000000 22757058.00000000 57229480.00000000 17569.06250000  1561581.75000000 1239921.75000000 
0.09400    35385088.00000000 22384314.00000000 56283188.00000000 17188.02929688  1531039.75000000 1215794.87500000 
0.09500    34808692.00000000 22026766.00000000 55374716.00000000 16818.80078125  1501522.50000000 1192490.87500000 
0.09600    34255096.00000000 21683676.00000000 54503148.00000000 16460.74218750  1473014.37500000 1169980.87500000 
0.09700    33723648.00000000 21354836.00000000 53667376.00000000 16113.13867188  1445434.50000000 1148207.50000000 
0.09800    33213714.00000000 21039616.00000000 52864880.00000000 15775.18457031  1418755.62500000 1127165.62500000 
0.09900    32723808.00000000 20736974.00000000 52095076.00000000 15446.54101562  1392902.87500000 1106763.25000000 
0.10000    32253202.00000000 20447000.00000000 51356240.00000000 15126.57812500  1367847.37500000 1086996.75000000 
0.10100    31801706.00000000 20168680.00000000 50646856.00000000 14814.88281250  1343546.50000000 1067832.87500000 
0.10200    31367620.00000000 19901624.00000000 49965652.00000000 14510.93652344  1319948.00000000 1049219.12500000 
0.10300    30950140.00000000 19645358.00000000 49311260.00000000 14214.04980469  1297002.37500000 1031127.25000000 
0.10400    30548872.00000000 19399164.00000000 48682608.00000000 13924.02539062  1274674.00000000 1013526.93750000 
0.10500    30162798.00000000 19162740.00000000 48078024.00000000 13640.42871094  1252932.62500000 996386.12500000 
0.10600    29790350.00000000 18935084.00000000 47495672.00000000 13362.75000000  1231723.50000000 979669.56250000 
0.10700    29431914.00000000 18716242.00000000 46935212.00000000 13090.75097656  1211019.37500000 963347.62500000 
0.10800    29085770.00000000 18505364.00000000 46394784.00000000 12824.10937500  1190792.25000000 947410.18750000 
0.10900    28751698.00000000 18302070.00000000 45872832.00000000 12562.50195312  1170983.50000000 931803.50000000 
0.11000    28428418.00000000 18105730.00000000 45369160.00000000 12305.76464844  1151591.12500000 916508.00000000 
0.11100    28115402.00000000 17915968.00000000 44881568.00000000 12053.39843750  1132571.62500000 901524.31250000 
0.11200    27812348.00000000 17732164.00000000 44408688.00000000 11805.43554688  1113884.62500000 886807.68750000 
0.11300    27517842.00000000 17554142.00000000 43950816.00000000 11561.44433594  1095539.62500000 872342.81250000 
0.11400    27231320.00000000 17381270.00000000 43505276.00000000 11321.47558594  1077475.00000000 858104.93750000 
0.11500    26952760.00000000 17213134.00000000 43072368.00000000 11085.25097656  1059694.37500000 844092.93750000 
0.11600    26680818.00000000 17049228.00000000 42649796.00000000 10852.61621094  1042163.25000000 830270.12500000 
0.11700    26415190.00000000 16889404.00000000 42237444.00000000 10623.57031250  1024868.81250000 816635.43750000 
0.11800    26155364.00000000 16733002.00000000 41833868.00000000 10397.91210938  1007794.06250000 803161.43750000 
0.11900    25900350.00000000 16579952.00000000 41438340.00000000 10175.48632812  990917.68750000 789848.87500000 
0.12000    25650020.00000000 16429556.00000000 41050336.00000000 9956.33300781   974224.37500000 776676.18750000 
0.12100    25403948.00000000 16281909.00000000 40668476.00000000 9740.36523438   957703.31250000 763641.25000000 
0.12200    25161330.00000000 16136210.00000000 40292668.00000000 9527.57519531   941347.75000000 750726.56250000 
0.12300    24921844.00000000 15992615.00000000 39921000.00000000 9317.89843750   925146.75000000 737926.50000000 
0.12400    24685066.00000000 15850428.00000000 39553964.00000000 9111.23828125   909085.62500000 725243.87500000 
0.12500    24450510.00000000 15709660.00000000 39189972.00000000 8907.71972656   893161.87500000 712653.12500000 
0.12600    24217988.00000000 15570127.00000000 38829404.00000000 8707.29003906   877366.62500000 700168.93750000 
0.12700    23987222.00000000 15431165.00000000 38471092.00000000 8509.78320312   861689.06250000 687774.87500000 
0.12800    23757290.00000000 15292970.00000000 38114340.00000000 8315.39941406   846134.56250000 675462.12500000 
0.12900    23528588.00000000 15155070.00000000 37758832.00000000 8124.10791016   830706.37500000 663252.25000000 
0.13000    23300490.00000000 15017555.00000000 37404208.00000000 7935.88574219   815386.06250000 651119.18750000 
0.13100    23072778.00000000 14880057.00000000 37050076.00000000 7750.72851562   800173.68750000 639070.75000000 
0.13200    22845254.00000000 14742395.00000000 36696136.00000000 7568.65283203   785070.75000000 627106.00000000 
0.13300    22617688.00000000 14604589.00000000 36341520.00000000 7389.72998047   770092.87500000 615226.56250000 
0.13400    22389882.00000000 14466379.00000000 35986288.00000000 7213.95996094   755218.62500000 603428.31250000 
0.13500    22161752.00000000 14327736.00000000 35630320.00000000 7041.27050781   740461.00000000 591713.18750000 
0.13600    21932910.00000000 14188496.00000000 35273424.00000000 6871.85839844   725824.75000000 580091.31250000 
0.13700    21703550.00000000 14048528.00000000 34914692.00000000 6705.52832031   711296.06250000 568557.68750000 
0.13800    21473418.00000000 13907774.00000000 34554548.00000000 6542.40771484   696893.56250000 557109.06250000 
0.13900    21242346.00000000 13766299.00000000 34193040.00000000 6382.53222656   682615.56250000 545757.06250000 
0.14000    21010598.00000000 13623869.00000000 33829308.00000000 6225.87548828   668466.12500000 534499.31250000 
0.14100    20777868.00000000 13480735.00000000 33464016.00000000 6072.39404297   654448.87500000 523344.71875000 
0.14200    20544084.00000000 13336593.00000000 33096716.00000000 5922.14746094   640562.56250000 512285.15625000 
0.14300    20309214.00000000 13191480.00000000 32727360.00000000 5775.12207031   626820.93750000 501344.75000000 
0.14400    20073042.00000000 13045403.00000000 32355908.00000000 5631.33691406   613218.12500000 490504.46875000 
0.14500    19836274.00000000 12898386.00000000 31982516.00000000 5490.70800781   599773.06250000 479782.31250000 
0.14600    19598468.00000000 12750450.00000000 31607242.00000000 5353.36132812   586473.43750000 469172.53125000 
0.14700    19359564.00000000 12601666.00000000 31230160.00000000 5219.13623047   573330.75000000 458686.06250000 
0.14800    19119688.00000000 12451938.00000000 30850898.00000000 5088.05078125   560348.06250000 448322.34375000 
0.14900    18879146.00000000 12301396.00000000 30470226.00000000 4960.13281250   547531.37500000 438089.25000000 
0.15000    18637758.00000000 12149969.00000000 30087718.00000000 4835.35449219   534887.62500000 427982.81250000 
0.15100    18395404.00000000 11997784.00000000 29703660.00000000 4713.63818359   522414.75000000 418014.46875000 
0.15200    18152696.00000000 11845009.00000000 29318436.00000000 4595.03613281   510126.25000000 408182.62500000 
0.15300    17909528.00000000 11691510.00000000 28931878.00000000 4479.45410156   498017.06250000 398493.40625000 
0.15400    17665564.00000000 11537456.00000000 28544104.00000000 4366.86230469   486089.68750000 388948.71875000 
0.15500    17421472.00000000 11382832.00000000 28155636.00000000 4257.23681641   474355.81250000 379549.21875000 
0.15600    17177014.00000000 11227779.00000000 27766194.00000000 4150.53320312   462807.06250000 370300.12500000 
0.15700    16932642.00000000 11072417.00000000 27376472.00000000 4046.76196289   451463.31250000 361207.25000000 
0.15800    16688309.00000000 10916692.00000000 26986124.00000000 3945.76928711   440313.31250000 352264.25000000 
0.15900    16444117.00000000 10760850.00000000 26595806.00000000 3847.64013672   429361.90625000 343480.15625000 
0.16000    16199929.00000000 10604812.00000000 26205424.00000000 3752.22363281   418615.34375000 334857.46875000 
0.16100    15956189.00000000 10448837.00000000 25815366.00000000 3659.57446289   408078.43750000 326394.96875000 
0.16200    15713038.00000000 10292871.00000000 25425998.00000000 3569.58984375   397745.15625000 318094.75000000 
0.16300    15470549.00000000 10137037.00000000 25037004.00000000 3482.20800781   387621.15625000 309961.31250000 
0.16400    15228715.00000000 9981455.00000000 24649156.00000000 3397.46630859   377709.96875000 301991.06250000 
0.16500    14987781.00000000 9826284.00000000 24262320.00000000 3315.25317383   368004.96875000 294187.78125000 
0.16600    14747998.00000000 9671405.00000000 23877002.00000000 3235.52221680   358517.06250000 286552.28125000 
0.16700    14509336.00000000 9517057.00000000 23493110.00000000 3158.22363281   349239.40625000 279081.06250000 
0.16800    14271870.00000000 9363347.00000000 23110900.00000000 3083.34643555   340173.28125000 271780.96875000 
0.16900    14035895.00000000 9210409.00000000 22730968.00000000 3010.85766602   331325.62500000 264650.03125000 
0.17000    13801435.00000000 9058163.00000000 22352954.00000000 2940.65283203   322686.78125000 257683.87500000 
