# SAXS profile: number of points = 501, q_min = 0, q_max = 0.5, delta_q = 0.001
#    q    intensity 
0.00000    162237968.00000000 101202112.00000000 256271840.00000000 103019.22656250 8176486.50000000 6457769.50000000 
0.00100    162205488.00000000 101181096.00000000 256219504.00000000 102994.32812500 8174670.50000000 6456317.00000000 
0.00200    162107744.00000000 101119552.00000000 256063776.00000000 102921.43750000 8169250.00000000 6452052.00000000 
0.00300    161943888.00000000 101017360.00000000 255803728.00000000 102798.51562500 8160226.00000000 6444953.50000000 
0.00400    161711920.00000000 100873344.00000000 255439856.00000000 102628.67187500 8147554.50000000 6434944.00000000 
0.00500    161414304.00000000 100689688.00000000 254971360.00000000 102409.92187500 8131331.50000000 6422187.50000000 
0.00600    161052784.00000000 100464928.00000000 254401488.00000000 102142.97656250 8111487.50000000 6406582.50000000 
0.00700    160626224.00000000 100199800.00000000 253727968.00000000 101828.38281250 8088224.00000000 6388208.50000000 
0.00800    160134784.00000000 99895640.00000000 252954848.00000000 101466.86718750 8061376.50000000 6367094.50000000 
0.00900    159577664.00000000 99551312.00000000 252081808.00000000 101058.42187500 8031091.50000000 6343221.50000000 
0.01000    158960480.00000000 99168568.00000000 251111104.00000000 100603.69531250 7997423.50000000 6316647.50000000 
0.01100    158281472.00000000 98747272.00000000 250040720.00000000 100104.05468750 7960306.50000000 6287444.50000000 
0.01200    157542944.00000000 98288888.00000000 248875152.00000000 99559.53906250  7919903.50000000 6255575.00000000 
0.01300    156743504.00000000 97792528.00000000 247614560.00000000 98971.00000000  7876224.50000000 6221180.50000000 
0.01400    155883216.00000000 97259096.00000000 246261232.00000000 98338.77343750  7829327.50000000 6184225.00000000 
0.01500    154966672.00000000 96690776.00000000 244816112.00000000 97664.96875000  7779274.00000000 6144768.50000000 
0.01600    153991888.00000000 96085672.00000000 243281584.00000000 96949.57812500  7726098.00000000 6102881.00000000 
0.01700    152962016.00000000 95446808.00000000 241659136.00000000 96194.35156250  7669936.00000000 6058661.00000000 
0.01800    151878400.00000000 94775168.00000000 239951936.00000000 95399.21093750  7610888.50000000 6012088.00000000 
0.01900    150742160.00000000 94070256.00000000 238162272.00000000 94565.71875000  7548923.00000000 5963240.00000000 
0.02000    149554784.00000000 93333576.00000000 236290544.00000000 93695.50781250  7484194.00000000 5912249.00000000 
0.02100    148316608.00000000 92565184.00000000 234341152.00000000 92789.32031250  7416755.50000000 5859100.00000000 
0.02200    147030032.00000000 91766800.00000000 232314544.00000000 91847.95312500  7346695.00000000 5803906.00000000 
0.02300    145696720.00000000 90940096.00000000 230214944.00000000 90874.06250000  7274117.00000000 5746754.50000000 
0.02400    144318544.00000000 90085520.00000000 228043280.00000000 89867.59375000  7199143.00000000 5687630.00000000 
0.02500    142897328.00000000 89203624.00000000 225804704.00000000 88830.39843750  7121845.00000000 5626718.50000000 
0.02600    141434400.00000000 88295736.00000000 223499024.00000000 87764.10156250  7042272.50000000 5564018.00000000 
0.02700    139931296.00000000 87363928.00000000 221131952.00000000 86669.60156250  6960619.50000000 5499670.50000000 
0.02800    138390576.00000000 86407624.00000000 218703632.00000000 85548.42187500  6876911.50000000 5433699.50000000 
0.02900    136813152.00000000 85429008.00000000 216219392.00000000 84401.91406250  6791289.50000000 5366201.50000000 
0.03000    135201632.00000000 84429560.00000000 213681568.00000000 83231.96093750  6703840.00000000 5297316.00000000 
0.03100    133557952.00000000 83409648.00000000 211091344.00000000 82039.75781250  6614674.50000000 5227018.00000000 
0.03200    131883656.00000000 82370872.00000000 208454048.00000000 80826.76562500  6523906.00000000 5155502.50000000 
0.03300    130180896.00000000 81314728.00000000 205772208.00000000 79594.64062500  6431670.50000000 5082795.00000000 
0.03400    128451184.00000000 80241560.00000000 203046752.00000000 78344.81250000  6337991.50000000 5008976.00000000 
0.03500    126697560.00000000 79153456.00000000 200284160.00000000 77078.98437500  6243090.50000000 4934151.00000000 
0.03600    124921344.00000000 78051112.00000000 197486016.00000000 75797.57812500  6147000.00000000 4858422.00000000 
0.03700    123124144.00000000 76937008.00000000 194654800.00000000 74503.71093750  6049870.50000000 4781836.50000000 
0.03800    121308336.00000000 75810256.00000000 191794336.00000000 73198.57812500  5951727.00000000 4704528.00000000 
0.03900    119476816.00000000 74673240.00000000 188907728.00000000 71882.70312500  5852827.50000000 4626554.50000000 
0.04000    117629152.00000000 73527104.00000000 185998704.00000000 70558.17187500  5753157.00000000 4548012.50000000 
0.04100    115770120.00000000 72373208.00000000 183067520.00000000 69227.03125000  5652886.00000000 4468952.50000000 
0.04200    113899600.00000000 71213088.00000000 180122592.00000000 67889.56250000  5552119.00000000 4389503.50000000 
0.04300    112021304.00000000 70047488.00000000 177162064.00000000 66548.37500000  5450902.00000000 4309771.00000000 
0.04400    110135232.00000000 68877768.00000000 174191520.00000000 65204.14062500  5349448.00000000 4229762.00000000 
0.04500    108244056.00000000 67704800.00000000 171213664.00000000 63858.63281250  5247792.50000000 4149618.50000000 
0.04600    106351448.00000000 66529216.00000000 168229488.00000000 62513.12890625  5146006.00000000 4069399.00000000 
0.04700    104455976.00000000 65353580.00000000 165244320.00000000 61169.01953125  5044264.00000000 3989178.75000000 
0.04800    102562200.00000000 64177968.00000000 162259120.00000000 59827.59765625  4942646.00000000 3909049.00000000 
0.04900    100670312.00000000 63004316.00000000 159279712.00000000 58490.23828125  4841185.00000000 3829089.25000000 
0.05000    98782672.00000000 61833008.00000000 156305440.00000000 57158.08593750  4740079.00000000 3749341.25000000 
0.05100    96900968.00000000 60665320.00000000 153341536.00000000 55832.66406250  4639345.50000000 3669933.50000000 
0.05200    95027400.00000000 59502380.00000000 150388720.00000000 54514.46093750  4539109.00000000 3590888.25000000 
0.05300    93162344.00000000 58345152.00000000 147450608.00000000 53205.77343750  4439438.50000000 3512299.00000000 
0.05400    91308608.00000000 57194480.00000000 144529296.00000000 51906.82812500  4340426.00000000 3434221.00000000 
0.05500    89466568.00000000 56051648.00000000 141628272.00000000 50619.19921875  4242107.00000000 3356721.50000000 
0.05600    87638808.00000000 54917108.00000000 138747280.00000000 49343.44140625  4144655.75000000 3279874.50000000 
0.05700    85826704.00000000 53792472.00000000 135890992.00000000 48081.00390625  4048092.75000000 3203718.25000000 
0.05800    84030464.00000000 52677824.00000000 133062208.00000000 46832.69140625  3952491.50000000 3128348.25000000 
0.05900    82252728.00000000 51574416.00000000 130260928.00000000 45599.23828125  3857951.50000000 3053751.25000000 
0.06000    80493256.00000000 50482848.00000000 127489712.00000000 44381.56640625  3764478.50000000 2980043.75000000 
0.06100    78755336.00000000 49403924.00000000 124750104.00000000 43180.78125000  3672195.25000000 2907269.50000000 
0.06200    77038712.00000000 48338676.00000000 122045008.00000000 41997.38671875  3581143.50000000 2835429.25000000 
0.06300    75344352.00000000 47287252.00000000 119375776.00000000 40832.31640625  3491364.50000000 2764629.25000000 
0.06400    73673904.00000000 46250704.00000000 116743800.00000000 39685.87500000  3402906.75000000 2694873.25000000 
0.06500    72028088.00000000 45229040.00000000 114150664.00000000 38559.09375000  3315847.75000000 2626191.25000000 
0.06600    70408440.00000000 44223928.00000000 111597784.00000000 37451.95312500  3230232.25000000 2558652.25000000 
0.06700    68814888.00000000 43234904.00000000 109086856.00000000 36365.92578125  3146079.75000000 2492261.00000000 
0.06800    67248504.00000000 42262700.00000000 106618624.00000000 35300.69140625  3063444.50000000 2427074.75000000 
0.06900    65710064.00000000 41307896.00000000 104194632.00000000 34256.99609375  2982359.00000000 2363103.25000000 
0.07000    64200056.00000000 40370660.00000000 101815952.00000000 33235.07812500  2902837.25000000 2300370.00000000 
0.07100    62719516.00000000 39451968.00000000 99483160.00000000 32235.34179688  2824952.50000000 2238906.75000000 
0.07200    61268960.00000000 38551564.00000000 97196992.00000000 31258.03515625  2748689.75000000 2178754.25000000 
0.07300    59848556.00000000 37670184.00000000 94958976.00000000 30303.74414062  2674092.50000000 2119868.50000000 
0.07400    58458720.00000000 36807676.00000000 92768904.00000000 29372.20703125  2601169.00000000 2062324.50000000 
0.07500    57100128.00000000 35964224.00000000 90628320.00000000 28463.88281250  2529947.25000000 2006102.25000000 
0.07600    55772512.00000000 35140304.00000000 88536432.00000000 27578.41210938  2460410.00000000 1951231.12500000 
0.07700    54476840.00000000 34336264.00000000 86494680.00000000 26716.54101562  2392577.00000000 1897704.37500000 
0.07800    53212628.00000000 33551962.00000000 84502552.00000000 25877.83398438  2326492.25000000 1845537.37500000 
0.07900    51980288.00000000 32786910.00000000 82560808.00000000 25062.49414062  2262100.75000000 1794716.25000000 
0.08000    50780216.00000000 32042016.00000000 80669464.00000000 24270.00000000  2199463.75000000 1745262.12500000 
0.08100    49611624.00000000 31317024.00000000 78829200.00000000 23501.11132812  2138531.25000000 1697155.00000000 
0.08200    48475252.00000000 30611536.00000000 77037840.00000000 22754.91992188  2079314.50000000 1650403.12500000 
0.08300    47370684.00000000 29926076.00000000 75297592.00000000 22031.77148438  2021792.50000000 1604979.25000000 
0.08400    46297384.00000000 29260180.00000000 73606856.00000000 21330.98242188  1965957.50000000 1560902.75000000 
0.08500    45256092.00000000 28613764.00000000 71965912.00000000 20653.11132812  1911816.00000000 1518141.62500000 
0.08600    44245708.00000000 27986910.00000000 70373904.00000000 19997.21093750  1859334.62500000 1476699.00000000 
0.08700    43266248.00000000 27379184.00000000 68830792.00000000 19362.97265625  1808494.25000000 1436549.37500000 
0.08800    42317568.00000000 26790460.00000000 67335896.00000000 18750.61914062  1759275.50000000 1397659.87500000 
0.08900    41399284.00000000 26220570.00000000 65888476.00000000 18159.23437500  1711674.87500000 1360060.37500000 
0.09000    40510732.00000000 25669284.00000000 64488568.00000000 17589.00390625  1665642.62500000 1323685.00000000 
0.09100    39651720.00000000 25136266.00000000 63135104.00000000 17039.16796875  1621161.75000000 1288551.87500000 
0.09200    38821236.00000000 24621124.00000000 61826872.00000000 16509.35742188  1578202.12500000 1254615.25000000 
0.09300    38019728.00000000 24123784.00000000 60563756.00000000 15999.32910156  1536757.87500000 1221852.37500000 
0.09400    37245636.00000000 23643594.00000000 59344568.00000000 15508.48535156  1496757.50000000 1190232.62500000 
0.09500    36499076.00000000 23180474.00000000 58167992.00000000 15036.47460938  1458198.50000000 1159756.75000000 
0.09600    35779312.00000000 22733848.00000000 57034192.00000000 14582.68945312  1421032.12500000 1130376.25000000 
0.09700    35085856.00000000 22303334.00000000 55941520.00000000 14146.78125000  1385227.12500000 1102070.25000000 
0.09800    34417712.00000000 21888940.00000000 54888556.00000000 13728.34863281  1350762.87500000 1074817.87500000 
0.09900    33774280.00000000 21489792.00000000 53875044.00000000 13326.67285156  1317580.25000000 1048584.25000000 
0.10000    33154890.00000000 21105614.00000000 52899280.00000000 12941.36914062  1285659.25000000 1023332.12500000 
0.10100    32559070.00000000 20735892.00000000 51960456.00000000 12571.89746094  1254953.25000000 999029.75000000 
0.10200    31985946.00000000 20380450.00000000 51057280.00000000 12217.74316406  1225429.25000000 975667.93750000 
0.10300    31434640.00000000 20038430.00000000 50189044.00000000 11878.29101562  1197032.87500000 953203.68750000 
0.10400    30904824.00000000 19709726.00000000 49354252.00000000 11553.23144531  1169750.00000000 931602.62500000 
0.10500    30395428.00000000 19393700.00000000 48551620.00000000 11242.00292969  1143520.50000000 910848.06250000 
0.10600    29905556.00000000 19089976.00000000 47779984.00000000 10943.78320312  1118323.50000000 890888.37500000 
0.10700    29435038.00000000 18797902.00000000 47038204.00000000 10658.50683594  1094106.50000000 871711.31250000 
0.10800    28982528.00000000 18517194.00000000 46325348.00000000 10385.35937500  1070828.12500000 853272.43750000 
0.10900    28547534.00000000 18247462.00000000 45639940.00000000 10123.79003906  1048457.93750000 835549.93750000 
0.11000    28129532.00000000 17987976.00000000 44981088.00000000 9873.53125000   1026953.56250000 818505.62500000 
0.11100    27727270.00000000 17738264.00000000 44347156.00000000 9633.93066406   1006273.87500000 802110.93750000 
0.11200    27340150.00000000 17498188.00000000 43737444.00000000 9404.49414062   986385.93750000 786339.00000000 
0.11300    26967798.00000000 17266912.00000000 43149960.00000000 9184.81835938   967255.25000000 771158.93750000 
0.11400    26609010.00000000 17044218.00000000 42584828.00000000 8974.41503906   948825.93750000 756545.12500000 
0.11500    26263198.00000000 16829552.00000000 42039584.00000000 8772.70898438   931086.81250000 742465.50000000 
0.11600    25929732.00000000 16622482.00000000 41513784.00000000 8579.38574219   913983.87500000 728888.93750000 
0.11700    25608092.00000000 16422559.00000000 41006360.00000000 8394.07226562   897493.50000000 715794.56250000 
0.11800    25296950.00000000 16229342.00000000 40516260.00000000 8216.08300781   881574.12500000 703145.06250000 
0.11900    24996280.00000000 16042479.00000000 40041908.00000000 8045.16845703   866190.87500000 690924.18750000 
0.12000    24705072.00000000 15861517.00000000 39582536.00000000 7880.91210938   851321.00000000 679101.75000000 
0.12100    24422976.00000000 15685969.00000000 39137672.00000000 7722.90966797   836933.43750000 667661.25000000 
0.12200    24149048.00000000 15515591.00000000 38705304.00000000 7570.82470703   822986.06250000 656569.68750000 
0.12300    23882882.00000000 15350012.00000000 38285024.00000000 7424.26660156   809461.37500000 645806.12500000 
0.12400    23623760.00000000 15188585.00000000 37876104.00000000 7282.90429688   796321.62500000 635346.68750000 
0.12500    23371232.00000000 15031217.00000000 37477228.00000000 7146.37890625   783546.87500000 625176.18750000 
0.12600    23124700.00000000 14877647.00000000 37087952.00000000 7014.42285156   771118.87500000 615269.68750000 
0.12700    22883584.00000000 14727215.00000000 36706896.00000000 6886.71533203   758991.18750000 605610.43750000 
0.12800    22647340.00000000 14579738.00000000 36333432.00000000 6762.92187500   747162.25000000 596173.56250000 
0.12900    22415616.00000000 14435148.00000000 35967120.00000000 6642.86083984   735593.62500000 586949.06250000 
0.13000    22187854.00000000 14292914.00000000 35607272.00000000 6526.22851562   724272.87500000 577913.06250000 
0.13100    21963702.00000000 14152574.00000000 35252504.00000000 6412.73925781   713170.25000000 569056.62500000 
0.13200    21742624.00000000 14014357.00000000 34902564.00000000 6302.29248047   702281.43750000 560358.93750000 
0.13300    21524414.00000000 13877644.00000000 34556844.00000000 6194.56738281   691581.43750000 551812.37500000 
0.13400    21308408.00000000 13742326.00000000 34215272.00000000 6089.35986328   681048.62500000 543399.56250000 
0.13500    21094466.00000000 13608259.00000000 33876084.00000000 5986.53320312   670679.56250000 535111.87500000 
0.13600    20882284.00000000 13474992.00000000 33539584.00000000 5885.92773438   660448.81250000 526932.93750000 
0.13700    20671272.00000000 13342505.00000000 33205326.00000000 5787.32470703   650347.87500000 518850.81250000 
0.13800    20461464.00000000 13210646.00000000 32872722.00000000 5690.63232422   640363.43750000 510858.75000000 
0.13900    20252626.00000000 13079218.00000000 32541002.00000000 5595.69921875   630482.06250000 502954.37500000 
0.14000    20044296.00000000 12948031.00000000 32210350.00000000 5502.42675781   620698.68750000 495121.71875000 
0.14100    19836234.00000000 12817058.00000000 31880182.00000000 5410.69775391   611004.37500000 487355.31250000 
0.14200    19628436.00000000 12685999.00000000 31549922.00000000 5320.31738281   601381.75000000 479648.65625000 
0.14300    19420556.00000000 12554810.00000000 31219610.00000000 5231.35351562   591838.50000000 472000.21875000 
0.14400    19212534.00000000 12423497.00000000 30888986.00000000 5143.59033203   582352.00000000 464397.46875000 
0.14500    19004254.00000000 12291920.00000000 30557842.00000000 5057.08349609   572926.68750000 456842.62500000 
0.14600    18795660.00000000 12159924.00000000 30225786.00000000 4971.69824219   563555.50000000 449332.12500000 
0.14700    18586474.00000000 12027600.00000000 29892950.00000000 4887.36083984   554241.31250000 441858.03125000 
0.14800    18376578.00000000 11894694.00000000 29558840.00000000 4804.10595703   544969.75000000 434420.31250000 
0.14900    18166114.00000000 11761274.00000000 29223840.00000000 4721.81054688   535743.18750000 427017.65625000 
0.15000    17954990.00000000 11627355.00000000 28887398.00000000 4640.51562500   526560.68750000 419648.21875000 
0.15100    17743088.00000000 11492863.00000000 28549736.00000000 4560.16210938   517420.18750000 412312.53125000 
0.15200    17530558.00000000 11357821.00000000 28210686.00000000 4480.78320312   508325.18750000 405008.15625000 
0.15300    17317206.00000000 11222292.00000000 27870554.00000000 4402.23583984   499270.21875000 397736.65625000 
0.15400    17102992.00000000 11086061.00000000 27528856.00000000 4324.64257812   490259.21875000 390498.06250000 
0.15500    16888186.00000000 10949371.00000000 27185912.00000000 4247.97070312   481290.18750000 383292.40625000 
0.15600    16672565.00000000 10812062.00000000 26842032.00000000 4172.19287109   472365.96875000 376120.68750000 
0.15700    16456424.00000000 10674347.00000000 26496840.00000000 4097.35351562   463488.59375000 368990.03125000 
0.15800    16239614.00000000 10536130.00000000 26150468.00000000 4023.39379883   454659.50000000 361893.87500000 
0.15900    16022255.00000000 10397454.00000000 25803396.00000000 3950.38012695   445884.25000000 354838.06250000 
0.16000    15804494.00000000 10258490.00000000 25455258.00000000 3878.31811523   437161.00000000 347825.06250000 
0.16100    15586433.00000000 10119169.00000000 25106728.00000000 3807.23437500   428500.18750000 340860.18750000 
0.16200    15368000.00000000 9979630.00000000 24757528.00000000 3737.08422852   419897.28125000 333941.71875000 
0.16300    15149447.00000000 9839853.00000000 24407604.00000000 3667.94018555   411356.50000000 327071.43750000 
0.16400    14930878.00000000 9699917.00000000 24057842.00000000 3599.83740234   402884.28125000 320253.68750000 
0.16500    14712259.00000000 9559972.00000000 23708166.00000000 3532.69140625   394484.65625000 313493.75000000 
0.16600    14493797.00000000 9420060.00000000 23358328.00000000 3466.61938477   386158.56250000 306793.06250000 
0.16700    14275537.00000000 9280214.00000000 23008908.00000000 3401.57983398   377909.09375000 300152.90625000 
0.16800    14057640.00000000 9140376.00000000 22659796.00000000 3337.61840820   369742.75000000 293578.78125000 
0.16900    13840334.00000000 9000970.00000000 22311656.00000000 3274.75024414   361663.03125000 287074.46875000 
0.17000    13623561.00000000 8861865.00000000 21964196.00000000 3212.98706055   353669.68750000 280636.56250000 
