# SAXS profile: number of points = 501, q_min = 0, q_max = 0.5, delta_q = 0.001
#    q    intensity 
0.00000    162234848.00000000 101201976.00000000 256271776.00000000 108962.52343750 8409019.00000000 6641453.00000000 
0.00100    162195152.00000000 101176392.00000000 256206512.00000000 108928.03125000 8406613.00000000 6639513.50000000 
0.00200    162075504.00000000 101099928.00000000 256013536.00000000 108825.49218750 8399400.00000000 6633854.50000000 
0.00300    161870736.00000000 100973632.00000000 255688560.00000000 108655.08593750 8387376.50000000 6624427.50000000 
0.00400    161582848.00000000 100796056.00000000 255234976.00000000 108417.09375000 8370605.00000000 6611254.50000000 
0.00500    161210368.00000000 100567784.00000000 254655440.00000000 108111.42968750 8349076.00000000 6594327.50000000 
0.00600    160757728.00000000 100288984.00000000 253945232.00000000 107739.03906250 8322803.00000000 6573711.50000000 
0.00700    160226688.00000000 99962032.00000000 253111856.00000000 107301.87500000 8291937.00000000 6549476.00000000 
0.00800    159611440.00000000 99586424.00000000 252155104.00000000 106798.96093750 8256449.50000000 6521556.50000000 
0.00900    158923936.00000000 99162640.00000000 251072992.00000000 106232.46093750 8216446.00000000 6490132.50000000 
0.01000    158157168.00000000 98692272.00000000 249871408.00000000 105603.28906250 8172017.00000000 6455220.00000000 
0.01100    157316784.00000000 98174768.00000000 248549680.00000000 104913.04687500 8123185.00000000 6416856.00000000 
0.01200    156401376.00000000 97609760.00000000 247112016.00000000 104161.92968750 8070125.50000000 6375207.50000000 
0.01300    155410768.00000000 97001296.00000000 245561664.00000000 103352.42187500 8012918.00000000 6330201.00000000 
0.01400    154351872.00000000 96347968.00000000 243897712.00000000 102486.67187500 7951586.50000000 6282038.50000000 
0.01500    153222976.00000000 95653320.00000000 242127440.00000000 101564.88281250 7886331.50000000 6230681.00000000 
0.01600    152026656.00000000 94917456.00000000 240247888.00000000 100591.16406250 7817232.00000000 6176445.50000000 
0.01700    150764208.00000000 94140720.00000000 238269328.00000000 99565.25000000  7744480.00000000 6119221.50000000 
0.01800    149440960.00000000 93324600.00000000 236189280.00000000 98490.34375000  7668105.50000000 6059251.50000000 
0.01900    148055776.00000000 92471576.00000000 234014448.00000000 97368.12500000  7588366.00000000 5996570.00000000 
0.02000    146611184.00000000 91581288.00000000 231747680.00000000 96200.45312500  7505309.50000000 5931289.00000000 
0.02100    145109680.00000000 90657080.00000000 229391696.00000000 94990.01562500  7419130.00000000 5863516.50000000 
0.02200    143555632.00000000 89698984.00000000 226951168.00000000 93738.79687500  7329977.00000000 5793440.00000000 
0.02300    141949392.00000000 88709152.00000000 224428592.00000000 92450.09375000  7237996.00000000 5721110.00000000 
0.02400    140294704.00000000 87690112.00000000 221831136.00000000 91125.99218750  7143388.00000000 5646676.50000000 
0.02500    138594656.00000000 86640880.00000000 219160784.00000000 89767.75781250  7046256.50000000 5570318.00000000 
0.02600    136851760.00000000 85565104.00000000 216421360.00000000 88379.17187500  6946782.50000000 5492122.00000000 
0.02700    135066288.00000000 84464104.00000000 213617584.00000000 86962.00781250  6845171.50000000 5412184.50000000 
0.02800    133243616.00000000 83338952.00000000 210754240.00000000 85519.30468750  6741562.00000000 5330661.00000000 
0.02900    131385504.00000000 82192832.00000000 207835216.00000000 84052.93750000  6636108.50000000 5247697.00000000 
0.03000    129496192.00000000 81026400.00000000 204863536.00000000 82565.84375000  6529044.00000000 5163489.00000000 
0.03100    127576080.00000000 79840448.00000000 201847120.00000000 81061.07031250  6420475.50000000 5078105.00000000 
0.03200    125630488.00000000 78638088.00000000 198788016.00000000 79540.20312500  6310621.50000000 4991655.00000000 
0.03300    123659296.00000000 77419824.00000000 195689184.00000000 78006.28906250  6199651.00000000 4904315.00000000 
0.03400    121668864.00000000 76189120.00000000 192557168.00000000 76461.63281250  6087673.50000000 4816180.00000000 
0.03500    119659656.00000000 74947192.00000000 189399616.00000000 74909.00000000  5974979.00000000 4727437.00000000 
0.03600    117634728.00000000 73695744.00000000 186215088.00000000 73351.01562500  5861632.50000000 4638217.00000000 
0.03700    115597696.00000000 72435472.00000000 183009456.00000000 71789.13281250  5747849.00000000 4548628.50000000 
0.03800    113549432.00000000 71168728.00000000 179787312.00000000 70226.30468750  5633705.50000000 4458761.50000000 
0.03900    111495528.00000000 69896016.00000000 176554576.00000000 68664.70312500  5519452.50000000 4368813.00000000 
0.04000    109436256.00000000 68620856.00000000 173313728.00000000 67106.00000000  5405208.00000000 4278771.00000000 
0.04100    107375608.00000000 67343696.00000000 170069456.00000000 65553.32031250  5291162.50000000 4188918.25000000 
0.04200    105315072.00000000 66067092.00000000 166825184.00000000 64007.92968750  5177446.50000000 4099315.75000000 
0.04300    103258224.00000000 64791900.00000000 163585648.00000000 62471.93359375  5064120.00000000 4010038.50000000 
0.04400    101206160.00000000 63519616.00000000 160355248.00000000 60947.74218750  4951434.00000000 3921210.50000000 
0.04500    99163400.00000000 62251824.00000000 157136480.00000000 59437.04687500  4839499.50000000 3832961.75000000 
0.04600    97130112.00000000 60990160.00000000 153932528.00000000 57941.42968750  4728415.50000000 3745376.50000000 
0.04700    95110048.00000000 59735640.00000000 150748128.00000000 56462.90625000  4618287.00000000 3658543.75000000 
0.04800    93104280.00000000 58489756.00000000 147585600.00000000 55002.32031250  4509286.50000000 3572592.75000000 
0.04900    91114552.00000000 57253580.00000000 144449552.00000000 53561.91406250  4401492.50000000 3487574.75000000 
0.05000    89144720.00000000 56028452.00000000 141342592.00000000 52142.71093750  4295012.00000000 3403597.00000000 
0.05100    87194312.00000000 54816656.00000000 138267968.00000000 50746.20703125  4189964.25000000 3320690.25000000 
0.05200    85267264.00000000 53617392.00000000 135226784.00000000 49373.28125000  4086428.50000000 3238976.75000000 
0.05300    83364608.00000000 52433204.00000000 132225736.00000000 48025.64843750  3984509.25000000 3158518.75000000 
0.05400    81487376.00000000 51263928.00000000 129262784.00000000 46703.55078125  3884232.25000000 3079352.50000000 
0.05500    79637216.00000000 50111704.00000000 126342472.00000000 45408.37109375  3785755.75000000 3001580.00000000 
0.05600    77816416.00000000 48976996.00000000 123467472.00000000 44140.95703125  3689085.00000000 2925230.75000000 
0.05700    76025656.00000000 47860420.00000000 120638280.00000000 42902.10156250  3594309.75000000 2850347.50000000 
0.05800    74265392.00000000 46762772.00000000 117859800.00000000 41692.05468750  3501464.50000000 2777003.75000000 
0.05900    72538680.00000000 45685064.00000000 115131040.00000000 40511.21093750  3410630.00000000 2705219.25000000 
0.06000    70844776.00000000 44627624.00000000 112455160.00000000 39360.54687500  3321818.00000000 2635008.50000000 
0.06100    69186000.00000000 43591832.00000000 109832208.00000000 38240.33593750  3235091.50000000 2566424.50000000 
0.06200    67561896.00000000 42577248.00000000 107264632.00000000 37151.04296875  3150460.00000000 2499504.00000000 
0.06300    65973664.00000000 41584624.00000000 104754752.00000000 36091.61718750  3067949.75000000 2434253.00000000 
0.06400    64422348.00000000 40614556.00000000 102300880.00000000 35063.42578125  2987594.25000000 2370656.25000000 
0.06500    62908540.00000000 39667880.00000000 99905672.00000000 34065.64843750  2909398.50000000 2308802.00000000 
0.06600    61432176.00000000 38743688.00000000 97570176.00000000 33098.85937500  2833371.00000000 2248615.00000000 
0.06700    59993464.00000000 37843376.00000000 95293664.00000000 32162.71289062  2759516.25000000 2190144.50000000 
0.06800    58593172.00000000 36966400.00000000 93077552.00000000 31256.63867188  2687827.25000000 2133377.75000000 
0.06900    57231948.00000000 36113372.00000000 90922224.00000000 30380.78710938  2618304.00000000 2078307.62500000 
0.07000    55908976.00000000 35284100.00000000 88827584.00000000 29534.77734375  2550926.00000000 2024926.12500000 
0.07100    54623904.00000000 34478824.00000000 86792784.00000000 28717.78710938  2485665.50000000 1973226.50000000 
0.07200    53378240.00000000 33697028.00000000 84819536.00000000 27929.61914062  2422510.00000000 1923177.62500000 
0.07300    52171060.00000000 32939910.00000000 82906184.00000000 27169.94531250  2361460.50000000 1874776.62500000 
0.07400    51001396.00000000 32206368.00000000 81053864.00000000 26437.96093750  2302436.50000000 1827991.25000000 
0.07500    49869960.00000000 31495776.00000000 79261192.00000000 25733.03515625  2245469.25000000 1782792.37500000 
0.07600    48775640.00000000 30809084.00000000 77526776.00000000 25054.33984375  2190467.50000000 1739181.75000000 
0.07700    47719068.00000000 30145376.00000000 75851640.00000000 24401.62890625  2137410.00000000 1697083.62500000 
0.07800    46698464.00000000 29504534.00000000 74234336.00000000 23773.92773438  2086279.37500000 1656498.12500000 
0.07900    45714216.00000000 28886168.00000000 72673920.00000000 23170.52734375  2036982.37500000 1617367.00000000 
0.08000    44765692.00000000 28290416.00000000 71170408.00000000 22590.57617188  1989494.75000000 1579685.87500000 
0.08100    43851744.00000000 27716128.00000000 69720888.00000000 22033.29492188  1943800.75000000 1543392.12500000 
0.08200    42972008.00000000 27163660.00000000 68326392.00000000 21498.08984375  1899793.25000000 1508457.12500000 
0.08300    42125624.00000000 26631874.00000000 66985440.00000000 20983.76562500  1857444.75000000 1474833.00000000 
0.08400    41311892.00000000 26120694.00000000 65694748.00000000 20489.75195312  1816699.87500000 1442473.50000000 
0.08500    40530212.00000000 25629728.00000000 64455836.00000000 20015.11523438  1777516.50000000 1411346.25000000 
0.08600    39779452.00000000 25158170.00000000 63265344.00000000 19559.15039062  1739828.37500000 1381399.75000000 
0.08700    39058232.00000000 24705582.00000000 62122748.00000000 19120.95312500  1703582.62500000 1352595.25000000 
0.08800    38366652.00000000 24271670.00000000 61027264.00000000 18699.52343750  1668705.50000000 1324898.37500000 
0.08900    37703156.00000000 23855672.00000000 59976664.00000000 18294.03125000  1635157.25000000 1298249.75000000 
0.09000    37068064.00000000 23457170.00000000 58969628.00000000 17904.14843750  1602894.87500000 1272603.37500000 
0.09100    36458204.00000000 23075258.00000000 58004680.00000000 17528.63867188  1571831.50000000 1247926.50000000 
0.09200    35874000.00000000 22709562.00000000 57079976.00000000 17166.68164062  1541919.37500000 1224153.75000000 
0.09300    35314484.00000000 22359296.00000000 56194640.00000000 16817.66992188  1513119.00000000 1201269.00000000 
0.09400    34778688.00000000 22024344.00000000 55347024.00000000 16480.92382812  1485353.00000000 1179210.50000000 
0.09500    34265032.00000000 21703530.00000000 54535148.00000000 16155.50097656  1458577.00000000 1157950.50000000 
0.09600    33772932.00000000 21396784.00000000 53757488.00000000 15840.70703125  1432736.75000000 1137424.75000000 
0.09700    33301692.00000000 21102802.00000000 53013116.00000000 15536.24902344  1407793.25000000 1117617.75000000 
0.09800    32849712.00000000 20821810.00000000 52300092.00000000 15241.01757812  1383682.75000000 1098480.25000000 
0.09900    32416782.00000000 20552670.00000000 51616856.00000000 14954.47753906  1360351.25000000 1079955.37500000 
0.10000    32001378.00000000 20294674.00000000 50962012.00000000 14676.18945312  1337760.37500000 1062024.87500000 
0.10100    31602426.00000000 20047520.00000000 50333708.00000000 14405.32324219  1315851.12500000 1044643.37500000 
0.10200    31219386.00000000 19810682.00000000 49731072.00000000 14141.72363281  1294606.25000000 1027784.43750000 
0.10300    30851272.00000000 19583202.00000000 49152496.00000000 13884.48242188  1273948.12500000 1011405.06250000 
0.10400    30497270.00000000 19365026.00000000 48595672.00000000 13633.41992188  1253873.00000000 995482.43750000 
0.10500    30156424.00000000 19155272.00000000 48060888.00000000 13388.08691406  1234297.62500000 979977.56250000 
0.10600    29827824.00000000 18953242.00000000 47545480.00000000 13147.65039062  1215217.50000000 964860.00000000 
0.10700    29510494.00000000 18759022.00000000 47048284.00000000 12912.25976562  1196581.87500000 950110.56250000 
0.10800    29203768.00000000 18571392.00000000 46568468.00000000 12680.96875000  1178369.37500000 935686.06250000 
0.10900    28907136.00000000 18390174.00000000 46104424.00000000 12454.01464844  1160542.62500000 921571.62500000 
0.11000    28619308.00000000 18214800.00000000 45655128.00000000 12230.75195312  1143060.50000000 907742.56250000 
0.11100    28340106.00000000 18044760.00000000 45218828.00000000 12010.94531250  1125906.00000000 894172.00000000 
0.11200    28068384.00000000 17879882.00000000 44795548.00000000 11794.36718750  1109053.00000000 880847.81250000 
0.11300    27803624.00000000 17719496.00000000 44382920.00000000 11580.87988281  1092469.50000000 867742.56250000 
0.11400    27545284.00000000 17563112.00000000 43980744.00000000 11370.23046875  1076141.62500000 854843.43750000 
0.11500    27292824.00000000 17410602.00000000 43587640.00000000 11162.15039062  1060046.00000000 842127.43750000 
0.11600    27045158.00000000 17261244.00000000 43202756.00000000 10956.53125000  1044162.87500000 829579.18750000 
0.11700    26802146.00000000 17114886.00000000 42825228.00000000 10753.28613281  1028483.56250000 817195.12500000 
0.11800    26563020.00000000 16971010.00000000 42454204.00000000 10552.27636719  1012971.25000000 804948.93750000 
0.11900    26327586.00000000 16829394.00000000 42088712.00000000 10353.39160156  997619.37500000 792833.87500000 
0.12000    26095190.00000000 16689755.00000000 41728056.00000000 10156.45507812  982426.56250000 780844.56250000 
0.12100    25865348.00000000 16551792.00000000 41371736.00000000 9961.70605469   967375.37500000 768963.87500000 
0.12200    25637714.00000000 16415022.00000000 41018564.00000000 9768.81054688   952455.18750000 757179.87500000 
0.12300    25411930.00000000 16279339.00000000 40668224.00000000 9577.79296875   937653.87500000 745507.81250000 
0.12400    25187520.00000000 16144471.00000000 40320088.00000000 9388.71191406   922964.75000000 733915.12500000 
0.12500    24964026.00000000 16010284.00000000 39973216.00000000 9201.41210938   908381.12500000 722400.81250000 
0.12600    24741532.00000000 15876445.00000000 39627944.00000000 9016.25000000   893907.62500000 710983.12500000 
0.12700    24519474.00000000 15742757.00000000 39282700.00000000 8832.79101562   879528.87500000 699632.31250000 
0.12800    24297450.00000000 15609074.00000000 38938260.00000000 8651.32324219   865242.43750000 688360.50000000 
0.12900    24075610.00000000 15475294.00000000 38592736.00000000 8471.83886719   851052.50000000 677151.68750000 
0.13000    23853286.00000000 15341110.00000000 38247524.00000000 8294.31152344   836950.68750000 666022.50000000 
0.13100    23630644.00000000 15206464.00000000 37900976.00000000 8118.80908203   822937.93750000 654957.75000000 
0.13200    23407444.00000000 15071226.00000000 37553164.00000000 7945.39355469   809010.50000000 643961.18750000 
0.13300    23183440.00000000 14935248.00000000 37203816.00000000 7774.07910156   795183.06250000 633029.81250000 
0.13400    22958496.00000000 14798574.00000000 36853044.00000000 7604.88671875   781439.68750000 622172.12500000 
0.13500    22732728.00000000 14661035.00000000 36500344.00000000 7437.98876953   767792.12500000 611379.81250000 
0.13600    22505616.00000000 14522434.00000000 36145460.00000000 7273.28808594   754237.75000000 600659.37500000 
0.13700    22277556.00000000 14382970.00000000 35788420.00000000 7110.86914062   740781.12500000 590012.75000000 
0.13800    22048156.00000000 14242400.00000000 35429428.00000000 6950.85009766   727409.50000000 579439.87500000 
0.13900    21817302.00000000 14100699.00000000 35067400.00000000 6793.20068359   714146.12500000 568939.00000000 
0.14000    21585324.00000000 13957914.00000000 34703548.00000000 6637.95068359   700989.18750000 558516.56250000 
0.14100    21352244.00000000 13814070.00000000 34336716.00000000 6485.16308594   687936.50000000 548175.81250000 
0.14200    21117400.00000000 13669059.00000000 33967884.00000000 6335.00878906   674983.31250000 537919.56250000 
0.14300    20881564.00000000 13522828.00000000 33596504.00000000 6187.28125000   662152.00000000 527737.37500000 
0.14400    20644262.00000000 13375422.00000000 33222218.00000000 6042.16845703   649427.50000000 517650.18750000 
0.14500    20405832.00000000 13227060.00000000 32846014.00000000 5899.60400391   636822.12500000 507648.53125000 
0.14600    20166106.00000000 13077602.00000000 32467412.00000000 5759.74853516   624334.37500000 497736.87500000 
0.14700    19925248.00000000 12927121.00000000 32086404.00000000 5622.51074219   611978.87500000 487919.37500000 
0.14800    19683134.00000000 12775440.00000000 31703178.00000000 5487.87597656   599743.62500000 478197.40625000 
0.14900    19439992.00000000 12622843.00000000 31318060.00000000 5355.92529297   587631.62500000 468569.31250000 
0.15000    19195978.00000000 12469456.00000000 30931104.00000000 5226.66162109   575648.25000000 459044.28125000 
0.15100    18951022.00000000 12315057.00000000 30542022.00000000 5100.05468750   563811.68750000 449618.87500000 
0.15200    18705254.00000000 12160036.00000000 30151572.00000000 4976.09082031   552097.93750000 440299.75000000 
0.15300    18458942.00000000 12004072.00000000 29759534.00000000 4854.82421875   540526.25000000 431079.31250000 
0.15400    18211802.00000000 11847516.00000000 29366008.00000000 4736.15380859   529090.93750000 421968.75000000 
0.15500    17964248.00000000 11690248.00000000 28971444.00000000 4620.15576172   517795.28125000 412965.53125000 
0.15600    17716072.00000000 11532457.00000000 28575818.00000000 4506.76464844   506642.34375000 404069.37500000 
0.15700    17467760.00000000 11374290.00000000 28179508.00000000 4395.98193359   495635.50000000 395284.40625000 
0.15800    17219194.00000000 11215624.00000000 27782140.00000000 4287.72900391   484765.84375000 386609.59375000 
0.15900    16970400.00000000 11056643.00000000 27384624.00000000 4182.06494141   474048.78125000 378045.28125000 
0.16000    16721833.00000000 10897385.00000000 26986548.00000000 4078.90039062   463476.37500000 369595.18750000 
0.16100    16473515.00000000 10738040.00000000 26588624.00000000 3978.22631836   453050.15625000 361259.06250000 
0.16200    16225191.00000000 10578568.00000000 26190732.00000000 3879.99755859   442769.71875000 353036.78125000 
0.16300    15977238.00000000 10419143.00000000 25793098.00000000 3784.25878906   432636.25000000 344928.12500000 
0.16400    15729841.00000000 10259769.00000000 25396108.00000000 3690.81396484   422652.21875000 336934.78125000 
0.16500    15483094.00000000 10100612.00000000 24999682.00000000 3599.71118164   412814.90625000 329054.87500000 
0.16600    15236812.00000000 9941666.00000000 24604174.00000000 3510.97338867   403127.37500000 321288.21875000 
0.16700    14991523.00000000 9783092.00000000 24209640.00000000 3424.47070312   393584.46875000 313636.12500000 
0.16800    14747078.00000000 9624886.00000000 23816468.00000000 3340.17822266   384189.28125000 306101.31250000 
0.16900    14503724.00000000 9467349.00000000 23424802.00000000 3258.13940430   374943.43750000 298683.56250000 
0.17000    14261598.00000000 9310208.00000000 23034780.00000000 3178.20776367   365842.25000000 291376.43750000 
