# SAXS profile: number of points = 501, q_min = 0, q_max = 0.5, delta_q = 0.001
#    q    intensity 
0.00000    162232896.00000000 101201696.00000000 256270688.00000000 110643.07812500 8473629.00000000 6692461.50000000 
0.00100    162193072.00000000 101174168.00000000 256200560.00000000 110606.09375000 8471040.00000000 6690410.50000000 
0.00200    162064752.00000000 101092984.00000000 255992768.00000000 110495.51562500 8463300.00000000 6684341.50000000 
0.00300    161847008.00000000 100956384.00000000 255646640.00000000 110312.67187500 8450450.00000000 6674223.50000000 
0.00400    161538080.00000000 100765368.00000000 255159760.00000000 110055.10156250 8432492.00000000 6660108.50000000 
0.00500    161138208.00000000 100520616.00000000 254537520.00000000 109726.57812500 8409446.00000000 6642014.00000000 
0.00600    160656384.00000000 100222200.00000000 253779040.00000000 109326.23437500 8381431.50000000 6619949.00000000 
0.00700    160083104.00000000 99871952.00000000 252886240.00000000 108855.26562500 8348398.00000000 6594004.00000000 
0.00800    159427888.00000000 99469576.00000000 251862992.00000000 108314.63281250 8310521.50000000 6564220.50000000 
0.00900    158691872.00000000 99016456.00000000 250705120.00000000 107705.49218750 8267799.00000000 6530605.50000000 
0.01000    157876016.00000000 98511592.00000000 249420736.00000000 107031.03906250 8220435.50000000 6493342.00000000 
0.01100    156980960.00000000 97957176.00000000 248008096.00000000 106290.33593750 8168407.50000000 6452416.00000000 
0.01200    156002992.00000000 97354568.00000000 246475184.00000000 105485.05468750 8111858.00000000 6407987.00000000 
0.01300    154948944.00000000 96704112.00000000 244821264.00000000 104619.17968750 8050973.50000000 6360089.00000000 
0.01400    153821408.00000000 96008128.00000000 243049472.00000000 103693.59375000 7985806.50000000 6308812.00000000 
0.01500    152623744.00000000 95267616.00000000 241162960.00000000 102709.95312500 7916481.00000000 6254337.50000000 
0.01600    151351696.00000000 94483840.00000000 239167808.00000000 101670.44531250 7843240.00000000 6196699.00000000 
0.01700    150014512.00000000 93658208.00000000 237064816.00000000 100579.25781250 7766174.50000000 6136086.00000000 
0.01800    148611744.00000000 92791288.00000000 234861264.00000000 99435.48437500  7685447.00000000 6072570.50000000 
0.01900    147146240.00000000 91886136.00000000 232556688.00000000 98244.07812500  7601208.00000000 6006298.00000000 
0.02000    145620528.00000000 90944456.00000000 230159328.00000000 97007.47656250  7513611.00000000 5937351.50000000 
0.02100    144038048.00000000 89966608.00000000 227670912.00000000 95727.32812500  7422899.50000000 5865996.50000000 
0.02200    142401824.00000000 88954944.00000000 225096160.00000000 94407.11718750  7329136.50000000 5792253.50000000 
0.02300    140712416.00000000 87911392.00000000 222441296.00000000 93047.98437500  7232666.50000000 5716286.50000000 
0.02400    138976544.00000000 86837608.00000000 219711792.00000000 91655.15625000  7133500.00000000 5638237.50000000 
0.02500    137193472.00000000 85735216.00000000 216908224.00000000 90229.91406250  7031979.50000000 5558305.50000000 
0.02600    135370528.00000000 84606480.00000000 214039856.00000000 88775.82031250  6928191.00000000 5476638.00000000 
0.02700    133507208.00000000 83453960.00000000 211109072.00000000 87294.96093750  6822370.50000000 5393298.50000000 
0.02800    131608008.00000000 82278952.00000000 208119936.00000000 85791.41406250  6714685.50000000 5308491.00000000 
0.02900    129676128.00000000 81082800.00000000 205080528.00000000 84266.07031250  6605362.00000000 5222437.50000000 
0.03000    127715368.00000000 79869344.00000000 201993104.00000000 82724.28906250  6494548.00000000 5135166.00000000 
0.03100    125727816.00000000 78637344.00000000 198865456.00000000 81167.27343750  6382511.50000000 5046908.50000000 
0.03200    123717248.00000000 77391720.00000000 195699504.00000000 79597.75781250  6269352.50000000 4957800.50000000 
0.03300    121686728.00000000 76134064.00000000 192503504.00000000 78019.65625000  6155385.00000000 4867967.50000000 
0.03400    119639272.00000000 74866000.00000000 189279360.00000000 76434.71875000  6040686.00000000 4777640.50000000 
0.03500    117578248.00000000 73588280.00000000 186034240.00000000 74845.50781250  5925456.50000000 4686839.00000000 
0.03600    115506440.00000000 72303408.00000000 182769792.00000000 73254.94531250  5809935.00000000 4595825.50000000 
0.03700    113427416.00000000 71013232.00000000 179496016.00000000 71665.84375000  5694252.50000000 4504578.50000000 
0.03800    111343416.00000000 69720064.00000000 176210512.00000000 70080.78125000  5578503.50000000 4413408.00000000 
0.03900    109258256.00000000 68425464.00000000 172926192.00000000 68501.35937500  5463035.00000000 4322339.50000000 
0.04000    107174192.00000000 67130376.00000000 169641360.00000000 66930.07031250  5347898.50000000 4231528.00000000 
0.04100    105094328.00000000 65838736.00000000 166360832.00000000 65369.62500000  5233247.50000000 4141111.75000000 
0.04200    103021048.00000000 64550132.00000000 163093856.00000000 63821.02734375  5119288.00000000 4051210.25000000 
0.04300    100958192.00000000 63267404.00000000 159838608.00000000 62287.51562500  5006101.50000000 3961929.75000000 
0.04400    98905352.00000000 61991544.00000000 156601664.00000000 60770.45312500  4893889.50000000 3873381.50000000 
0.04500    96868296.00000000 60724476.00000000 153388048.00000000 59271.82812500  4782710.00000000 3785685.25000000 
0.04600    94847320.00000000 59466796.00000000 150200592.00000000 57793.01171875  4672777.50000000 3698921.50000000 
0.04700    92845648.00000000 58220952.00000000 147041920.00000000 56335.35937500  4564124.00000000 3613183.75000000 
0.04800    90864448.00000000 56987488.00000000 143915680.00000000 54900.92187500  4456980.00000000 3528572.75000000 
0.04900    88906520.00000000 55768304.00000000 140825616.00000000 53490.78515625  4351317.00000000 3445157.50000000 
0.05000    86974496.00000000 54564276.00000000 137774480.00000000 52105.79296875  4247325.50000000 3363037.00000000 
0.05100    85068976.00000000 53376748.00000000 134766512.00000000 50747.50000000  4145007.00000000 3282240.50000000 
0.05200    83191224.00000000 52206244.00000000 131802800.00000000 49416.63671875  4044544.00000000 3202871.00000000 
0.05300    81345104.00000000 51054568.00000000 128885912.00000000 48114.04687500  3945955.75000000 3124990.50000000 
0.05400    79529752.00000000 49921996.00000000 126018376.00000000 46840.55468750  3849312.25000000 3048631.25000000 
0.05500    77747552.00000000 48810388.00000000 123202808.00000000 45596.86328125  3754666.75000000 2973870.00000000 
0.05600    75999656.00000000 47719444.00000000 120439576.00000000 44383.30078125  3662100.25000000 2900702.00000000 
0.05700    74287056.00000000 46649872.00000000 117733392.00000000 43200.02734375  3571629.75000000 2829168.75000000 
0.05800    72609896.00000000 45602580.00000000 115083656.00000000 42048.17968750  3483302.50000000 2759365.75000000 
0.05900    70971120.00000000 44578572.00000000 112492128.00000000 40927.22656250  3397157.00000000 2691241.25000000 
0.06000    69369520.00000000 43577940.00000000 109960224.00000000 39837.49609375  3313177.75000000 2624850.00000000 
0.06100    67806984.00000000 42600932.00000000 107489512.00000000 38779.00781250  3231417.50000000 2560191.25000000 
0.06200    66282752.00000000 41648480.00000000 105079376.00000000 37751.97265625  3151896.25000000 2497301.75000000 
0.06300    64798876.00000000 40720008.00000000 102732048.00000000 36755.32812500  3074599.50000000 2436145.50000000 
0.06400    63354308.00000000 39816868.00000000 100447464.00000000 35789.76171875  2999492.50000000 2376754.25000000 
0.06500    61949596.00000000 38938132.00000000 98225552.00000000 34854.64843750  2926613.25000000 2319098.75000000 
0.06600    60585672.00000000 38085032.00000000 96067776.00000000 33949.57812500  2855964.25000000 2263152.25000000 
0.06700    59261640.00000000 37255948.00000000 93972512.00000000 33073.67968750  2787448.75000000 2208960.00000000 
0.06800    57977420.00000000 36452836.00000000 91940904.00000000 32227.11523438  2721111.75000000 2156467.75000000 
0.06900    56733068.00000000 35674276.00000000 89972728.00000000 31409.03320312  2656908.75000000 2105670.25000000 
0.07000    55528508.00000000 34920636.00000000 88066520.00000000 30618.94140625  2594775.25000000 2056511.12500000 
0.07100    54362980.00000000 34191272.00000000 86223760.00000000 29855.66601562  2534739.00000000 2008971.12500000 
0.07200    53236136.00000000 33486464.00000000 84440800.00000000 29118.65234375  2476707.25000000 1963045.37500000 
0.07300    52147780.00000000 32805602.00000000 82719432.00000000 28407.80664062  2420628.75000000 1918683.12500000 
0.07400    51097380.00000000 32148924.00000000 81057968.00000000 27721.45312500  2366489.25000000 1875829.62500000 
0.07500    50083640.00000000 31515180.00000000 79455248.00000000 27059.47851562  2314231.75000000 1834470.50000000 
0.07600    49107244.00000000 30904488.00000000 77909320.00000000 26420.53710938  2263790.00000000 1794566.50000000 
0.07700    48165716.00000000 30316528.00000000 76421536.00000000 25804.06640625  2215110.25000000 1756055.75000000 
0.07800    47259120.00000000 29749836.00000000 74989040.00000000 25209.18554688  2168191.00000000 1718900.12500000 
0.07900    46386700.00000000 29205158.00000000 73610440.00000000 24634.74023438  2122872.00000000 1683061.12500000 
0.08000    45547552.00000000 28681654.00000000 72283600.00000000 24080.39062500  2079186.12500000 1648483.62500000 
0.08100    44740116.00000000 28178194.00000000 71008888.00000000 23545.04296875  2037029.50000000 1615133.25000000 
0.08200    43964240.00000000 27694784.00000000 69783704.00000000 23027.64453125  1996344.50000000 1582951.87500000 
0.08300    43218128.00000000 27230374.00000000 68606560.00000000 22527.56250000  1957064.50000000 1551903.00000000 
0.08400    42501500.00000000 26784494.00000000 67475752.00000000 22043.84179688  1919156.62500000 1521925.12500000 
0.08500    41813540.00000000 26356822.00000000 66390128.00000000 21575.83203125  1882527.37500000 1492967.75000000 
0.08600    41152176.00000000 25946196.00000000 65347992.00000000 21122.49804688  1847148.00000000 1465017.25000000 
0.08700    40516416.00000000 25552078.00000000 64347660.00000000 20683.19921875  1812953.00000000 1437981.62500000 
0.08800    39906440.00000000 25174004.00000000 63386280.00000000 20257.22656250  1779851.00000000 1411835.62500000 
0.08900    39320016.00000000 24811184.00000000 62463772.00000000 19843.50390625  1747815.87500000 1386516.75000000 
0.09000    38756388.00000000 24462964.00000000 61577148.00000000 19441.84765625  1716772.00000000 1362006.50000000 
0.09100    38214412.00000000 24128668.00000000 60725844.00000000 19051.23632812  1686676.87500000 1338246.37500000 
0.09200    37693016.00000000 23807284.00000000 59906812.00000000 18671.18554688  1657481.75000000 1315189.25000000 
0.09300    37191196.00000000 23498846.00000000 59119944.00000000 18300.83203125  1629122.75000000 1292799.00000000 
0.09400    36708264.00000000 23201972.00000000 58362424.00000000 17939.62695312  1601534.12500000 1271040.87500000 
0.09500    36242092.00000000 22916414.00000000 57632976.00000000 17587.31445312  1574684.12500000 1249866.12500000 
0.09600    35792984.00000000 22641468.00000000 56929560.00000000 17243.23437500  1548539.50000000 1229231.00000000 
0.09700    35359280.00000000 22376552.00000000 56251324.00000000 16906.71484375  1523030.62500000 1209130.37500000 
0.09800    34939624.00000000 22120860.00000000 55595948.00000000 16577.63867188  1498127.87500000 1189486.75000000 
0.09900    34534232.00000000 21873588.00000000 54962376.00000000 16255.18261719  1473772.75000000 1170296.00000000 
0.10000    34140700.00000000 21634758.00000000 54349012.00000000 15939.23242188  1449955.00000000 1151520.50000000 
0.10100    33759624.00000000 21403320.00000000 53754224.00000000 15629.28808594  1426621.87500000 1133123.87500000 
0.10200    33388666.00000000 21178938.00000000 53177120.00000000 15325.15332031  1403730.37500000 1115086.37500000 
0.10300    33028110.00000000 20960638.00000000 52615640.00000000 15026.30566406  1381258.12500000 1097377.87500000 
0.10400    32676288.00000000 20748416.00000000 52068912.00000000 14732.60742188  1359179.50000000 1079973.25000000 
0.10500    32333374.00000000 20541192.00000000 51535616.00000000 14443.90722656  1337458.50000000 1062850.87500000 
0.10600    31997910.00000000 20339104.00000000 51013760.00000000 14159.81933594  1316066.75000000 1045994.37500000 
0.10700    31669246.00000000 20141450.00000000 50503788.00000000 13880.19531250  1294971.62500000 1029366.00000000 
0.10800    31346926.00000000 19947490.00000000 50003272.00000000 13604.84472656  1274181.00000000 1012968.81250000 
0.10900    31029926.00000000 19757124.00000000 49511868.00000000 13333.65722656  1253634.87500000 996773.06250000 
0.11000    30718254.00000000 19569838.00000000 49028364.00000000 13066.53222656  1233347.62500000 980774.56250000 
0.11100    30410622.00000000 19385390.00000000 48551668.00000000 12803.17773438  1213277.12500000 964948.93750000 
0.11200    30107196.00000000 19203076.00000000 48080884.00000000 12543.69335938  1193439.00000000 949297.62500000 
0.11300    29806786.00000000 19022898.00000000 47614920.00000000 12287.92968750  1173798.87500000 933791.75000000 
0.11400    29509632.00000000 18844322.00000000 47153860.00000000 12035.87304688  1154346.62500000 918432.87500000 
0.11500    29214522.00000000 18667330.00000000 46696096.00000000 11787.37011719  1135061.50000000 903213.00000000 
0.11600    28921472.00000000 18491240.00000000 46241732.00000000 11542.43847656  1115963.25000000 888123.12500000 
0.11700    28630212.00000000 18315972.00000000 45789032.00000000 11301.11425781  1097034.75000000 873159.00000000 
0.11800    28340088.00000000 18141332.00000000 45338804.00000000 11063.29101562  1078253.00000000 858305.06250000 
0.11900    28050984.00000000 17967192.00000000 44889512.00000000 10828.79492188  1059610.37500000 843569.12500000 
0.12000    27762408.00000000 17793116.00000000 44441000.00000000 10597.88085938  1041133.81250000 828940.50000000 
0.12100    27474452.00000000 17619124.00000000 43993232.00000000 10370.48339844  1022797.25000000 814432.25000000 
0.12200    27186598.00000000 17445048.00000000 43544856.00000000 10146.56250000  1004609.75000000 800018.93750000 
0.12300    26898644.00000000 17270558.00000000 43096128.00000000 9926.04589844   986553.93750000 785717.56250000 
0.12400    26610926.00000000 17095934.00000000 42647116.00000000 9709.11718750   968644.56250000 771519.37500000 
0.12500    26322210.00000000 16920418.00000000 42196692.00000000 9495.57519531   950874.62500000 757428.56250000 
0.12600    26033502.00000000 16744442.00000000 41745716.00000000 9285.57910156   933254.12500000 743443.81250000 
0.12700    25744018.00000000 16567676.00000000 41293104.00000000 9079.05664062   915771.87500000 729563.37500000 
0.12800    25453908.00000000 16390229.00000000 40839164.00000000 8876.06152344   898437.81250000 715798.68750000 
0.12900    25163240.00000000 16212006.00000000 40383344.00000000 8676.64355469   881249.18750000 702142.75000000 
0.13000    24871680.00000000 16032938.00000000 39926384.00000000 8480.58691406   864212.43750000 688599.31250000 
0.13100    24579214.00000000 15853106.00000000 39467284.00000000 8288.03710938   847326.18750000 675171.00000000 
0.13200    24286288.00000000 15672290.00000000 39006812.00000000 8098.92822266   830592.62500000 661862.50000000 
0.13300    23992232.00000000 15490681.00000000 38544168.00000000 7913.45068359   814027.62500000 648663.81250000 
0.13400    23697614.00000000 15308255.00000000 38080508.00000000 7731.27148438   797618.87500000 635600.68750000 
0.13500    23402218.00000000 15124925.00000000 37615060.00000000 7552.56152344   781372.00000000 622656.93750000 
0.13600    23106040.00000000 14940847.00000000 37148024.00000000 7377.27636719   765294.37500000 609842.50000000 
0.13700    22809362.00000000 14756060.00000000 36679364.00000000 7205.35888672   749392.18750000 597164.81250000 
0.13800    22512104.00000000 14570551.00000000 36209960.00000000 7036.79638672   733650.18750000 584616.31250000 
0.13900    22214454.00000000 14384452.00000000 35738628.00000000 6871.60986328   718108.68750000 572206.37500000 
0.14000    21916532.00000000 14197670.00000000 35266992.00000000 6709.70312500   702735.06250000 559938.75000000 
0.14100    21618134.00000000 14010498.00000000 34794328.00000000 6551.03857422   687552.12500000 547806.43750000 
0.14200    21319826.00000000 13822792.00000000 34320680.00000000 6395.57324219   672555.43750000 535833.43750000 
0.14300    21021366.00000000 13634741.00000000 33847040.00000000 6243.27587891   657743.56250000 523990.78125000 
0.14400    20722820.00000000 13446479.00000000 33372612.00000000 6094.12158203   643119.56250000 512311.21875000 
0.14500    20424786.00000000 13258013.00000000 32898480.00000000 5948.01708984   628698.81250000 500776.43750000 
0.14600    20127020.00000000 13069414.00000000 32424490.00000000 5804.99658203   614467.62500000 489399.00000000 
0.14700    19829732.00000000 12880888.00000000 31950974.00000000 5664.89208984   600437.68750000 478173.37500000 
0.14800    19532938.00000000 12692411.00000000 31477812.00000000 5527.80664062   586604.68750000 467108.87500000 
0.14900    19236706.00000000 12504126.00000000 31005640.00000000 5393.56396484   572979.25000000 456200.90625000 
0.15000    18941640.00000000 12316074.00000000 30534330.00000000 5262.10693359   559550.87500000 445455.81250000 
0.15100    18647476.00000000 12128406.00000000 30064598.00000000 5133.44726562   546333.37500000 434867.34375000 
0.15200    18354694.00000000 11941401.00000000 29596362.00000000 5007.62158203   533321.75000000 424448.31250000 
0.15300    18063024.00000000 11754777.00000000 29129940.00000000 4884.40576172   520511.37500000 414191.09375000 
0.15400    17772788.00000000 11568870.00000000 28665224.00000000 4763.81591797   507910.65625000 404095.43750000 
0.15500    17484140.00000000 11383777.00000000 28202978.00000000 4645.84033203   495516.87500000 394168.03125000 
0.15600    17197110.00000000 11199528.00000000 27743182.00000000 4530.41894531   483329.71875000 384405.59375000 
0.15700    16911834.00000000 11016313.00000000 27286130.00000000 4417.49755859   471356.31250000 374810.50000000 
0.15800    16628846.00000000 10834083.00000000 26831566.00000000 4307.03173828   459589.62500000 365379.90625000 
0.15900    16347738.00000000 10653080.00000000 26380640.00000000 4199.01708984   448032.59375000 356114.43750000 
0.16000    16068822.00000000 10473213.00000000 25932560.00000000 4093.38281250   436681.59375000 347017.71875000 
0.16100    15792256.00000000 10294859.00000000 25488646.00000000 3990.11499023   425545.87500000 338092.43750000 
0.16200    15518160.00000000 10117677.00000000 25047898.00000000 3889.17065430   414615.25000000 329327.34375000 
0.16300    15246660.00000000 9942123.00000000 24611230.00000000 3790.52416992   403890.53125000 320729.96875000 
0.16400    14977641.00000000 9768200.00000000 24178876.00000000 3694.12329102   393374.75000000 312299.06250000 
0.16500    14711503.00000000 9595877.00000000 23750452.00000000 3600.00585938   383068.56250000 304034.09375000 
0.16600    14448217.00000000 9425296.00000000 23326912.00000000 3508.08569336   372966.34375000 295935.25000000 
0.16700    14187913.00000000 9256485.00000000 22907344.00000000 3418.32031250   363071.68750000 287995.46875000 
0.16800    13930612.00000000 9089496.00000000 22493014.00000000 3330.73876953   353375.43750000 280223.18750000 
0.16900    13676459.00000000 8924577.00000000 22083512.00000000 3245.34741211   343888.06250000 272617.09375000 
0.17000    13425493.00000000 8761507.00000000 21679018.00000000 3162.04882812   334604.12500000 265167.46875000 
