# SAXS profile: number of points = 501, q_min = 0, q_max = 0.5, delta_q = 0.001
#    q    intensity 
0.00000    162233568.00000000 101202512.00000000 256271200.00000000 103571.66406250 8198373.00000000 6475056.00000000 
0.00100    162198880.00000000 101179232.00000000 256212496.00000000 103540.86718750 8196219.00000000 6473356.00000000 
0.00200    162091712.00000000 101109792.00000000 256038032.00000000 103447.39062500 8189657.00000000 6468203.00000000 
0.00300    161907872.00000000 100995176.00000000 255744912.00000000 103291.99218750 8178703.50000000 6459593.00000000 
0.00400    161648816.00000000 100834544.00000000 255335488.00000000 103075.25781250 8163481.00000000 6447641.00000000 
0.00500    161311536.00000000 100628432.00000000 254811920.00000000 102797.21093750 8143896.50000000 6432284.00000000 
0.00600    160901600.00000000 100375680.00000000 254168304.00000000 102458.09375000 8120055.50000000 6413544.00000000 
0.00700    160420448.00000000 100080712.00000000 253416384.00000000 102059.62500000 8092018.00000000 6391489.50000000 
0.00800    159863792.00000000 99741088.00000000 252549216.00000000 101601.60156250 8059783.50000000 6366210.00000000 
0.00900    159242256.00000000 99358160.00000000 251573040.00000000 101085.31250000 8023410.00000000 6337634.00000000 
0.01000    158549296.00000000 98932176.00000000 250483104.00000000 100511.60937500 7982990.00000000 6305893.00000000 
0.01100    157788992.00000000 98463024.00000000 249288960.00000000 99883.67968750  7938641.50000000 6270984.50000000 
0.01200    156960016.00000000 97951928.00000000 247986512.00000000 99199.96875000  7890347.00000000 6233098.00000000 
0.01300    156064048.00000000 97400680.00000000 246582848.00000000 98463.25781250  7838321.00000000 6192145.00000000 
0.01400    155103040.00000000 96809176.00000000 245075232.00000000 97674.57031250  7782456.00000000 6148290.00000000 
0.01500    154079408.00000000 96178808.00000000 243468944.00000000 96836.03125000  7723100.00000000 6101635.00000000 
0.01600    152994992.00000000 95510984.00000000 241766384.00000000 95948.63281250  7660189.50000000 6052218.50000000 
0.01700    151851680.00000000 94806200.00000000 239968784.00000000 95015.16406250  7593958.00000000 6000105.50000000 
0.01800    150648320.00000000 94065216.00000000 238080656.00000000 94036.03906250  7524408.00000000 5945473.50000000 
0.01900    149389280.00000000 93289128.00000000 236104864.00000000 93015.12500000  7451709.00000000 5888349.00000000 
0.02000    148075904.00000000 92480680.00000000 234044320.00000000 91952.61718750  7375986.50000000 5828816.50000000 
0.02100    146711680.00000000 91639256.00000000 231901312.00000000 90851.35156250  7297370.50000000 5767022.00000000 
0.02200    145297184.00000000 90767472.00000000 229679280.00000000 89713.42187500  7215996.50000000 5703057.50000000 
0.02300    143834640.00000000 89865184.00000000 227381856.00000000 88540.77343750  7132052.50000000 5637010.50000000 
0.02400    142325312.00000000 88935416.00000000 225012320.00000000 87335.51562500  7045586.00000000 5569059.50000000 
0.02500    140774368.00000000 87978784.00000000 222575568.00000000 86099.65625000  6956865.00000000 5499246.00000000 
0.02600    139181376.00000000 86995568.00000000 220072128.00000000 84836.27343750  6865896.00000000 5427723.50000000 
0.02700    137549216.00000000 85989240.00000000 217509824.00000000 83546.75000000  6772921.00000000 5354606.00000000 
0.02800    135882864.00000000 84959208.00000000 214890080.00000000 82234.29687500  6678079.00000000 5279973.00000000 
0.02900    134180336.00000000 83908616.00000000 212215312.00000000 80900.43750000  6581477.00000000 5204007.50000000 
0.03000    132447064.00000000 82839032.00000000 209491360.00000000 79547.00000000  6483347.50000000 5126794.00000000 
0.03100    130684896.00000000 81750312.00000000 206721904.00000000 78177.63281250  6383754.00000000 5048400.50000000 
0.03200    128895928.00000000 80644200.00000000 203909376.00000000 76793.73437500  6282905.00000000 4969012.50000000 
0.03300    127082376.00000000 79524608.00000000 201058192.00000000 75398.09375000  6180916.50000000 4888784.00000000 
0.03400    125247904.00000000 78391096.00000000 198174032.00000000 73991.92968750  6077970.50000000 4807728.00000000 
0.03500    123393872.00000000 77245000.00000000 195256576.00000000 72578.24218750  5974203.50000000 4726034.50000000 
0.03600    121523368.00000000 76088232.00000000 192315936.00000000 71159.92968750  5869750.00000000 4643824.50000000 
0.03700    119637520.00000000 74922048.00000000 189349344.00000000 69738.11718750  5764810.50000000 4561162.50000000 
0.03800    117740600.00000000 73748184.00000000 186364576.00000000 68314.01562500  5659468.00000000 4478198.00000000 
0.03900    115832944.00000000 72568072.00000000 183363520.00000000 66891.03125000  5553885.00000000 4395023.00000000 
0.04000    113918816.00000000 71381952.00000000 180349696.00000000 65471.18750000  5448136.00000000 4311759.50000000 
0.04100    111998752.00000000 70193416.00000000 177328544.00000000 64054.70312500  5342505.00000000 4228524.00000000 
0.04200    110076152.00000000 69002184.00000000 174302928.00000000 62645.39843750  5237023.50000000 4145339.25000000 
0.04300    108153072.00000000 67810000.00000000 171274016.00000000 61243.83593750  5131806.50000000 4062415.00000000 
0.04400    106231256.00000000 66619024.00000000 168247216.00000000 59852.10156250  5026961.50000000 3979813.50000000 
0.04500    104313224.00000000 65429588.00000000 165225696.00000000 58471.92578125  4922693.50000000 3897604.50000000 
0.04600    102401088.00000000 64243660.00000000 162214688.00000000 57104.53906250  4819075.50000000 3815878.00000000 
0.04700    100496048.00000000 63061664.00000000 159212848.00000000 55751.68750000  4716198.50000000 3734773.25000000 
0.04800    98600952.00000000 61885436.00000000 156227120.00000000 54414.80468750  4614188.00000000 3654303.50000000 
0.04900    96717408.00000000 60715724.00000000 153256368.00000000 53094.37109375  4513132.00000000 3574579.75000000 
0.05000    94846160.00000000 59553740.00000000 150307328.00000000 51792.98437500  4413133.50000000 3495698.75000000 
0.05100    92990208.00000000 58400592.00000000 147382832.00000000 50510.40625000  4314263.50000000 3417690.75000000 
0.05200    91151152.00000000 57257356.00000000 144483056.00000000 49248.49609375  4216669.00000000 3340669.00000000 
0.05300    89329776.00000000 56124932.00000000 141610096.00000000 48007.90234375  4120344.00000000 3264634.25000000 
0.05400    87527296.00000000 55004144.00000000 138768512.00000000 46789.36328125  4025430.00000000 3189689.00000000 
0.05500    85746744.00000000 53895872.00000000 135959104.00000000 45594.09375000  3931957.50000000 3115879.25000000 
0.05600    83987320.00000000 52801176.00000000 133183296.00000000 44422.25000000  3839983.50000000 3043245.25000000 
0.05700    82251944.00000000 51721104.00000000 130445080.00000000 43274.60156250  3749589.00000000 2971854.00000000 
0.05800    80541800.00000000 50655312.00000000 127744720.00000000 42151.67578125  3660836.00000000 2901749.25000000 
0.05900    78856304.00000000 49605544.00000000 125084080.00000000 41054.35546875  3573741.50000000 2832936.25000000 
0.06000    77198104.00000000 48572048.00000000 122466056.00000000 39982.44140625  3488355.00000000 2765455.50000000 
0.06100    75567288.00000000 47555576.00000000 119890336.00000000 38936.23828125  3404709.25000000 2699344.25000000 
0.06200    73965096.00000000 46555976.00000000 117359272.00000000 37915.89062500  3322844.25000000 2634635.00000000 
0.06300    72391664.00000000 45574964.00000000 114874184.00000000 36922.17968750  3242799.25000000 2571346.50000000 
0.06400    70848448.00000000 44611524.00000000 112435512.00000000 35953.89062500  3164562.00000000 2509477.50000000 
0.06500    69335384.00000000 43667036.00000000 110044680.00000000 35012.39453125  3088157.50000000 2449075.00000000 
0.06600    67853160.00000000 42741648.00000000 107702440.00000000 34096.72265625  3013616.50000000 2390104.75000000 
0.06700    66402496.00000000 41835364.00000000 105408960.00000000 33207.09375000  2940909.00000000 2332591.75000000 
0.06800    64983508.00000000 40948672.00000000 103165656.00000000 32343.10546875  2870074.25000000 2276559.25000000 
0.06900    63596116.00000000 40081904.00000000 100973048.00000000 31504.72070312  2801105.25000000 2221975.75000000 
0.07000    62240896.00000000 39234592.00000000 98829472.00000000 30691.47656250  2733949.25000000 2168847.75000000 
0.07100    60918420.00000000 38407180.00000000 96737168.00000000 29903.00781250  2668657.75000000 2117155.75000000 
0.07200    59628116.00000000 37600324.00000000 94696320.00000000 29138.97656250  2605179.25000000 2066911.37500000 
0.07300    58369896.00000000 36813204.00000000 92705800.00000000 28398.87695312  2543498.75000000 2018110.50000000 
0.07400    57144468.00000000 36046436.00000000 90767240.00000000 27682.34765625  2483632.25000000 1970694.25000000 
0.07500    55950720.00000000 35299156.00000000 88878272.00000000 26988.82812500  2425504.75000000 1924679.12500000 
0.07600    54789420.00000000 34572192.00000000 87040440.00000000 26317.59960938  2369102.25000000 1880018.87500000 
0.07700    53659192.00000000 33865084.00000000 85252632.00000000 25668.52734375  2314396.00000000 1836717.87500000 
0.07800    52561392.00000000 33177546.00000000 83514560.00000000 25040.29492188  2261397.75000000 1794743.50000000 
0.07900    51493868.00000000 32509452.00000000 81825896.00000000 24432.95703125  2210000.25000000 1754052.37500000 
0.08000    50458024.00000000 31860292.00000000 80184912.00000000 23845.76757812  2160255.00000000 1714630.87500000 
0.08100    49451624.00000000 31230240.00000000 78592544.00000000 23277.73046875  2112023.25000000 1676448.37500000 
0.08200    48475564.00000000 30618994.00000000 77047432.00000000 22728.72460938  2065338.62500000 1639482.12500000 
0.08300    47528544.00000000 30025736.00000000 75548560.00000000 22197.52539062  2020141.62500000 1603673.87500000 
0.08400    46610580.00000000 29450754.00000000 74095024.00000000 21683.93164062  1976377.50000000 1569004.75000000 
0.08500    45720576.00000000 28893524.00000000 72686864.00000000 21187.07617188  1933999.75000000 1535453.37500000 
0.08600    44858332.00000000 28353648.00000000 71322184.00000000 20706.49804688  1892984.87500000 1502976.50000000 
0.08700    44022972.00000000 27830520.00000000 70000056.00000000 20241.19921875  1853288.12500000 1471536.00000000 
0.08800    43214008.00000000 27324130.00000000 68719864.00000000 19790.64257812  1814845.25000000 1441086.62500000 
0.08900    42430636.00000000 26833898.00000000 67480560.00000000 19354.40234375  1777626.75000000 1411618.00000000 
0.09000    41672060.00000000 26359304.00000000 66280148.00000000 18931.79687500  1741567.00000000 1383077.62500000 
0.09100    40937612.00000000 25900006.00000000 65118628.00000000 18521.96875000  1706658.25000000 1355420.87500000 
0.09200    40226888.00000000 25455298.00000000 63994144.00000000 18124.42187500  1672810.25000000 1328644.37500000 
0.09300    39538624.00000000 25025278.00000000 62906476.00000000 17738.84375000  1640015.62500000 1302677.87500000 
0.09400    38872764.00000000 24609110.00000000 61853220.00000000 17364.32617188  1608214.00000000 1277502.37500000 
0.09500    38227780.00000000 24206390.00000000 60833800.00000000 17000.43554688  1577344.87500000 1253076.87500000 
0.09600    37603860.00000000 23816456.00000000 59847092.00000000 16646.65234375  1547391.75000000 1229381.87500000 
0.09700    36998684.00000000 23439110.00000000 58891388.00000000 16302.58203125  1518310.50000000 1206355.62500000 
0.09800    36413076.00000000 23073940.00000000 57966416.00000000 15967.50488281  1490059.75000000 1183998.75000000 
0.09900    35845656.00000000 22720112.00000000 57070564.00000000 15641.25683594  1462571.62500000 1162264.37500000 
0.10000    35295876.00000000 22377500.00000000 56202156.00000000 15323.09765625  1435841.62500000 1141111.62500000 
0.10100    34762748.00000000 22045600.00000000 55360720.00000000 15012.71386719  1409813.25000000 1120528.75000000 
0.10200    34245592.00000000 21723624.00000000 54544452.00000000 14709.70996094  1384456.50000000 1100485.87500000 
0.10300    33743316.00000000 21411522.00000000 53752752.00000000 14413.91601562  1359729.00000000 1080921.25000000 
0.10400    33255988.00000000 21108752.00000000 52984208.00000000 14124.59375000  1335613.25000000 1061846.50000000 
0.10500    32782504.00000000 20814682.00000000 52238068.00000000 13841.82031250  1312065.62500000 1043229.25000000 
0.10600    32321964.00000000 20528908.00000000 51512264.00000000 13564.89257812  1289047.75000000 1025029.06250000 
0.10700    31874234.00000000 20251336.00000000 50806380.00000000 13293.81054688  1266535.75000000 1007230.50000000 
0.10800    31438046.00000000 19980980.00000000 50119680.00000000 13028.24218750  1244500.12500000 989805.43750000 
0.10900    31013174.00000000 19717984.00000000 49451240.00000000 12767.73730469  1222918.75000000 972736.37500000 
0.11000    30598990.00000000 19461422.00000000 48799308.00000000 12512.40429688  1201770.50000000 956016.43750000 
0.11100    30194722.00000000 19211418.00000000 48163380.00000000 12261.80078125  1181022.00000000 939599.87500000 
0.11200    29799804.00000000 18967516.00000000 47542480.00000000 12015.76562500  1160643.87500000 923488.50000000 
0.11300    29413866.00000000 18728928.00000000 46935472.00000000 11774.11816406  1140627.00000000 907655.81250000 
0.11400    29036074.00000000 18495800.00000000 46341688.00000000 11536.86425781  1120948.25000000 892087.00000000 
0.11500    28666110.00000000 18267494.00000000 45760168.00000000 11303.56152344  1101586.12500000 876771.00000000 
0.11600    28303570.00000000 18043662.00000000 45190372.00000000 11074.37011719  1082532.75000000 861691.12500000 
0.11700    27947782.00000000 17824480.00000000 44631504.00000000 10848.98730469  1063765.75000000 846832.56250000 
0.11800    27598362.00000000 17608902.00000000 44082856.00000000 10627.28515625  1045260.93750000 832187.00000000 
0.11900    27254684.00000000 17397120.00000000 43543152.00000000 10409.39550781  1027011.50000000 817738.62500000 
0.12000    26916732.00000000 17188732.00000000 43011856.00000000 10195.03125000  1009011.00000000 803479.75000000 
0.12100    26583950.00000000 16983782.00000000 42489540.00000000 9984.16796875   991247.50000000 789406.93750000 
0.12200    26255734.00000000 16781752.00000000 41974212.00000000 9776.71484375   973704.25000000 775504.93750000 
0.12300    25931958.00000000 16582341.00000000 41465964.00000000 9572.63574219   956375.62500000 761766.93750000 
0.12400    25612382.00000000 16385309.00000000 40963796.00000000 9371.85156250   939251.68750000 748186.12500000 
0.12500    25296532.00000000 16190697.00000000 40467748.00000000 9174.39843750   922328.00000000 734756.81250000 
0.12600    24984310.00000000 15998213.00000000 39977200.00000000 8980.11035156   905597.81250000 721480.87500000 
0.12700    24675126.00000000 15807569.00000000 39491476.00000000 8789.02246094   889051.37500000 708342.12500000 
0.12800    24369008.00000000 15618732.00000000 39010156.00000000 8601.06738281   872682.43750000 695343.50000000 
0.12900    24065858.00000000 15431532.00000000 38533768.00000000 8416.19921875   856492.56250000 682479.50000000 
0.13000    23764968.00000000 15245829.00000000 38060752.00000000 8234.42187500   840481.31250000 669754.87500000 
0.13100    23466342.00000000 15061474.00000000 37591140.00000000 8055.65039062   824633.37500000 657153.87500000 
0.13200    23170158.00000000 14878232.00000000 37125072.00000000 7879.95117188   808959.12500000 644684.37500000 
0.13300    22875992.00000000 14696166.00000000 36662248.00000000 7707.19335938   793446.25000000 632334.62500000 
0.13400    22583726.00000000 14515101.00000000 36201888.00000000 7537.36474609   778091.87500000 620118.75000000 
0.13500    22293054.00000000 14335178.00000000 35744136.00000000 7370.50781250   762906.50000000 608026.25000000 
0.13600    22004174.00000000 14155932.00000000 35288952.00000000 7206.50732422   747884.00000000 596048.18750000 
0.13700    21716776.00000000 13977515.00000000 34836088.00000000 7045.37255859   733017.25000000 584203.25000000 
0.13800    21430778.00000000 13799822.00000000 34384896.00000000 6887.06054688   718312.50000000 572477.31250000 
0.13900    21146484.00000000 13622883.00000000 33936260.00000000 6731.57568359   703773.56250000 560883.00000000 
0.14000    20863264.00000000 13446629.00000000 33489250.00000000 6578.80908203   689392.75000000 549403.12500000 
0.14100    20581412.00000000 13270957.00000000 33044192.00000000 6428.75341797   675175.50000000 538053.75000000 
0.14200    20300592.00000000 13095890.00000000 32600622.00000000 6281.42480469   661120.50000000 526828.81250000 
0.14300    20021698.00000000 12921514.00000000 32159032.00000000 6136.75439453   647223.37500000 515731.09375000 
0.14400    19743472.00000000 12747550.00000000 31718912.00000000 5994.65332031   633493.50000000 504760.96875000 
0.14500    19466534.00000000 12574282.00000000 31280898.00000000 5855.17626953   619927.31250000 493913.09375000 
0.14600    19190928.00000000 12401598.00000000 30844302.00000000 5718.21923828   606527.68750000 483200.78125000 
0.14700    18916526.00000000 12229426.00000000 30409422.00000000 5583.76123047   593297.12500000 472617.81250000 
0.14800    18643366.00000000 12057822.00000000 29976236.00000000 5451.73876953   580229.37500000 462163.25000000 
0.14900    18371404.00000000 11886931.00000000 29545076.00000000 5322.10156250   567327.31250000 451842.21875000 
0.15000    18100748.00000000 11716664.00000000 29115426.00000000 5194.84814453   554597.43750000 441652.65625000 
0.15100    17831544.00000000 11546961.00000000 28688076.00000000 5069.91552734   542028.75000000 431600.18750000 
0.15200    17563694.00000000 11378015.00000000 28262548.00000000 4947.34814453   529643.62500000 421680.75000000 
0.15300    17297194.00000000 11209778.00000000 27838774.00000000 4826.93847656   517432.81250000 411896.25000000 
0.15400    17032154.00000000 11042301.00000000 27417444.00000000 4708.74218750   505379.40625000 402248.59375000 
0.15500    16768740.00000000 10875610.00000000 26998264.00000000 4592.70898438   493504.56250000 392740.21875000 
0.15600    16507005.00000000 10709691.00000000 26581382.00000000 4478.79541016   481803.53125000 383365.40625000 
0.15700    16246846.00000000 10544755.00000000 26166948.00000000 4367.03222656   470280.96875000 374130.53125000 
0.15800    15988273.00000000 10380650.00000000 25754726.00000000 4257.24121094   458924.71875000 365034.09375000 
0.15900    15731495.00000000 10217588.00000000 25345462.00000000 4149.52246094   447749.53125000 356082.37500000 
0.16000    15476577.00000000 10055440.00000000 24938782.00000000 4043.77270508   436742.93750000 347265.87500000 
0.16100    15223555.00000000 9894386.00000000 24534954.00000000 3939.99829102   425916.53125000 338593.56250000 
0.16200    14972602.00000000 9734442.00000000 24134304.00000000 3838.14746094   415264.75000000 330059.21875000 
0.16300    14723619.00000000 9575624.00000000 23736620.00000000 3738.20654297   404790.40625000 321665.56250000 
0.16400    14476619.00000000 9418142.00000000 23342030.00000000 3640.15356445   394489.50000000 313415.53125000 
0.16500    14231867.00000000 9261748.00000000 22950786.00000000 3543.94189453   384366.31250000 305307.78125000 
0.16600    13989367.00000000 9106765.00000000 22563052.00000000 3449.58129883   374419.31250000 297338.56250000 
0.16700    13749155.00000000 8953031.00000000 22178582.00000000 3357.00439453   364642.53125000 289511.59375000 
0.16800    13511219.00000000 8800621.00000000 21797824.00000000 3266.24584961   355046.53125000 281824.81250000 
0.16900    13275842.00000000 8649793.00000000 21420984.00000000 3177.35156250   345625.87500000 274282.18750000 
0.17000    13042898.00000000 8500375.00000000 21047720.00000000 3090.15551758   336377.59375000 266878.71875000 
