# SAXS profile: number of points = 501, q_min = 0, q_max = 0.5, delta_q = 0.001
#    q    intensity 
0.00000    162232304.00000000 101201736.00000000 256271648.00000000 114222.96875000 8609618.00000000 6799853.50000000 
0.00100    162187600.00000000 101171488.00000000 256193264.00000000 114179.67187500 8606717.00000000 6797565.50000000 
0.00200    162050416.00000000 101081096.00000000 255966512.00000000 114049.65625000 8597879.00000000 6790565.00000000 
0.00300    161809872.00000000 100931920.00000000 255586032.00000000 113833.14062500 8583171.00000000 6779010.00000000 
0.00400    161469744.00000000 100722912.00000000 255053504.00000000 113531.99218750 8562610.00000000 6762853.50000000 
0.00500    161032336.00000000 100453336.00000000 254368976.00000000 113146.41406250 8536302.00000000 6742105.50000000 
0.00600    160504400.00000000 100127120.00000000 253539328.00000000 112677.35937500 8504355.00000000 6716944.00000000 
0.00700    159878112.00000000 99742576.00000000 252564640.00000000 112124.64843750 8466694.00000000 6687310.00000000 
0.00800    159163824.00000000 99302576.00000000 251440448.00000000 111492.27343750 8423509.00000000 6653309.50000000 
0.00900    158361600.00000000 98806608.00000000 250177248.00000000 110780.87500000 8374921.00000000 6615069.50000000 
0.01000    157473360.00000000 98254776.00000000 248774320.00000000 109992.62500000 8321088.50000000 6572646.00000000 
0.01100    156493840.00000000 97650128.00000000 247234688.00000000 109129.85937500 8262044.00000000 6526207.00000000 
0.01200    155428752.00000000 96991800.00000000 245564816.00000000 108195.26562500 8198020.50000000 6475802.00000000 
0.01300    154285440.00000000 96283872.00000000 243764176.00000000 107190.35937500 8129159.50000000 6421524.00000000 
0.01400    153063008.00000000 95527400.00000000 241838816.00000000 106118.33593750 8055583.00000000 6363595.50000000 
0.01500    151762400.00000000 94723864.00000000 239793632.00000000 104982.89062500 7977556.50000000 6302159.00000000 
0.01600    150387616.00000000 93872584.00000000 237631168.00000000 103786.52343750 7895233.00000000 6237288.50000000 
0.01700    148943200.00000000 92978568.00000000 235358368.00000000 102532.59375000 7808838.50000000 6169247.00000000 
0.01800    147430416.00000000 92042032.00000000 232978608.00000000 101223.32812500 7718475.50000000 6098059.50000000 
0.01900    145852560.00000000 91067168.00000000 230498064.00000000 99863.78906250  7624464.00000000 6024063.50000000 
0.02000    144214592.00000000 90052040.00000000 227918176.00000000 98456.71875000  7527025.00000000 5947295.50000000 
0.02100    142518384.00000000 89001192.00000000 225248160.00000000 97005.75000000  7426403.50000000 5867971.00000000 
0.02200    140767824.00000000 87917744.00000000 222494272.00000000 95514.23437500  7322668.50000000 5786316.50000000 
0.02300    138968032.00000000 86801720.00000000 219658112.00000000 93986.69531250  7216337.50000000 5702484.00000000 
0.02400    137118272.00000000 85655808.00000000 216748752.00000000 92425.35937500  7107376.50000000 5616646.50000000 
0.02500    135226432.00000000 84483624.00000000 213769648.00000000 90835.43750000  6996170.00000000 5528989.00000000 
0.02600    133295792.00000000 83286088.00000000 210728576.00000000 89220.23437500  6882966.50000000 5439750.50000000 
0.02700    131328984.00000000 82066736.00000000 207630656.00000000 87582.71093750  6767964.50000000 5349088.50000000 
0.02800    129329760.00000000 80826808.00000000 204480512.00000000 85927.00000000  6651343.00000000 5257186.50000000 
0.02900    127300856.00000000 79567592.00000000 201287056.00000000 84257.82812500  6533472.00000000 5164226.00000000 
0.03000    125248136.00000000 78294472.00000000 198053088.00000000 82577.57812500  6414496.00000000 5070418.50000000 
0.03100    123175800.00000000 77007744.00000000 194786096.00000000 80889.28906250  6294697.50000000 4975974.50000000 
0.03200    121083952.00000000 75710768.00000000 191492288.00000000 79198.66406250  6174320.00000000 4881054.50000000 
0.03300    118979704.00000000 74404240.00000000 188174416.00000000 77506.84375000  6053505.00000000 4785748.50000000 
0.03400    116865520.00000000 73091048.00000000 184841456.00000000 75816.10156250  5932544.00000000 4690337.50000000 
0.03500    114744296.00000000 71771840.00000000 181496864.00000000 74132.24218750  5811641.00000000 4594952.50000000 
0.03600    112620096.00000000 70451024.00000000 178146000.00000000 72457.61718750  5690991.50000000 4499774.50000000 
0.03700    110495824.00000000 69130872.00000000 174796416.00000000 70793.25781250  5570739.00000000 4404910.00000000 
0.03800    108375200.00000000 67811624.00000000 171451408.00000000 69144.19531250  5451195.00000000 4310605.50000000 
0.03900    106260176.00000000 66496628.00000000 168116560.00000000 67511.85156250  5332484.00000000 4216918.50000000 
0.04000    104156920.00000000 65187404.00000000 164797424.00000000 65898.17187500  5214765.00000000 4123987.50000000 
0.04100    102064776.00000000 63885308.00000000 161496352.00000000 64306.02734375  5098224.00000000 4032007.75000000 
0.04200    99989304.00000000 62592508.00000000 158220336.00000000 62737.48437500  4982993.00000000 3941052.50000000 
0.04300    97931056.00000000 61310712.00000000 154971136.00000000 61194.09765625  4869245.50000000 3851238.00000000 
0.04400    95893248.00000000 60041660.00000000 151754960.00000000 59678.49609375  4757124.50000000 3762724.75000000 
0.04500    93878512.00000000 58786292.00000000 148573744.00000000 58191.02343750  4646787.00000000 3675560.75000000 
0.04600    91889320.00000000 57546540.00000000 145433920.00000000 56733.98437500  4538197.00000000 3589817.25000000 
0.04700    89927640.00000000 56323508.00000000 142335776.00000000 55308.35937500  4431633.00000000 3505664.00000000 
0.04800    87995840.00000000 55118600.00000000 139284800.00000000 53914.81250000  4327100.00000000 3423103.00000000 
0.04900    86095408.00000000 53933000.00000000 136283472.00000000 52554.94140625  4224690.50000000 3342220.75000000 
0.05000    84227976.00000000 52767648.00000000 133332568.00000000 51228.75781250  4124537.75000000 3263079.50000000 
0.05100    82395392.00000000 51623496.00000000 130437272.00000000 49937.32031250  4026619.50000000 3185726.75000000 
0.05200    80597936.00000000 50502056.00000000 127597120.00000000 48680.68750000  3931067.50000000 3110221.50000000 
0.05300    78838024.00000000 49403432.00000000 124816792.00000000 47459.49218750  3837881.00000000 3036580.25000000 
0.05400    77117224.00000000 48328760.00000000 122096248.00000000 46274.03515625  3747073.75000000 2964845.00000000 
0.05500    75434632.00000000 47278060.00000000 119437848.00000000 45123.02343750  3658724.00000000 2895013.50000000 
0.05600    73793336.00000000 46252620.00000000 116842400.00000000 44007.98046875  3572795.00000000 2827125.25000000 
0.05700    72191720.00000000 45251988.00000000 114310752.00000000 42927.55468750  3489329.75000000 2761178.50000000 
0.05800    70631944.00000000 44277560.00000000 111845456.00000000 41881.39453125  3408335.25000000 2697130.50000000 
0.05900    69114112.00000000 43329024.00000000 109444504.00000000 40870.08984375  3329763.25000000 2635064.00000000 
0.06000    67638080.00000000 42406560.00000000 107110944.00000000 39891.89453125  3253609.25000000 2574865.75000000 
0.06100    66203756.00000000 41510172.00000000 104843432.00000000 38946.21093750  3179865.75000000 2516565.00000000 
0.06200    64811508.00000000 40640144.00000000 102642280.00000000 38032.73437500  3108467.25000000 2460181.00000000 
0.06300    63461476.00000000 39796620.00000000 100508544.00000000 37150.15234375  3039419.75000000 2405602.25000000 
0.06400    62152596.00000000 38978824.00000000 98439048.00000000 36297.85156250  2972638.75000000 2352826.00000000 
0.06500    60885888.00000000 38187384.00000000 96436568.00000000 35474.37500000  2908077.00000000 2301837.75000000 
0.06600    59659908.00000000 37421780.00000000 94498336.00000000 34679.57031250  2845724.00000000 2252586.00000000 
0.06700    58474404.00000000 36681556.00000000 92624992.00000000 33911.95312500  2785465.75000000 2204994.00000000 
0.06800    57327992.00000000 35966496.00000000 90815072.00000000 33170.51171875  2727274.50000000 2159000.50000000 
0.06900    56221624.00000000 35275576.00000000 89066408.00000000 32453.91992188  2671082.00000000 2114666.75000000 
0.07000    55153492.00000000 34609136.00000000 87379712.00000000 31760.75976562  2616820.50000000 2071803.62500000 
0.07100    54122688.00000000 33967016.00000000 85751120.00000000 31090.69140625  2564398.25000000 2030435.62500000 
0.07200    53128176.00000000 33347908.00000000 84181584.00000000 30442.02734375  2513762.50000000 1990472.37500000 
0.07300    52170232.00000000 32751100.00000000 82668352.00000000 29814.21875000  2464871.25000000 1951881.37500000 
0.07400    51246508.00000000 32176112.00000000 81211904.00000000 29205.14062500  2417577.25000000 1914571.37500000 
0.07500    50356468.00000000 31622980.00000000 79807576.00000000 28614.77929688  2371841.50000000 1878503.00000000 
0.07600    49498724.00000000 31089804.00000000 78454968.00000000 28041.10937500  2327598.00000000 1843616.37500000 
0.07700    48672288.00000000 30577324.00000000 77153320.00000000 27484.01367188  2284765.75000000 1809848.75000000 
0.07800    47876104.00000000 30083786.00000000 75900072.00000000 26941.87109375  2243276.75000000 1777143.12500000 
0.07900    47109140.00000000 29608356.00000000 74692592.00000000 26413.65039062  2202993.75000000 1745431.25000000 
0.08000    46370032.00000000 29151440.00000000 73529840.00000000 25898.62695312  2163980.50000000 1714659.62500000 
0.08100    45657408.00000000 28711354.00000000 72409328.00000000 25396.24414062  2126024.25000000 1684780.75000000 
0.08200    44970584.00000000 28287410.00000000 71329800.00000000 24905.14062500  2089107.87500000 1655726.00000000 
0.08300    44308124.00000000 27879022.00000000 70289040.00000000 24424.77148438  2053202.25000000 1627466.62500000 
0.08400    43667932.00000000 27485306.00000000 69285920.00000000 23954.40234375  2018206.87500000 1599925.00000000 
0.08500    43050380.00000000 27105862.00000000 68317256.00000000 23493.31250000  1984075.62500000 1573072.25000000 
0.08600    42453544.00000000 26739520.00000000 67382008.00000000 23040.95312500  1950735.37500000 1546839.75000000 
0.08700    41875940.00000000 26385772.00000000 66478044.00000000 22596.74609375  1918137.12500000 1521204.25000000 
0.08800    41317060.00000000 26043900.00000000 65603728.00000000 22160.07421875  1886228.37500000 1496114.37500000 
0.08900    40775636.00000000 25713180.00000000 64756912.00000000 21730.45898438  1854967.37500000 1471536.50000000 
0.09000    40250860.00000000 25393200.00000000 63936732.00000000 21307.52929688  1824292.75000000 1447412.12500000 
0.09100    39740516.00000000 25082770.00000000 63140424.00000000 20890.93164062  1794170.37500000 1423724.87500000 
0.09200    39245168.00000000 24781340.00000000 62367292.00000000 20480.42773438  1764550.50000000 1400435.25000000 
0.09300    38762764.00000000 24488632.00000000 61615152.00000000 20075.40820312  1735400.50000000 1377504.25000000 
0.09400    38292428.00000000 24203428.00000000 60882640.00000000 19676.32226562  1706681.75000000 1354930.25000000 
0.09500    37833960.00000000 23925698.00000000 60168432.00000000 19282.44726562  1678378.25000000 1332667.00000000 
0.09600    37385960.00000000 23654682.00000000 59470928.00000000 18893.50195312  1650446.00000000 1310706.75000000 
0.09700    36947280.00000000 23389970.00000000 58789504.00000000 18509.73828125  1622874.87500000 1289008.37500000 
0.09800    36518072.00000000 23130926.00000000 58121136.00000000 18131.00976562  1595629.50000000 1267569.25000000 
0.09900    36097000.00000000 22876796.00000000 57466840.00000000 17757.40429688  1568697.37500000 1246377.62500000 
0.10000    35683384.00000000 22627482.00000000 56824372.00000000 17388.53710938  1542057.12500000 1225399.62500000 
0.10100    35275864.00000000 22382334.00000000 56192344.00000000 17024.44726562  1515690.87500000 1204643.62500000 
0.10200    34875884.00000000 22141040.00000000 55569592.00000000 16665.83984375  1489597.75000000 1184068.87500000 
0.10300    34480524.00000000 21903178.00000000 54956700.00000000 16311.79199219  1463771.25000000 1163711.12500000 
0.10400    34090504.00000000 21668492.00000000 54351440.00000000 15962.97265625  1438194.12500000 1143536.50000000 
0.10500    33705456.00000000 21436720.00000000 53753244.00000000 15619.10449219  1412862.12500000 1123560.75000000 
0.10600    33324384.00000000 21207204.00000000 53161296.00000000 15280.67968750  1387754.00000000 1103745.62500000 
0.10700    32947190.00000000 20980056.00000000 52575412.00000000 14947.53515625  1362912.62500000 1084132.00000000 
0.10800    32573304.00000000 20754464.00000000 51994064.00000000 14619.58593750  1338298.75000000 1064684.87500000 
0.10900    32202346.00000000 20530550.00000000 51417256.00000000 14297.18359375  1313924.50000000 1045410.75000000 
0.11000    31834142.00000000 20308542.00000000 50844912.00000000 13980.38574219  1289794.62500000 1026336.06250000 
0.11100    31468332.00000000 20087518.00000000 50275896.00000000 13669.22753906  1265903.62500000 1007433.56250000 
0.11200    31104708.00000000 19867484.00000000 49709564.00000000 13363.71582031  1242255.12500000 988709.75000000 
0.11300    30743234.00000000 19648412.00000000 49146196.00000000 13063.92480469  1218865.00000000 970176.56250000 
0.11400    30383414.00000000 19430224.00000000 48585896.00000000 12770.16796875  1195716.00000000 951840.62500000 
0.11500    30025402.00000000 19212718.00000000 48027496.00000000 12482.14941406  1172846.50000000 933699.93750000 
0.11600    29668848.00000000 18995780.00000000 47470744.00000000 12200.13671875  1150244.25000000 915759.75000000 
0.11700    29313610.00000000 18779286.00000000 46915792.00000000 11924.01074219  1127902.37500000 898029.56250000 
0.11800    28959702.00000000 18563288.00000000 46362684.00000000 11653.92968750  1105834.37500000 880496.50000000 
0.11900    28607064.00000000 18347790.00000000 45810828.00000000 11389.68261719  1084048.25000000 863182.93750000 
0.12000    28255538.00000000 18132532.00000000 45259844.00000000 11131.45214844  1062543.25000000 846089.43750000 
0.12100    27905278.00000000 17917448.00000000 44710956.00000000 10879.11523438  1041347.93750000 829221.93750000 
0.12200    27556308.00000000 17702788.00000000 44163452.00000000 10632.71582031  1020431.87500000 812579.43750000 
0.12300    27208286.00000000 17488510.00000000 43616384.00000000 10392.03320312  999817.00000000 796163.81250000 
0.12400    26861506.00000000 17274574.00000000 43071460.00000000 10157.16210938  979510.31250000 779986.06250000 
0.12500    26515788.00000000 17060804.00000000 42527588.00000000 9927.87109375   959513.18750000 764039.25000000 
0.12600    26171366.00000000 16847480.00000000 41985596.00000000 9704.30078125   939819.81250000 748340.75000000 
0.12700    25828250.00000000 16634756.00000000 41444796.00000000 9486.07421875   920439.00000000 732886.25000000 
0.12800    25486526.00000000 16422242.00000000 40905552.00000000 9273.17968750   901379.56250000 717668.12500000 
0.12900    25146284.00000000 16210275.00000000 40368732.00000000 9065.46875000   882626.37500000 702699.06250000 
0.13000    24807146.00000000 15998845.00000000 39832412.00000000 8862.92871094   864196.00000000 687978.18750000 
0.13100    24469742.00000000 15787941.00000000 39298584.00000000 8665.29003906   846072.06250000 673502.00000000 
0.13200    24133960.00000000 15577598.00000000 38767356.00000000 8472.40234375   828269.75000000 659275.18750000 
0.13300    23799766.00000000 15368136.00000000 38237680.00000000 8284.21386719   810779.06250000 645294.68750000 
0.13400    23467388.00000000 15159250.00000000 37710416.00000000 8100.51953125   793600.06250000 631557.62500000 
0.13500    23136874.00000000 14951341.00000000 37186356.00000000 7921.01953125   776727.43750000 618066.68750000 
0.13600    22808218.00000000 14744162.00000000 36664340.00000000 7745.75634766   760166.75000000 604820.12500000 
0.13700    22481344.00000000 14537905.00000000 36145176.00000000 7574.48876953   743910.43750000 591817.50000000 
0.13800    22156870.00000000 14332758.00000000 35628892.00000000 7407.10205078   727947.25000000 579046.56250000 
0.13900    21834346.00000000 14128667.00000000 35115608.00000000 7243.37939453   712293.43750000 566517.12500000 
0.14000    21514280.00000000 13925607.00000000 34606016.00000000 7083.25097656   696920.93750000 554212.56250000 
0.14100    21196298.00000000 13723970.00000000 34099224.00000000 6926.51757812   681843.43750000 542144.06250000 
0.14200    20880934.00000000 13523405.00000000 33596208.00000000 6772.99755859   667046.31250000 530306.31250000 
0.14300    20568034.00000000 13324257.00000000 33096968.00000000 6622.68066406   652529.06250000 518684.00000000 
0.14400    20257476.00000000 13126395.00000000 32601168.00000000 6475.19238281   638278.18750000 507283.18750000 
0.14500    19949636.00000000 12930035.00000000 32109642.00000000 6330.74609375   624306.18750000 496101.03125000 
0.14600    19644508.00000000 12735193.00000000 31621880.00000000 6189.04052734   610591.62500000 485125.81250000 
0.14700    19342110.00000000 12541921.00000000 31138412.00000000 6049.95605469   597139.43750000 474362.34375000 
0.14800    19042622.00000000 12350250.00000000 30658966.00000000 5913.44335938   583938.43750000 463795.81250000 
0.14900    18745804.00000000 12160110.00000000 30183994.00000000 5779.37744141   570978.87500000 453433.50000000 
0.15000    18451958.00000000 11971699.00000000 29713606.00000000 5647.76562500   558271.25000000 443263.34375000 
0.15100    18161112.00000000 11785184.00000000 29247378.00000000 5518.35009766   545791.50000000 433284.65625000 
0.15200    17873374.00000000 11600211.00000000 28786336.00000000 5391.33154297   533546.31250000 423496.46875000 
0.15300    17588604.00000000 11417288.00000000 28329888.00000000 5266.54687500   521531.84375000 413887.75000000 
0.15400    17306688.00000000 11236151.00000000 27877764.00000000 5143.85400391   509736.87500000 404458.59375000 
0.15500    17028304.00000000 11056850.00000000 27431020.00000000 5023.32568359   498163.90625000 395205.75000000 
0.15600    16752835.00000000 10879493.00000000 26989104.00000000 4904.86376953   486800.68750000 386124.21875000 
0.15700    16480748.00000000 10704248.00000000 26552196.00000000 4788.58447266   475644.62500000 377213.31250000 
0.15800    16211623.00000000 10530648.00000000 26120184.00000000 4674.22363281   464697.71875000 368463.46875000 
0.15900    15945872.00000000 10359366.00000000 25693446.00000000 4562.01318359   453950.87500000 359883.50000000 
0.16000    15683339.00000000 10189899.00000000 25271428.00000000 4451.77685547   443403.75000000 351455.50000000 
0.16100    15424122.00000000 10022628.00000000 24855074.00000000 4343.68066406   433049.93750000 343188.03125000 
0.16200    15168137.00000000 9857232.00000000 24443784.00000000 4237.64550781   422887.59375000 335071.43750000 
0.16300    14915462.00000000 9694082.00000000 24037668.00000000 4133.61865234   412909.78125000 327105.06250000 
0.16400    14666075.00000000 9532904.00000000 23637032.00000000 4031.69677734   403121.84375000 319289.68750000 
0.16500    14420030.00000000 9373760.00000000 23241332.00000000 3931.82202148   393513.68750000 311620.34375000 
0.16600    14177321.00000000 9216888.00000000 22851010.00000000 3834.05688477   384085.93750000 304094.09375000 
0.16700    13937873.00000000 9062001.00000000 22465892.00000000 3738.36181641   374831.00000000 296709.84375000 
0.16800    13701661.00000000 8909118.00000000 22086054.00000000 3644.78808594   365755.53125000 289461.81250000 
0.16900    13468839.00000000 8758567.00000000 21711506.00000000 3553.35766602   356855.28125000 282355.50000000 
0.17000    13239271.00000000 8609902.00000000 21342080.00000000 3464.07226562   348121.56250000 275384.28125000 
