# SAXS profile: number of points = 501, q_min = 0, q_max = 0.5, delta_q = 0.001
#    q    intensity 
0.00000    162237120.00000000 101202016.00000000 256270096.00000000 93500.77343750  7789606.50000000 6152195.00000000 
0.00100    162211952.00000000 101186024.00000000 256231568.00000000 93479.62500000  7788098.00000000 6151042.50000000 
0.00200    162137376.00000000 101139472.00000000 256111296.00000000 93417.49218750  7783630.00000000 6147524.00000000 
0.00300    162011360.00000000 101061032.00000000 255911248.00000000 93312.78906250  7776137.00000000 6141673.00000000 
0.00400    161833184.00000000 100951656.00000000 255630544.00000000 93167.03125000  7765719.00000000 6133516.50000000 
0.00500    161603232.00000000 100811096.00000000 255271056.00000000 92979.58593750  7752353.50000000 6123060.50000000 
0.00600    161321600.00000000 100639824.00000000 254832160.00000000 92750.96093750  7736016.50000000 6110222.00000000 
0.00700    160989008.00000000 100435824.00000000 254315184.00000000 92482.20312500  7716769.50000000 6095139.50000000 
0.00800    160607120.00000000 100203304.00000000 253718768.00000000 92172.57031250  7694633.00000000 6077823.50000000 
0.00900    160174960.00000000 99940064.00000000 253045584.00000000 91823.08593750  7669614.00000000 6058208.00000000 
0.01000    159693504.00000000 99646744.00000000 252295968.00000000 91433.85156250  7641703.00000000 6036362.00000000 
0.01100    159164400.00000000 99324256.00000000 251468384.00000000 91005.82031250  7611059.50000000 6012344.50000000 
0.01200    158587248.00000000 98972000.00000000 250565824.00000000 90539.28125000  7577571.00000000 5986130.00000000 
0.01300    157964704.00000000 98589936.00000000 249588784.00000000 90035.29687500  7541407.50000000 5957772.50000000 
0.01400    157293184.00000000 98179616.00000000 248539168.00000000 89493.81250000  7502508.00000000 5927316.00000000 
0.01500    156575024.00000000 97740992.00000000 247415952.00000000 88916.32031250  7460959.00000000 5894755.00000000 
0.01600    155811376.00000000 97273848.00000000 246221344.00000000 88302.40625000  7416829.50000000 5860156.50000000 
0.01700    155003104.00000000 96779600.00000000 244957328.00000000 87654.31250000  7370142.50000000 5823588.50000000 
0.01800    154149584.00000000 96258480.00000000 243624176.00000000 86971.92187500  7320959.50000000 5785027.00000000 
0.01900    153255072.00000000 95709984.00000000 242222464.00000000 86256.70312500  7269323.50000000 5744541.50000000 
0.02000    152316080.00000000 95136704.00000000 240755568.00000000 85508.84375000  7215300.00000000 5702246.50000000 
0.02100    151337328.00000000 94537152.00000000 239223248.00000000 84729.82031250  7158987.50000000 5658079.50000000 
0.02200    150317472.00000000 93913792.00000000 237628912.00000000 83921.17187500  7100402.00000000 5612155.50000000 
0.02300    149257456.00000000 93265536.00000000 235971072.00000000 83082.83593750  7039590.00000000 5564520.00000000 
0.02400    148159936.00000000 92593848.00000000 234253824.00000000 82216.78906250  6976714.50000000 5515186.50000000 
0.02500    147024592.00000000 91899120.00000000 232477408.00000000 81323.42968750  6911770.50000000 5464269.50000000 
0.02600    145853600.00000000 91182536.00000000 230643776.00000000 80404.21875000  6844827.00000000 5411782.00000000 
0.02700    144647728.00000000 90443496.00000000 228756560.00000000 79460.40625000  6776024.00000000 5357788.50000000 
0.02800    143406080.00000000 89683952.00000000 226813616.00000000 78492.79687500  6705305.00000000 5302382.00000000 
0.02900    142132512.00000000 88903600.00000000 224820448.00000000 77502.66406250  6632909.00000000 5245596.50000000 
0.03000    140827344.00000000 88104240.00000000 222777392.00000000 76491.95312500  6558792.50000000 5187455.00000000 
0.03100    139491536.00000000 87286104.00000000 220686336.00000000 75460.72656250  6483072.50000000 5128086.00000000 
0.03200    138128016.00000000 86449608.00000000 218549344.00000000 74411.27343750  6405885.50000000 5067462.50000000 
0.03300    136735024.00000000 85595824.00000000 216367360.00000000 73343.82031250  6327225.00000000 5005760.00000000 
0.03400    135313920.00000000 84725192.00000000 214144288.00000000 72260.51562500  6247191.50000000 4942962.00000000 
0.03500    133869392.00000000 83839384.00000000 211881216.00000000 71162.22656250  6165907.50000000 4879167.50000000 
0.03600    132400672.00000000 82937528.00000000 209580144.00000000 70049.92968750  6083416.50000000 4814437.50000000 
0.03700    130908776.00000000 82022704.00000000 207242240.00000000 68925.40625000  5999858.50000000 4748804.00000000 
0.03800    129394984.00000000 81093712.00000000 204870880.00000000 67789.78906250  5915258.00000000 4682357.50000000 
0.03900    127861104.00000000 80151936.00000000 202467712.00000000 66644.03125000  5829731.50000000 4615212.00000000 
0.04000    126308808.00000000 79199032.00000000 200033104.00000000 65489.78125000  5743320.50000000 4547355.50000000 
0.04100    124738216.00000000 78234144.00000000 197572096.00000000 64327.81640625  5656142.00000000 4478905.00000000 
0.04200    123151760.00000000 77259560.00000000 195084416.00000000 63159.76562500  5568312.50000000 4409879.00000000 
0.04300    121550456.00000000 76275224.00000000 192573648.00000000 61986.83203125  5479859.00000000 4340383.00000000 
0.04400    119935248.00000000 75282632.00000000 190041296.00000000 60810.06640625  5390864.50000000 4270475.00000000 
0.04500    118308960.00000000 74282960.00000000 187489808.00000000 59630.71875000  5301428.00000000 4200204.00000000 
0.04600    116670576.00000000 73275296.00000000 184919536.00000000 58449.99218750  5211672.00000000 4129628.00000000 
0.04700    115022560.00000000 72261720.00000000 182334496.00000000 57269.17187500  5121602.50000000 4058821.75000000 
0.04800    113366184.00000000 71241912.00000000 179735632.00000000 56089.05078125  5031357.00000000 3987865.50000000 
0.04900    111702744.00000000 70218232.00000000 177124704.00000000 54910.87500000  4940995.00000000 3916783.50000000 
0.05000    110034104.00000000 69190008.00000000 174505312.00000000 53735.87500000  4850571.00000000 3845665.50000000 
0.05100    108360760.00000000 68158736.00000000 171877712.00000000 52564.98437500  4760173.00000000 3774542.00000000 
0.05200    106683888.00000000 67125192.00000000 169245312.00000000 51398.99609375  4669894.50000000 3703503.00000000 
0.05300    105004752.00000000 66090008.00000000 166608032.00000000 50239.75390625  4579780.00000000 3632582.50000000 
0.05400    103325552.00000000 65054096.00000000 163969296.00000000 49087.31250000  4489918.50000000 3561853.00000000 
0.05500    101645904.00000000 64017696.00000000 161331264.00000000 47942.83984375  4400393.00000000 3491349.75000000 
0.05600    99968624.00000000 62982176.00000000 158694880.00000000 46807.84375000  4311215.50000000 3421134.50000000 
0.05700    98293688.00000000 61947824.00000000 156061248.00000000 45682.50781250  4222536.50000000 3351273.50000000 
0.05800    96621752.00000000 60915148.00000000 153433952.00000000 44567.71875000  4134338.25000000 3281792.75000000 
0.05900    94955760.00000000 59885252.00000000 150812896.00000000 43464.69921875  4046721.25000000 3212746.25000000 
0.06000    93295560.00000000 58858440.00000000 148201248.00000000 42373.59375000  3959749.50000000 3144217.75000000 
0.06100    91641584.00000000 57835776.00000000 145600768.00000000 41295.97656250  3873468.25000000 3076181.25000000 
0.06200    89996320.00000000 56817452.00000000 143010736.00000000 40231.76953125  3787945.50000000 3008744.75000000 
0.06300    88359632.00000000 55804496.00000000 140435168.00000000 39181.99218750  3703218.75000000 2941932.75000000 
0.06400    86732880.00000000 54796820.00000000 137874624.00000000 38147.26562500  3619350.75000000 2875749.50000000 
0.06500    85117608.00000000 53795472.00000000 135331632.00000000 37128.03125000  3536363.50000000 2810287.50000000 
0.06600    83514144.00000000 52801100.00000000 132806424.00000000 36124.98046875  3454353.25000000 2745550.50000000 
0.06700    81923056.00000000 51814320.00000000 130299672.00000000 35138.37500000  3373309.00000000 2681575.75000000 
0.06800    80344440.00000000 50835068.00000000 127813176.00000000 34169.14843750  3293316.50000000 2618383.50000000 
0.06900    78781336.00000000 49864644.00000000 125349824.00000000 33216.89453125  3214409.25000000 2556049.00000000 
0.07000    77232400.00000000 48902664.00000000 122908504.00000000 32283.01562500  3136579.75000000 2494562.50000000 
0.07100    75699968.00000000 47949796.00000000 120491544.00000000 31367.16796875  3059924.00000000 2433977.25000000 
0.07200    74183960.00000000 47007088.00000000 118099952.00000000 30469.74023438  2984424.50000000 2374300.50000000 
0.07300    72684792.00000000 46074448.00000000 115734680.00000000 29591.35546875  2910129.00000000 2315540.25000000 
0.07400    71203376.00000000 45152336.00000000 113396992.00000000 28731.87304688  2837093.75000000 2257753.75000000 
0.07500    69740696.00000000 44241172.00000000 111087544.00000000 27891.61523438  2765275.00000000 2200956.00000000 
0.07600    68296280.00000000 43341196.00000000 108808128.00000000 27070.70117188  2694758.75000000 2145129.75000000 
0.07700    66872052.00000000 42453208.00000000 106557616.00000000 26269.35742188  2625556.75000000 2090333.50000000 
0.07800    65467244.00000000 41576628.00000000 104338304.00000000 25487.50195312  2557649.25000000 2036564.12500000 
0.07900    64083132.00000000 40712536.00000000 102151064.00000000 24725.44921875  2491080.00000000 1983819.50000000 
0.08000    62719480.00000000 39861048.00000000 99995056.00000000 23982.94531250  2425877.75000000 1932146.62500000 
0.08100    61377096.00000000 39022072.00000000 97872832.00000000 23260.16015625  2362005.25000000 1881522.50000000 
0.08200    60056328.00000000 38196224.00000000 95783440.00000000 22556.98632812  2299501.50000000 1831958.25000000 
0.08300    58757552.00000000 37383272.00000000 93728592.00000000 21873.39062500  2238383.25000000 1783468.62500000 
0.08400    57480368.00000000 36583784.00000000 91707416.00000000 21209.16406250  2178655.75000000 1736060.25000000 
0.08500    56226100.00000000 35797708.00000000 89721128.00000000 20564.32617188  2120272.25000000 1689734.87500000 
0.08600    54994068.00000000 35025404.00000000 87770264.00000000 19938.63085938  2063285.37500000 1644483.50000000 
0.08700    53784912.00000000 34267088.00000000 85854448.00000000 19331.94140625  2007687.62500000 1600307.25000000 
0.08800    52598648.00000000 33522500.00000000 83974512.00000000 18744.01562500  1953449.62500000 1557208.25000000 
0.08900    51435736.00000000 32791758.00000000 82130592.00000000 18174.61328125  1900582.25000000 1515183.50000000 
0.09000    50295392.00000000 32075122.00000000 80322856.00000000 17623.75000000  1849080.37500000 1474241.25000000 
0.09100    49178616.00000000 31372806.00000000 78551064.00000000 17090.68359375  1798935.50000000 1434345.50000000 
0.09200    48085024.00000000 30684436.00000000 76815248.00000000 16575.45898438  1750132.00000000 1395503.75000000 
0.09300    47014412.00000000 30010438.00000000 75116416.00000000 16077.71777344  1702660.50000000 1357721.87500000 
0.09400    45967312.00000000 29350342.00000000 73453528.00000000 15597.06445312  1656503.87500000 1320964.00000000 
0.09500    44942924.00000000 28704506.00000000 71827144.00000000 15133.12304688  1611654.87500000 1285239.25000000 
0.09600    43941844.00000000 28072746.00000000 70235864.00000000 14685.70410156  1568103.00000000 1250515.37500000 
0.09700    42963940.00000000 27455138.00000000 68681704.00000000 14254.32910156  1525813.12500000 1216798.25000000 
0.09800    42008536.00000000 26851440.00000000 67162728.00000000 13838.68359375  1484772.62500000 1184076.75000000 
0.09900    41076004.00000000 26261820.00000000 65679108.00000000 13438.32910156  1444965.62500000 1152318.50000000 
0.10000    40165752.00000000 25686008.00000000 64231188.00000000 13052.78808594  1406381.87500000 1121524.75000000 
0.10100    39278088.00000000 25123804.00000000 62818060.00000000 12681.85058594  1368978.62500000 1091653.37500000 
0.10200    38412468.00000000 24575384.00000000 61439664.00000000 12324.96582031  1332747.37500000 1062710.12500000 
0.10300    37568732.00000000 24040310.00000000 60096060.00000000 11981.68652344  1297655.62500000 1034674.75000000 
0.10400    36746476.00000000 23518682.00000000 58785716.00000000 11651.74023438  1263687.50000000 1007522.18750000 
0.10500    35946008.00000000 23010328.00000000 57509656.00000000 11334.58398438  1230814.12500000 981236.68750000 
0.10600    35166208.00000000 22514846.00000000 56266420.00000000 11029.77929688  1199012.37500000 955797.43750000 
0.10700    34407192.00000000 22032310.00000000 55055808.00000000 10737.05273438  1168252.50000000 931189.50000000 
0.10800    33668888.00000000 21562534.00000000 53877584.00000000 10455.74511719  1138513.62500000 907384.00000000 
0.10900    32949828.00000000 21105070.00000000 52731092.00000000 10185.58691406  1109774.75000000 884357.50000000 
0.11000    32251132.00000000 20660018.00000000 51615264.00000000 9926.20117188   1081981.50000000 862105.00000000 
0.11100    31571920.00000000 20226940.00000000 50530724.00000000 9677.04199219   1055137.37500000 840597.31250000 
0.11200    30911840.00000000 19805916.00000000 49476080.00000000 9437.64160156   1029189.43750000 819804.93750000 
0.11300    30270272.00000000 19396402.00000000 48450788.00000000 9207.69140625   1004128.75000000 799714.56250000 
0.11400    29647104.00000000 18998358.00000000 47454720.00000000 8986.78417969   979932.31250000 780307.93750000 
0.11500    29041818.00000000 18611630.00000000 46486696.00000000 8774.54589844   956545.00000000 761556.25000000 
0.11600    28454108.00000000 18235762.00000000 45546412.00000000 8570.52636719   933964.62500000 743440.31250000 
0.11700    27883282.00000000 17870748.00000000 44633424.00000000 8374.32031250   912154.93750000 725939.62500000 
0.11800    27329186.00000000 17516044.00000000 43746812.00000000 8185.52099609   891086.00000000 709024.18750000 
0.11900    26791434.00000000 17171614.00000000 42886032.00000000 8003.84326172   870731.50000000 692691.06250000 
0.12000    26269438.00000000 16837162.00000000 42050208.00000000 7828.84375000   851066.75000000 676903.56250000 
0.12100    25762954.00000000 16512597.00000000 41239044.00000000 7660.25585938   832056.56250000 661644.56250000 
0.12200    25271318.00000000 16197292.00000000 40451596.00000000 7497.66650391   813693.81250000 646890.18750000 
0.12300    24794536.00000000 15891355.00000000 39687584.00000000 7340.74511719   795927.31250000 632633.37500000 
0.12400    24331620.00000000 15594392.00000000 38946012.00000000 7189.18164062   778751.56250000 618834.62500000 
0.12500    23882574.00000000 15306049.00000000 38226012.00000000 7042.64306641   762127.56250000 605490.43750000 
0.12600    23446820.00000000 15026184.00000000 37527816.00000000 6900.94677734   746046.06250000 592574.12500000 
0.12700    23023872.00000000 14754595.00000000 36849656.00000000 6763.64648438   730464.56250000 580067.06250000 
0.12800    22613394.00000000 14490891.00000000 36191772.00000000 6630.49072266   715378.25000000 567949.75000000 
0.12900    22215000.00000000 14234902.00000000 35553232.00000000 6501.31591797   700743.50000000 556204.31250000 
0.13000    21828186.00000000 13986387.00000000 34932980.00000000 6375.77783203   686553.81250000 544816.12500000 
0.13100    21452654.00000000 13744969.00000000 34330672.00000000 6253.63964844   672774.00000000 533763.18750000 
0.13200    21087896.00000000 13510506.00000000 33745580.00000000 6134.66992188   659404.25000000 523033.28125000 
0.13300    20733650.00000000 13282769.00000000 33177726.00000000 6018.71191406   646398.75000000 512608.68750000 
0.13400    20389332.00000000 13061504.00000000 32625484.00000000 5905.52099609   633757.68750000 502472.15625000 
0.13500    20054638.00000000 12846470.00000000 32088970.00000000 5794.89794922   621452.93750000 492608.46875000 
0.13600    19729254.00000000 12637341.00000000 31567346.00000000 5686.63769531   609460.31250000 483003.46875000 
0.13700    19412614.00000000 12434041.00000000 31060230.00000000 5580.61230469   597773.00000000 473643.56250000 
0.13800    19104706.00000000 12236268.00000000 30566182.00000000 5476.59326172   586367.81250000 464514.31250000 
0.13900    18804880.00000000 12043776.00000000 30085930.00000000 5374.50683594   575229.75000000 455602.34375000 
0.14000    18512774.00000000 11856389.00000000 29617966.00000000 5274.19482422   564342.00000000 446900.59375000 
0.14100    18228266.00000000 11673847.00000000 29162260.00000000 5175.52001953   553694.62500000 438386.15625000 
0.14200    17950824.00000000 11496033.00000000 28717952.00000000 5078.37939453   543267.06250000 430056.50000000 
0.14300    17680170.00000000 11322529.00000000 28284740.00000000 4982.63671875   533046.75000000 421898.37500000 
0.14400    17415966.00000000 11153353.00000000 27861932.00000000 4888.18457031   523026.78125000 413902.03125000 
0.14500    17158034.00000000 10988290.00000000 27449340.00000000 4794.97021484   513188.75000000 406055.21875000 
0.14600    16906042.00000000 10827102.00000000 27046240.00000000 4702.94873047   503523.65625000 398352.59375000 
0.14700    16659626.00000000 10669630.00000000 26652290.00000000 4611.97656250   494021.96875000 390782.34375000 
0.14800    16418485.00000000 10515607.00000000 26266862.00000000 4522.02636719   484668.56250000 383337.34375000 
0.14900    16182352.00000000 10365004.00000000 25889852.00000000 4433.00878906   475462.53125000 376011.84375000 
0.15000    15951189.00000000 10217516.00000000 25520562.00000000 4344.94384766   466386.25000000 368791.46875000 
0.15100    15724404.00000000 10073085.00000000 25158646.00000000 4257.78027344   457435.65625000 361681.37500000 
0.15200    15502214.00000000 9931604.00000000 24804104.00000000 4171.48486328   448609.18750000 354668.06250000 
0.15300    15283897.00000000 9792795.00000000 24456198.00000000 4085.96411133   439891.15625000 347744.93750000 
0.15400    15069431.00000000 9656518.00000000 24114274.00000000 4001.25292969   431279.68750000 340909.53125000 
0.15500    14858719.00000000 9522778.00000000 23778576.00000000 3917.36767578   422766.37500000 334156.65625000 
0.15600    14651450.00000000 9391338.00000000 23448458.00000000 3834.26733398   414349.18750000 327478.87500000 
0.15700    14447451.00000000 9262117.00000000 23123674.00000000 3751.95385742   406026.65625000 320881.12500000 
0.15800    14246522.00000000 9134889.00000000 22804164.00000000 3670.43041992   397781.53125000 314352.65625000 
0.15900    14048630.00000000 9009657.00000000 22489258.00000000 3589.69726562   389623.87500000 307889.56250000 
0.16000    13853319.00000000 8886276.00000000 22178950.00000000 3509.76367188   381544.56250000 301492.00000000 
0.16100    13660779.00000000 8764677.00000000 21873100.00000000 3430.68920898   373543.68750000 295159.43750000 
0.16200    13470758.00000000 8644795.00000000 21571086.00000000 3352.44360352   365617.53125000 288885.46875000 
0.16300    13282818.00000000 8526354.00000000 21273030.00000000 3275.04492188   357764.62500000 282670.62500000 
0.16400    13097295.00000000 8409516.00000000 20978460.00000000 3198.57714844   349986.21875000 276516.00000000 
0.16500    12913940.00000000 8294038.00000000 20687480.00000000 3122.97338867   342273.81250000 270415.71875000 
0.16600    12732377.00000000 8179976.50000000 20399792.00000000 3048.33081055   334633.81250000 264375.46875000 
0.16700    12552804.00000000 8067050.50000000 20114972.00000000 2974.66015625   327062.75000000 258384.89062500 
0.16800    12374978.00000000 7955362.50000000 19833118.00000000 2901.94433594   319560.37500000 252451.76562500 
0.16900    12198889.00000000 7844836.50000000 19554270.00000000 2830.31323242   312128.40625000 246574.81250000 
0.17000    12024370.00000000 7735348.50000000 19277868.00000000 2759.72753906   304767.15625000 240753.79687500 
