# SAXS profile: number of points = 501, q_min = 0, q_max = 0.5, delta_q = 0.001
#    q    intensity 
0.00000    162238000.00000000 101201656.00000000 256271312.00000000 104564.58593750 8237546.50000000 6506010.00000000 
0.00100    162206528.00000000 101181696.00000000 256221216.00000000 104536.53906250 8235640.50000000 6504530.50000000 
0.00200    162110000.00000000 101121952.00000000 256069152.00000000 104454.27343750 8229903.50000000 6499976.00000000 
0.00300    161950624.00000000 101022720.00000000 255816624.00000000 104316.74218750 8220293.00000000 6492474.00000000 
0.00400    161724320.00000000 100883728.00000000 255462032.00000000 104124.47656250 8206882.50000000 6481894.00000000 
0.00500    161433296.00000000 100705472.00000000 255006384.00000000 103878.49218750 8189686.50000000 6468413.00000000 
0.00600    161079712.00000000 100487664.00000000 254451360.00000000 103577.85156250 8168701.00000000 6451928.50000000 
0.00700    160662192.00000000 100230864.00000000 253796272.00000000 103224.04687500 8143991.50000000 6432478.50000000 
0.00800    160184112.00000000 99936320.00000000 253044352.00000000 102817.52343750 8115582.00000000 6410171.00000000 
0.00900    159638080.00000000 99603144.00000000 252195792.00000000 102358.71093750 8083478.00000000 6384989.00000000 
0.01000    159035024.00000000 99232640.00000000 251250096.00000000 101848.18750000 8047775.00000000 6356963.00000000 
0.01100    158372048.00000000 98824736.00000000 250209296.00000000 101287.28906250 8008537.50000000 6326096.50000000 
0.01200    157650464.00000000 98380880.00000000 249075680.00000000 100676.88281250 7965788.00000000 6292540.50000000 
0.01300    156869584.00000000 97900072.00000000 247849936.00000000 100017.38281250 7919605.00000000 6256246.50000000 
0.01400    156030384.00000000 97383496.00000000 246532416.00000000 99310.21093750  7870003.00000000 6217302.50000000 
0.01500    155133472.00000000 96832120.00000000 245127936.00000000 98556.92187500  7817187.50000000 6175769.50000000 
0.01600    154181936.00000000 96246720.00000000 243635712.00000000 97758.12500000  7761095.50000000 6131716.50000000 
0.01700    153176784.00000000 95628352.00000000 242059456.00000000 96915.12500000  7701911.50000000 6085191.50000000 
0.01800    152120112.00000000 94977728.00000000 240399504.00000000 96029.89062500  7639633.00000000 6036252.00000000 
0.01900    151010240.00000000 94295184.00000000 238659232.00000000 95103.26562500  7574353.00000000 5984984.00000000 
0.02000    149850528.00000000 93582104.00000000 236839168.00000000 94136.97656250  7506274.00000000 5931489.00000000 
0.02100    148642400.00000000 92838056.00000000 234944208.00000000 93132.01562500  7435382.50000000 5875752.50000000 
0.02200    147387968.00000000 92065824.00000000 232974896.00000000 92090.46875000  7361847.50000000 5817955.00000000 
0.02300    146087856.00000000 91265544.00000000 230934544.00000000 91014.22656250  7285680.50000000 5758138.00000000 
0.02400    144743312.00000000 90438248.00000000 228826144.00000000 89903.52343750  7207110.50000000 5696342.00000000 
0.02500    143357376.00000000 89584568.00000000 226650672.00000000 88761.43750000  7126179.50000000 5632732.50000000 
0.02600    141931664.00000000 88706304.00000000 224411712.00000000 87589.53125000  7042976.00000000 5567332.50000000 
0.02700    140466960.00000000 87803984.00000000 222110976.00000000 86389.21875000  6957668.50000000 5500254.50000000 
0.02800    138964736.00000000 86878864.00000000 219754272.00000000 85162.31250000  6870299.00000000 5431626.50000000 
0.02900    137428416.00000000 85932424.00000000 217342000.00000000 83910.21093750  6781100.50000000 5361457.00000000 
0.03000    135859296.00000000 84964680.00000000 214878400.00000000 82635.92187500  6690078.00000000 5289887.50000000 
0.03100    134257696.00000000 83977496.00000000 212364064.00000000 81339.96875000  6597423.50000000 5217006.50000000 
0.03200    132627608.00000000 82971928.00000000 209803200.00000000 80024.68750000  6503200.00000000 5142912.50000000 
0.03300    130969928.00000000 81950072.00000000 207201120.00000000 78692.60156250  6407611.50000000 5067706.00000000 
0.03400    129286416.00000000 80912112.00000000 204555600.00000000 77344.15625000  6310700.00000000 4991483.00000000 
0.03500    127579856.00000000 79859672.00000000 201876064.00000000 75982.60156250  6212611.00000000 4914346.00000000 
0.03600    125851736.00000000 78792712.00000000 199158896.00000000 74608.90625000  6113470.00000000 4836330.50000000 
0.03700    124103656.00000000 77714040.00000000 196412944.00000000 73224.94531250  6013426.00000000 4757589.50000000 
0.03800    122337744.00000000 76623904.00000000 193638064.00000000 71832.90625000  5912583.50000000 4678249.50000000 
0.03900    120556224.00000000 75523560.00000000 190838448.00000000 70434.30468750  5811048.50000000 4598333.00000000 
0.04000    118760560.00000000 74414680.00000000 188015024.00000000 69031.32812500  5708874.00000000 4517915.00000000 
0.04100    116953576.00000000 73298504.00000000 185174384.00000000 67625.04687500  5606360.50000000 4437243.50000000 
0.04200    115136024.00000000 72175888.00000000 182317440.00000000 66217.58593750  5503470.50000000 4356224.00000000 
0.04300    113310048.00000000 71047904.00000000 179447472.00000000 64810.91406250  5400352.50000000 4275042.00000000 
0.04400    111477712.00000000 69915120.00000000 176565056.00000000 63406.21484375  5297127.00000000 4193773.75000000 
0.04500    109641560.00000000 68778952.00000000 173676896.00000000 62005.37500000  5193952.00000000 4112507.50000000 
0.04600    107801784.00000000 67641608.00000000 170783120.00000000 60609.48828125  5090884.00000000 4031317.75000000 
0.04700    105961592.00000000 66502944.00000000 167888672.00000000 59220.62109375  4988031.00000000 3950289.75000000 
0.04800    104122184.00000000 65364352.00000000 164993040.00000000 57840.01171875  4885497.50000000 3869521.25000000 
0.04900    102285856.00000000 64227160.00000000 162103376.00000000 56469.09375000  4783404.00000000 3789078.00000000 
0.05000    100453040.00000000 63092088.00000000 159218208.00000000 55109.12890625  4681865.50000000 3709052.00000000 
0.05100    98626024.00000000 61960568.00000000 156343360.00000000 53761.87109375  4580904.50000000 3629487.50000000 
0.05200    96806256.00000000 60833372.00000000 153478864.00000000 52428.08593750  4480695.50000000 3550490.25000000 
0.05300    94996184.00000000 59710964.00000000 150627872.00000000 51109.16406250  4381291.00000000 3472102.25000000 
0.05400    93196032.00000000 58594760.00000000 147792656.00000000 49806.67578125  4282770.00000000 3394412.50000000 
0.05500    91407648.00000000 57485536.00000000 144976768.00000000 48520.91406250  4185211.00000000 3317500.75000000 
0.05600    89633304.00000000 56384348.00000000 142179280.00000000 47253.32812500  4088710.50000000 3241371.75000000 
0.05700    87873280.00000000 55291652.00000000 139405664.00000000 46005.18359375  3993329.50000000 3166131.25000000 
0.05800    86128816.00000000 54208548.00000000 136656080.00000000 44777.13281250  3899164.75000000 3091813.75000000 
0.05900    84401376.00000000 53135764.00000000 133934864.00000000 43569.68359375  3806246.75000000 3018483.50000000 
0.06000    82692368.00000000 52073764.00000000 131240432.00000000 42384.14843750  3714667.75000000 2946196.75000000 
0.06100    81002592.00000000 51023624.00000000 128575952.00000000 41220.66406250  3624430.75000000 2874976.00000000 
0.06200    79333752.00000000 49985720.00000000 125943392.00000000 40080.53125000  3535648.25000000 2804865.00000000 
0.06300    77686256.00000000 48960696.00000000 123344440.00000000 38963.83203125  3448371.00000000 2735944.50000000 
0.06400    76060856.00000000 47949376.00000000 120780552.00000000 37871.19140625  3362606.50000000 2668208.25000000 
0.06500    74459112.00000000 46951828.00000000 118252288.00000000 36803.16406250  3278433.50000000 2601698.75000000 
0.06600    72881280.00000000 45969576.00000000 115762232.00000000 35759.92578125  3195871.00000000 2536446.75000000 
0.06700    71328864.00000000 45001880.00000000 113310768.00000000 34742.07031250  3114955.00000000 2472510.00000000 
0.06800    69802264.00000000 44049992.00000000 110899056.00000000 33749.72265625  3035699.50000000 2409851.25000000 
0.06900    68300864.00000000 43113664.00000000 108528528.00000000 32783.44140625  2958174.50000000 2348550.75000000 
0.07000    66826828.00000000 42194068.00000000 106199640.00000000 31842.50390625  2882353.25000000 2288585.25000000 
0.07100    65379608.00000000 41291336.00000000 103913272.00000000 30927.73828125  2808272.00000000 2229985.50000000 
0.07200    63960480.00000000 40405168.00000000 101670144.00000000 30038.90429688  2735975.50000000 2172790.75000000 
0.07300    62569448.00000000 39536352.00000000 99471552.00000000 29176.20312500  2665437.50000000 2116954.75000000 
0.07400    61207104.00000000 38685036.00000000 97317312.00000000 28339.21484375  2596668.00000000 2062531.12500000 
0.07500    59873172.00000000 37851128.00000000 95208584.00000000 27528.04296875  2529681.00000000 2009496.00000000 
0.07600    58568668.00000000 37035028.00000000 93144536.00000000 26742.38085938  2464468.50000000 1957864.75000000 
0.07700    57293192.00000000 36236852.00000000 91126352.00000000 25982.18359375  2401028.00000000 1907625.25000000 
0.07800    56047100.00000000 35456652.00000000 89154360.00000000 25246.85742188  2339370.75000000 1858778.12500000 
0.07900    54830320.00000000 34694704.00000000 87228272.00000000 24536.35351562  2279473.50000000 1811299.37500000 
0.08000    53642944.00000000 33950824.00000000 85348416.00000000 23850.22851562  2221325.50000000 1765204.00000000 
0.08100    52485056.00000000 33224618.00000000 83514904.00000000 23188.16992188  2164906.00000000 1720468.25000000 
0.08200    51356332.00000000 32516656.00000000 81727104.00000000 22549.63671875  2110177.25000000 1677081.12500000 
0.08300    50256788.00000000 31826626.00000000 79984528.00000000 21934.18359375  2057153.62500000 1635026.62500000 
0.08400    49186048.00000000 31154732.00000000 78288232.00000000 21341.31250000  2005819.62500000 1594287.37500000 
0.08500    48144160.00000000 30500392.00000000 76636656.00000000 20770.60742188  1956102.87500000 1554835.37500000 
0.08600    47130796.00000000 29863614.00000000 75030216.00000000 20221.39257812  1908006.62500000 1516663.87500000 
0.08700    46145412.00000000 29244382.00000000 73467992.00000000 19692.98046875  1861502.37500000 1479744.62500000 
0.08800    45188152.00000000 28642418.00000000 71948824.00000000 19185.30078125  1816550.50000000 1444039.12500000 
0.08900    44258400.00000000 28057594.00000000 70474600.00000000 18697.04101562  1773105.12500000 1409528.87500000 
0.09000    43355832.00000000 27489442.00000000 69042072.00000000 18227.96679688  1731146.00000000 1376208.62500000 
0.09100    42479616.00000000 26937764.00000000 67651192.00000000 17777.41210938  1690649.50000000 1344006.00000000 
0.09200    41629532.00000000 26402550.00000000 66302144.00000000 17344.64257812  1651541.37500000 1312929.50000000 
0.09300    40805632.00000000 25883230.00000000 64993476.00000000 16929.16992188  1613812.25000000 1282933.00000000 
0.09400    40006448.00000000 25379598.00000000 63724848.00000000 16529.99023438  1577400.87500000 1253985.12500000 
0.09500    39231928.00000000 24891372.00000000 62494768.00000000 16146.63476562  1542281.75000000 1226049.12500000 
0.09600    38481328.00000000 24417998.00000000 61303044.00000000 15778.58691406  1508410.62500000 1199102.12500000 
0.09700    37754504.00000000 23959444.00000000 60148024.00000000 15424.94628906  1475735.75000000 1173116.25000000 
0.09800    37050876.00000000 23515352.00000000 59029588.00000000 15085.06054688  1444233.62500000 1148029.62500000 
0.09900    36369244.00000000 23085088.00000000 57946176.00000000 14758.44335938  1413836.12500000 1123843.87500000 
0.10000    35708808.00000000 22668178.00000000 56897040.00000000 14444.17675781  1384512.50000000 1100500.75000000 
0.10100    35069768.00000000 22264556.00000000 55881048.00000000 14141.58007812  1356217.75000000 1077971.25000000 
0.10200    34451048.00000000 21873806.00000000 54897360.00000000 13850.42871094  1328916.25000000 1056226.87500000 
0.10300    33851904.00000000 21495360.00000000 53945164.00000000 13569.68164062  1302540.37500000 1035229.43750000 
0.10400    33271764.00000000 21129104.00000000 53023028.00000000 13298.79101562  1277084.00000000 1014945.25000000 
0.10500    32710156.00000000 20774434.00000000 52130380.00000000 13037.34765625  1252469.50000000 995342.12500000 
0.10600    32166266.00000000 20430680.00000000 51265568.00000000 12784.52734375  1228669.25000000 976385.37500000 
0.10700    31639388.00000000 20098160.00000000 50427760.00000000 12539.94726562  1205640.37500000 958043.87500000 
0.10800    31129224.00000000 19775424.00000000 49615960.00000000 12302.95410156  1183340.12500000 940278.87500000 
0.10900    30634276.00000000 19462978.00000000 48829604.00000000 12072.89257812  1161746.12500000 923075.87500000 
0.11000    30154452.00000000 19160046.00000000 48067048.00000000 11849.51171875  1140800.25000000 906386.75000000 
0.11100    29689372.00000000 18866352.00000000 47327488.00000000 11632.19824219  1120464.12500000 890190.56250000 
0.11200    29237804.00000000 18581246.00000000 46609800.00000000 11420.37109375  1100706.12500000 874446.62500000 
0.11300    28799478.00000000 18304766.00000000 45913128.00000000 11213.77148438  1081485.12500000 859141.62500000 
0.11400    28373600.00000000 18035958.00000000 45236752.00000000 11011.82031250  1062777.75000000 844241.00000000 
0.11500    27959770.00000000 17775020.00000000 44579224.00000000 10814.13769531  1044538.62500000 829718.12500000 
0.11600    27557118.00000000 17521184.00000000 43939456.00000000 10620.48144531  1026746.93750000 815545.87500000 
0.11700    27165342.00000000 17274240.00000000 43317320.00000000 10430.34765625  1009357.12500000 801701.12500000 
0.11800    26783384.00000000 17033762.00000000 42711164.00000000 10243.34960938  992347.62500000 788161.06250000 
0.11900    26411248.00000000 16799476.00000000 42120448.00000000 10059.28222656  975692.06250000 774901.18750000 
0.12000    26048008.00000000 16571050.00000000 41544068.00000000 9877.83203125   959361.62500000 761902.12500000 
0.12100    25693350.00000000 16348115.00000000 40981476.00000000 9698.87695312   943326.06250000 749142.37500000 
0.12200    25346790.00000000 16130236.00000000 40432224.00000000 9521.87988281   927566.43750000 736603.62500000 
0.12300    25007710.00000000 15917471.00000000 39894388.00000000 9346.93945312   912056.87500000 724269.43750000 
0.12400    24675718.00000000 15708980.00000000 39367868.00000000 9173.61035156   896778.50000000 712125.18750000 
0.12500    24350120.00000000 15504835.00000000 38852192.00000000 9001.87792969   881710.06250000 700137.06250000 
0.12600    24030968.00000000 15304875.00000000 38346780.00000000 8831.50878906   866838.31250000 688313.50000000 
0.12700    23717296.00000000 15108446.00000000 37850208.00000000 8662.45117188   852140.75000000 676628.68750000 
0.12800    23409086.00000000 14915602.00000000 37362580.00000000 8494.48339844   837596.50000000 665070.81250000 
0.12900    23105994.00000000 14725956.00000000 36882700.00000000 8327.58789062   823202.25000000 653632.75000000 
0.13000    22807328.00000000 14539405.00000000 36410484.00000000 8161.70898438   808947.06250000 642300.25000000 
0.13100    22512826.00000000 14355580.00000000 35945260.00000000 7996.71728516   794799.56250000 631064.31250000 
0.13200    22222498.00000000 14174386.00000000 35486264.00000000 7832.63085938   780766.31250000 619916.81250000 
0.13300    21935906.00000000 13995529.00000000 35033184.00000000 7669.43212891   766836.81250000 608857.12500000 
0.13400    21652620.00000000 13818889.00000000 34585632.00000000 7507.07470703   753004.50000000 597865.56250000 
0.13500    21372458.00000000 13644435.00000000 34143132.00000000 7345.59423828   739256.50000000 586947.75000000 
0.13600    21095294.00000000 13471891.00000000 33705748.00000000 7184.98535156   725592.25000000 576095.93750000 
0.13700    20820668.00000000 13300934.00000000 33272108.00000000 7025.28515625   712001.81250000 565309.68750000 
0.13800    20548506.00000000 13131647.00000000 32842652.00000000 6866.57226562   698486.31250000 554573.31250000 
0.13900    20278826.00000000 12963854.00000000 32417070.00000000 6708.87646484   685044.37500000 543901.12500000 
0.14000    20011172.00000000 12797458.00000000 31994772.00000000 6552.29443359   671677.50000000 533282.06250000 
0.14100    19745604.00000000 12632421.00000000 31575850.00000000 6396.79296875   658374.81250000 522719.25000000 
0.14200    19481708.00000000 12468499.00000000 31159664.00000000 6242.56298828   645141.00000000 512210.68750000 
0.14300    19219712.00000000 12305648.00000000 30746300.00000000 6089.63378906   631984.37500000 501758.12500000 
0.14400    18959286.00000000 12143878.00000000 30335586.00000000 5938.09130859   618894.75000000 491359.87500000 
0.14500    18700270.00000000 11983069.00000000 29927324.00000000 5788.02685547   605888.00000000 481026.25000000 
0.14600    18443026.00000000 11823188.00000000 29521474.00000000 5639.55126953   592951.37500000 470749.50000000 
0.14700    18187196.00000000 11664144.00000000 29117806.00000000 5492.81396484   580100.68750000 460539.46875000 
0.14800    17932434.00000000 11505981.00000000 28716210.00000000 5347.84375000   567339.81250000 450393.34375000 
0.14900    17679204.00000000 11348581.00000000 28316742.00000000 5204.70458984   554665.93750000 440320.62500000 
0.15000    17427186.00000000 11191992.00000000 27919280.00000000 5063.57226562   542089.56250000 430319.93750000 
0.15100    17176540.00000000 11036138.00000000 27523948.00000000 4924.55175781   529608.31250000 420400.21875000 
0.15200    16927310.00000000 10881140.00000000 27130446.00000000 4787.74755859   517240.87500000 410563.06250000 
0.15300    16679286.00000000 10726881.00000000 26739108.00000000 4653.17041016   504983.75000000 400811.12500000 
0.15400    16432468.00000000 10573375.00000000 26349678.00000000 4520.93261719   492839.43750000 391150.18750000 
0.15500    16187193.00000000 10420623.00000000 25962366.00000000 4391.20312500   480823.21875000 381588.62500000 
0.15600    15943112.00000000 10268530.00000000 25576890.00000000 4264.01953125   468933.34375000 372122.87500000 
0.15700    15700618.00000000 10117442.00000000 25193940.00000000 4139.44140625   457184.03125000 362768.65625000 
0.15800    15459443.00000000 9967081.00000000 24812868.00000000 4017.54345703   445573.31250000 353521.65625000 
0.15900    15219840.00000000 9817566.00000000 24434264.00000000 3898.40356445   434113.71875000 344391.00000000 
0.16000    14981742.00000000 9668881.00000000 24057956.00000000 3782.12890625   422800.46875000 335377.62500000 
0.16100    14745335.00000000 9521204.00000000 23684034.00000000 3668.72338867   411653.34375000 326494.90625000 
0.16200    14510629.00000000 9374462.00000000 23312730.00000000 3558.27099609   400670.71875000 317739.09375000 
0.16300    14277701.00000000 9228579.00000000 22943896.00000000 3450.78051758   389857.43750000 309115.62500000 
0.16400    14046395.00000000 9083771.00000000 22577862.00000000 3346.32788086   379221.12500000 300629.37500000 
0.16500    13817037.00000000 8940112.00000000 22214578.00000000 3244.89477539   368763.09375000 292285.87500000 
0.16600    13589648.00000000 8797506.00000000 21854424.00000000 3146.57324219   358492.18750000 284088.81250000 
0.16700    13364183.00000000 8655944.00000000 21497042.00000000 3051.30908203   348408.34375000 276040.03125000 
0.16800    13140844.00000000 8515600.00000000 21142862.00000000 2959.12011719   338518.68750000 268140.75000000 
0.16900    12919597.00000000 8376554.00000000 20791956.00000000 2870.06567383   328827.87500000 260400.54687500 
0.17000    12700683.00000000 8238687.00000000 20444412.00000000 2784.08886719   319336.96875000 252815.39062500 
