# SAXS profile: number of points = 501, q_min = 0, q_max = 0.5, delta_q = 0.001
#    q    intensity 
0.00000    162237904.00000000 101201448.00000000 256272160.00000000 99806.30468750  8048002.00000000 6356302.00000000 
0.00100    162210688.00000000 101184640.00000000 256228688.00000000 99784.07031250  8046414.50000000 6355022.00000000 
0.00200    162129792.00000000 101133840.00000000 256099584.00000000 99718.14843750  8041596.00000000 6351275.00000000 
0.00300    161994288.00000000 101049312.00000000 255883696.00000000 99607.59375000  8033699.50000000 6345027.00000000 
0.00400    161802720.00000000 100930984.00000000 255583408.00000000 99453.60937500  8022584.50000000 6336292.50000000 
0.00500    161556912.00000000 100778888.00000000 255195600.00000000 99255.44531250  8008366.50000000 6325075.00000000 
0.00600    161254800.00000000 100593336.00000000 254724208.00000000 99014.04687500  7990983.00000000 6311394.00000000 
0.00700    160900784.00000000 100374312.00000000 254165888.00000000 98729.72656250  7970513.00000000 6295283.00000000 
0.00800    160493216.00000000 100123096.00000000 253525840.00000000 98402.32031250  7946974.50000000 6276754.00000000 
0.00900    160030544.00000000 99838288.00000000 252802160.00000000 98032.62500000  7920354.50000000 6255810.50000000 
0.01000    159516656.00000000 99521416.00000000 251995872.00000000 97621.71875000  7890728.50000000 6232497.50000000 
0.01100    158952800.00000000 99173008.00000000 251108272.00000000 97169.53125000  7858149.00000000 6206840.00000000 
0.01200    158335952.00000000 98792600.00000000 250138512.00000000 96676.69531250  7822554.00000000 6178880.50000000 
0.01300    157669296.00000000 98381192.00000000 249092032.00000000 96144.19531250  7784177.00000000 6148626.00000000 
0.01400    156954640.00000000 97938552.00000000 247965488.00000000 95572.21875000  7742887.00000000 6116116.00000000 
0.01500    156189072.00000000 97465360.00000000 246762304.00000000 94961.80468750  7698820.00000000 6081426.50000000 
0.01600    155373776.00000000 96962424.00000000 245483712.00000000 94314.33593750  7652004.00000000 6044561.50000000 
0.01700    154512656.00000000 96430664.00000000 244129648.00000000 93629.96875000  7602541.00000000 6005639.00000000 
0.01800    153605552.00000000 95870136.00000000 242703216.00000000 92910.60156250  7550409.50000000 5964604.00000000 
0.01900    152653504.00000000 95282016.00000000 241205440.00000000 92156.07031250  7495744.50000000 5921570.00000000 
0.02000    151656352.00000000 94665552.00000000 239636736.00000000 91367.34375000  7438628.50000000 5876581.50000000 
0.02100    150615296.00000000 94022736.00000000 238001424.00000000 90546.22656250  7379048.50000000 5829695.50000000 
0.02200    149533280.00000000 93353528.00000000 236300288.00000000 89693.92968750  7317134.00000000 5780893.50000000 
0.02300    148411376.00000000 92659664.00000000 234533376.00000000 88810.80468750  7252942.00000000 5730391.00000000 
0.02400    147247184.00000000 91940400.00000000 232705104.00000000 87898.28125000  7186581.50000000 5678142.00000000 
0.02500    146044528.00000000 91197872.00000000 230814272.00000000 86958.52343750  7118091.50000000 5624191.00000000 
0.02600    144805632.00000000 90431856.00000000 228866576.00000000 85991.20312500  7047547.50000000 5568644.00000000 
0.02700    143531344.00000000 89643512.00000000 226861696.00000000 84998.69531250  6975048.50000000 5511574.50000000 
0.02800    142221568.00000000 88833648.00000000 224800976.00000000 83981.49218750  6900696.50000000 5453021.00000000 
0.02900    140878416.00000000 88003168.00000000 222688656.00000000 82941.15625000  6824567.50000000 5393108.00000000 
0.03000    139503552.00000000 87152720.00000000 220527680.00000000 81878.84375000  6746744.50000000 5331750.50000000 
0.03100    138097920.00000000 86283544.00000000 218316704.00000000 80796.32031250  6667305.00000000 5269226.50000000 
0.03200    136663568.00000000 85395568.00000000 216059488.00000000 79694.90625000  6586366.50000000 5205424.00000000 
0.03300    135202192.00000000 84490912.00000000 213758576.00000000 78575.07812500  6503998.00000000 5140548.00000000 
0.03400    133713096.00000000 83569456.00000000 211415424.00000000 77439.47656250  6420291.00000000 5074613.50000000 
0.03500    132199664.00000000 82632216.00000000 209035504.00000000 76288.32031250  6335345.50000000 5007680.00000000 
0.03600    130662928.00000000 81681352.00000000 206617024.00000000 75122.92968750  6249221.50000000 4939820.50000000 
0.03700    129104712.00000000 80716248.00000000 204163952.00000000 73946.00000000  6162067.00000000 4871149.50000000 
0.03800    127526456.00000000 79738688.00000000 201679728.00000000 72757.04687500  6073906.00000000 4801720.00000000 
0.03900    125928376.00000000 78749264.00000000 199164576.00000000 71559.18750000  5984886.00000000 4731580.00000000 
0.04000    124313376.00000000 77748528.00000000 196622224.00000000 70352.95312500  5895102.50000000 4660817.00000000 
0.04100    122682768.00000000 76737488.00000000 194054576.00000000 69139.03906250  5804614.00000000 4589477.50000000 
0.04200    121037280.00000000 75717712.00000000 191463712.00000000 67920.10156250  5713509.00000000 4517689.00000000 
0.04300    119378976.00000000 74689744.00000000 188851184.00000000 66696.06250000  5621915.50000000 4445517.00000000 
0.04400    117708856.00000000 73655048.00000000 186223472.00000000 65468.94531250  5529890.50000000 4372982.50000000 
0.04500    116029560.00000000 72613656.00000000 183577600.00000000 64240.26953125  5437530.00000000 4300184.50000000 
0.04600    114340832.00000000 71566512.00000000 180918592.00000000 63010.33593750  5344924.00000000 4227161.50000000 
0.04700    112645640.00000000 70514256.00000000 178246736.00000000 61781.24609375  5252153.00000000 4154023.75000000 
0.04800    110944480.00000000 69458616.00000000 175566608.00000000 60553.61328125  5159302.50000000 4080805.75000000 
0.04900    109239224.00000000 68400288.00000000 172880096.00000000 59328.79687500  5066441.00000000 4007596.75000000 
0.05000    107530136.00000000 67339496.00000000 170187200.00000000 58108.16015625  4973655.50000000 3934460.25000000 
0.05100    105820592.00000000 66277752.00000000 167492000.00000000 56892.66406250  4881074.50000000 3861438.00000000 
0.05200    104109864.00000000 65215772.00000000 164796592.00000000 55682.98046875  4788732.50000000 3788592.25000000 
0.05300    102400584.00000000 64153748.00000000 162102416.00000000 54480.82031250  4696686.00000000 3715981.50000000 
0.05400    100694008.00000000 63093324.00000000 159411152.00000000 53286.42187500  4605015.50000000 3643704.00000000 
0.05500    98990456.00000000 62034604.00000000 156725776.00000000 52101.17578125  4513830.00000000 3571778.50000000 
0.05600    97291736.00000000 60978508.00000000 154047840.00000000 50926.17578125  4423169.00000000 3500250.75000000 
0.05700    95599400.00000000 59926304.00000000 151377616.00000000 49762.06250000  4333113.00000000 3429182.50000000 
0.05800    93913984.00000000 58878224.00000000 148718512.00000000 48609.50781250  4243730.00000000 3358641.50000000 
0.05900    92236872.00000000 57834612.00000000 146073248.00000000 47469.79296875  4155030.00000000 3288671.50000000 
0.06000    90568920.00000000 56796880.00000000 143441872.00000000 46343.27343750  4067123.25000000 3219292.50000000 
0.06100    88911592.00000000 55765456.00000000 140826736.00000000 45230.67578125  3980062.50000000 3150569.25000000 
0.06200    87265656.00000000 54740716.00000000 138230160.00000000 44132.91796875  3893896.50000000 3082555.50000000 
0.06300    85631560.00000000 53723348.00000000 135650640.00000000 43050.50390625  3808670.00000000 3015273.75000000 
0.06400    84011640.00000000 52713932.00000000 133094136.00000000 41984.16015625  3724435.50000000 2948755.00000000 
0.06500    82405208.00000000 51713548.00000000 130558248.00000000 40933.95312500  3641221.75000000 2883056.50000000 
0.06600    80813968.00000000 50721828.00000000 128046672.00000000 39901.19531250  3559113.00000000 2818212.75000000 
0.06700    79239040.00000000 49740428.00000000 125559040.00000000 38885.60546875  3478103.25000000 2754248.00000000 
0.06800    77680624.00000000 48768596.00000000 123097800.00000000 37887.96484375  3398255.00000000 2691175.25000000 
0.06900    76139792.00000000 47807616.00000000 120663712.00000000 36908.61328125  3319594.25000000 2629061.75000000 
0.07000    74616640.00000000 46857584.00000000 118258824.00000000 35947.83593750  3242166.75000000 2567863.50000000 
0.07100    73112936.00000000 45919096.00000000 115882528.00000000 35006.15625000  3165976.00000000 2507667.75000000 
0.07200    71627816.00000000 44992396.00000000 113536304.00000000 34083.12109375  3091078.50000000 2448481.00000000 
0.07300    70163120.00000000 44078260.00000000 111221400.00000000 33180.10546875  3017495.25000000 2390341.00000000 
0.07400    68718752.00000000 43176292.00000000 108939000.00000000 32296.14453125  2945222.50000000 2333207.75000000 
0.07500    67295600.00000000 42287368.00000000 106689520.00000000 31432.05273438  2874267.25000000 2277134.25000000 
0.07600    65893820.00000000 41411452.00000000 104473104.00000000 30587.64453125  2804698.75000000 2222130.75000000 
0.07700    64513780.00000000 40549136.00000000 102291552.00000000 29763.22070312  2736478.25000000 2168210.25000000 
0.07800    63155920.00000000 39700540.00000000 100144776.00000000 28958.46093750  2669661.25000000 2115363.50000000 
0.07900    61820648.00000000 38865752.00000000 98032616.00000000 28173.58203125  2604206.00000000 2063603.00000000 
0.08000    60508100.00000000 38045140.00000000 95957208.00000000 27408.55664062  2540174.50000000 2012952.25000000 
0.08100    59218956.00000000 37238436.00000000 93917792.00000000 26663.21093750  2477526.25000000 1963389.75000000 
0.08200    57952860.00000000 36446416.00000000 91914896.00000000 25937.65820312  2416245.50000000 1914938.12500000 
0.08300    56710296.00000000 35669104.00000000 89948928.00000000 25231.20312500  2356404.25000000 1867579.37500000 
0.08400    55491088.00000000 34906072.00000000 88020424.00000000 24544.09375000  2297929.75000000 1821310.00000000 
0.08500    54296076.00000000 34158024.00000000 86128832.00000000 23876.38085938  2240853.75000000 1776143.12500000 
0.08600    53124492.00000000 33424588.00000000 84274456.00000000 23227.42578125  2185154.75000000 1732052.25000000 
0.08700    51976976.00000000 32705454.00000000 82457784.00000000 22597.01562500  2130812.50000000 1689057.00000000 
0.08800    50852908.00000000 32001762.00000000 80679136.00000000 21985.09765625  2077848.37500000 1647116.50000000 
0.08900    49752936.00000000 31312596.00000000 78937664.00000000 21391.22656250  2026227.37500000 1606241.25000000 
0.09000    48676824.00000000 30638170.00000000 77233912.00000000 20815.06640625  1975931.25000000 1566423.50000000 
0.09100    47624116.00000000 29978436.00000000 75567280.00000000 20256.41015625  1926947.75000000 1527628.87500000 
0.09200    46594980.00000000 29333584.00000000 73937824.00000000 19714.91992188  1879271.00000000 1489871.25000000 
0.09300    45589204.00000000 28703182.00000000 72345216.00000000 19189.94531250  1832877.87500000 1453131.62500000 
0.09400    44606688.00000000 28087266.00000000 70789032.00000000 18681.50390625  1787731.25000000 1417359.62500000 
0.09500    43647020.00000000 27485704.00000000 69269040.00000000 18189.17382812  1743820.25000000 1382569.87500000 
0.09600    42710224.00000000 26898398.00000000 67786064.00000000 17712.09179688  1701134.00000000 1348742.87500000 
0.09700    41796060.00000000 26325430.00000000 66338088.00000000 17250.40234375  1659632.87500000 1315858.37500000 
0.09800    40904152.00000000 25766182.00000000 64925352.00000000 16803.34765625  1619301.75000000 1283893.50000000 
0.09900    40034460.00000000 25220746.00000000 63547976.00000000 16370.56933594  1580118.50000000 1252834.50000000 
0.10000    39186112.00000000 24689140.00000000 62204232.00000000 15951.89746094  1542039.62500000 1222648.62500000 
0.10100    38359456.00000000 24170654.00000000 60895036.00000000 15546.61816406  1505044.62500000 1193332.25000000 
0.10200    37553876.00000000 23665538.00000000 59619040.00000000 15154.33984375  1469126.12500000 1164852.25000000 
0.10300    36768808.00000000 23173458.00000000 58375668.00000000 14774.66992188  1434230.00000000 1137185.12500000 
0.10400    36004044.00000000 22694090.00000000 57164832.00000000 14407.21582031  1400340.12500000 1110315.75000000 
0.10500    35259352.00000000 22227412.00000000 55985740.00000000 14051.58789062  1367439.12500000 1084222.00000000 
0.10600    34534288.00000000 21772922.00000000 54837196.00000000 13707.10546875  1335471.50000000 1058865.00000000 
0.10700    33828560.00000000 21330672.00000000 53719724.00000000 13373.54003906  1304428.37500000 1034256.00000000 
0.10800    33140882.00000000 20900308.00000000 52631660.00000000 13050.43066406  1274288.12500000 1010340.37500000 
0.10900    32472116.00000000 20481330.00000000 51572776.00000000 12737.35742188  1244999.00000000 987112.56250000 
0.11000    31821514.00000000 20073870.00000000 50542788.00000000 12433.87500000  1216547.25000000 964539.25000000 
0.11100    31188092.00000000 19677486.00000000 49540604.00000000 12139.69433594  1188896.50000000 942605.37500000 
0.11200    30571888.00000000 19291866.00000000 48565292.00000000 11854.25390625  1162023.37500000 921286.43750000 
0.11300    29972272.00000000 18916994.00000000 47616576.00000000 11577.34277344  1135906.37500000 900566.68750000 
0.11400    29388818.00000000 18551966.00000000 46693504.00000000 11308.44531250  1110511.75000000 880413.18750000 
0.11500    28821266.00000000 18197348.00000000 45795880.00000000 11047.27343750  1085807.75000000 860818.87500000 
0.11600    28269132.00000000 17852318.00000000 44922680.00000000 10793.37695312  1061768.00000000 841743.06250000 
0.11700    27731830.00000000 17516754.00000000 44073436.00000000 10546.47851562  1038373.81250000 823181.31250000 
0.11800    27208840.00000000 17190282.00000000 43246920.00000000 10306.25195312  1015596.00000000 805110.31250000 
0.11900    26700000.00000000 16872948.00000000 42442636.00000000 10072.34570312  993404.56250000 787502.50000000 
0.12000    26204586.00000000 16564161.00000000 41660436.00000000 9844.40234375   971770.75000000 770341.50000000 
0.12100    25722588.00000000 16263868.00000000 40899184.00000000 9622.31054688   950690.18750000 753622.37500000 
0.12200    25253280.00000000 15971507.00000000 40158152.00000000 9405.58398438   930126.37500000 737307.37500000 
0.12300    24796390.00000000 15687113.00000000 39437008.00000000 9194.02441406   910062.62500000 721379.81250000 
0.12400    24351210.00000000 15410370.00000000 38734752.00000000 8987.34960938   890467.87500000 705841.50000000 
0.12500    23917636.00000000 15140893.00000000 38050640.00000000 8785.35839844   871325.00000000 690656.06250000 
0.12600    23495082.00000000 14878545.00000000 37384672.00000000 8587.89941406   852624.00000000 675824.56250000 
0.12700    23083428.00000000 14623041.00000000 36735832.00000000 8394.54687500   834335.62500000 661312.75000000 
0.12800    22682322.00000000 14374125.00000000 36103560.00000000 8205.26953125   816442.87500000 647114.06250000 
0.12900    22290858.00000000 14131602.00000000 35487124.00000000 8019.82763672   798927.12500000 633223.75000000 
0.13000    21909080.00000000 13895291.00000000 34886036.00000000 7838.02197266   781777.75000000 619620.62500000 
0.13100    21536578.00000000 13664713.00000000 34299636.00000000 7659.67773438   764964.31250000 606288.06250000 
0.13200    21172968.00000000 13439911.00000000 33727540.00000000 7484.67431641   748489.68750000 593213.81250000 
0.13300    20818084.00000000 13220643.00000000 33169196.00000000 7312.90136719   732330.12500000 580399.56250000 
0.13400    20471192.00000000 13006509.00000000 32623912.00000000 7144.13574219   716470.62500000 567823.43750000 
0.13500    20132364.00000000 12797436.00000000 32091382.00000000 6978.36816406   700900.25000000 555474.81250000 
0.13600    19801152.00000000 12593252.00000000 31570978.00000000 6815.44287109   685611.06250000 543344.87500000 
0.13700    19477268.00000000 12393776.00000000 31062176.00000000 6655.25878906   670584.25000000 531430.25000000 
0.13800    19160290.00000000 12198594.00000000 30564786.00000000 6497.68798828   655820.75000000 519718.93750000 
0.13900    18850244.00000000 12007906.00000000 30078042.00000000 6342.77929688   641301.81250000 508205.28125000 
0.14000    18546674.00000000 11821277.00000000 29601478.00000000 6190.33105469   627022.00000000 496880.87500000 
0.14100    18249184.00000000 11638547.00000000 29135262.00000000 6040.38916016   612971.06250000 485737.53125000 
0.14200    17957900.00000000 11459654.00000000 28678258.00000000 5892.87890625   599143.68750000 474769.34375000 
0.14300    17672280.00000000 11284382.00000000 28230514.00000000 5747.74755859   585533.25000000 463973.93750000 
0.14400    17392328.00000000 11112546.00000000 27791430.00000000 5604.90283203   572131.75000000 453347.37500000 
0.14500    17117450.00000000 10944149.00000000 27361056.00000000 5464.44677734   558938.75000000 442879.96875000 
0.14600    16847810.00000000 10778907.00000000 26938748.00000000 5326.29882812   545944.87500000 432573.50000000 
0.14700    16583246.00000000 10616808.00000000 26524140.00000000 5190.41748047   533147.06250000 422419.59375000 
0.14800    16323330.00000000 10457558.00000000 26117058.00000000 5056.84375000   520540.96875000 412417.59375000 
0.14900    16067925.00000000 10301190.00000000 25717160.00000000 4925.52001953   508123.34375000 402568.12500000 
0.15000    15816995.00000000 10147635.00000000 25324160.00000000 4796.45947266   495892.09375000 392859.37500000 
0.15100    15570347.00000000 9996595.00000000 24937958.00000000 4669.69238281   483844.53125000 383300.37500000 
0.15200    15327818.00000000 9848161.00000000 24558248.00000000 4545.25634766   471981.50000000 373883.81250000 
0.15300    15089295.00000000 9702132.00000000 24184814.00000000 4423.10205078   460298.62500000 364610.53125000 
0.15400    14854545.00000000 9558388.00000000 23816986.00000000 4303.23486328   448793.78125000 355477.53125000 
0.15500    14623477.00000000 9417014.00000000 23455582.00000000 4185.70361328   437468.06250000 346484.15625000 
0.15600    14396093.00000000 9277737.00000000 23099286.00000000 4070.50756836   426319.53125000 337631.40625000 
0.15700    14172228.00000000 9140575.00000000 22748600.00000000 3957.67382812   415352.21875000 328920.12500000 
0.15800    13951658.00000000 9005454.00000000 22403152.00000000 3847.16015625   404557.62500000 320347.09375000 
0.15900    13734442.00000000 8872282.00000000 22062960.00000000 3739.07763672   393945.90625000 311914.15625000 
0.16000    13520474.00000000 8740995.00000000 21727414.00000000 3633.37304688   383509.53125000 303618.46875000 
0.16100    13309725.00000000 8611631.00000000 21396978.00000000 3530.13012695   373254.68750000 295470.81250000 
0.16200    13101935.00000000 8484035.00000000 21071100.00000000 3429.28173828   363176.87500000 287459.46875000 
0.16300    12897179.00000000 8358220.50000000 20749892.00000000 3330.86230469   353279.28125000 279587.43750000 
0.16400    12695272.00000000 8234046.50000000 20433144.00000000 3234.91088867   343565.09375000 271859.90625000 
0.16500    12496335.00000000 8111548.00000000 20120868.00000000 3141.40307617   334028.81250000 264275.12500000 
0.16600    12300153.00000000 7990658.00000000 19812634.00000000 3050.36132812   324676.81250000 256831.54687500 
0.16700    12106727.00000000 7871389.00000000 19508722.00000000 2961.77856445   315503.87500000 249533.15625000 
0.16800    11916028.00000000 7753627.00000000 19208918.00000000 2875.65771484   306516.21875000 242377.35937500 
0.16900    11727975.00000000 7637436.00000000 18913260.00000000 2792.02905273   297715.50000000 235368.87500000 
0.17000    11542562.00000000 7522701.50000000 18621352.00000000 2710.83715820   289097.81250000 228504.21875000 
