# SAXS profile: number of points = 501, q_min = 0, q_max = 0.5, delta_q = 0.001
#    q    intensity 
0.00000    162238176.00000000 101202040.00000000 256272464.00000000 93699.98437500  7797850.50000000 6158754.50000000 
0.00100    162212816.00000000 101185584.00000000 256231376.00000000 93679.69531250  7796413.50000000 6157621.50000000 
0.00200    162135040.00000000 101137096.00000000 256107264.00000000 93620.35937500  7792067.50000000 6154188.00000000 
0.00300    162004544.00000000 101056752.00000000 255902032.00000000 93521.75781250  7784795.50000000 6148475.00000000 
0.00400    161821440.00000000 100944096.00000000 255614800.00000000 93383.88281250  7774618.50000000 6140516.00000000 
0.00500    161585568.00000000 100799424.00000000 255246304.00000000 93206.80468750  7761606.00000000 6130264.50000000 
0.00600    161298384.00000000 100623104.00000000 254796256.00000000 92990.70312500  7745682.50000000 6117809.50000000 
0.00700    160959072.00000000 100414328.00000000 254264192.00000000 92736.07031250  7726908.00000000 6103049.00000000 
0.00800    160567968.00000000 100174632.00000000 253652208.00000000 92443.20312500  7705302.50000000 6086113.50000000 
0.00900    160127568.00000000 99904480.00000000 252961216.00000000 92112.28906250  7680879.50000000 6066972.50000000 
0.01000    159634816.00000000 99602640.00000000 252191552.00000000 91744.06250000  7653702.00000000 6045612.50000000 
0.01100    159093184.00000000 99270560.00000000 251343792.00000000 91338.33593750  7623788.00000000 6022131.50000000 
0.01200    158503024.00000000 98907872.00000000 250417696.00000000 90896.51562500  7591149.50000000 5996530.50000000 
0.01300    157864112.00000000 98515336.00000000 249415200.00000000 90418.19531250  7555821.50000000 5968807.00000000 
0.01400    157177344.00000000 98093184.00000000 248338416.00000000 89904.29687500  7517874.50000000 5939002.50000000 
0.01500    156443120.00000000 97642224.00000000 247186336.00000000 89356.19531250  7477265.50000000 5907191.00000000 
0.01600    155660576.00000000 97162064.00000000 245961392.00000000 88773.48437500  7434169.00000000 5873330.50000000 
0.01700    154833456.00000000 96653784.00000000 244665168.00000000 88157.86718750  7388568.00000000 5837544.00000000 
0.01800    153961216.00000000 96117448.00000000 243297728.00000000 87508.85156250  7340496.00000000 5799813.00000000 
0.01900    153045104.00000000 95554776.00000000 241860464.00000000 86828.10156250  7290007.00000000 5760182.50000000 
0.02000    152084400.00000000 94965008.00000000 240355744.00000000 86116.29687500  7237211.50000000 5718717.50000000 
0.02100    151082400.00000000 94348976.00000000 238784016.00000000 85374.06250000  7182090.50000000 5675443.00000000 
0.02200    150039472.00000000 93708072.00000000 237148576.00000000 84602.78125000  7124728.50000000 5630444.50000000 
0.02300    148955632.00000000 93041744.00000000 235448512.00000000 83802.58593750  7065232.00000000 5583715.50000000 
0.02400    147831936.00000000 92351520.00000000 233687456.00000000 82975.17187500  7003637.00000000 5535350.00000000 
0.02500    146671376.00000000 91637968.00000000 231866544.00000000 82121.24218750  6939948.00000000 5485364.50000000 
0.02600    145472448.00000000 90901256.00000000 229987152.00000000 81241.54687500  6874354.00000000 5433861.00000000 
0.02700    144238160.00000000 90142136.00000000 228052432.00000000 80337.73437500  6806838.00000000 5380823.50000000 
0.02800    142968880.00000000 89362256.00000000 226061264.00000000 79410.25000000  6737472.50000000 5326377.50000000 
0.02900    141666608.00000000 88561064.00000000 224018448.00000000 78460.35156250  6666338.00000000 5270537.50000000 
0.03000    140331664.00000000 87740040.00000000 221924432.00000000 77488.71875000  6593557.50000000 5213340.50000000 
0.03100    138965872.00000000 86899872.00000000 219781616.00000000 76497.24218750  6519139.00000000 5154903.00000000 
0.03200    137569584.00000000 86041568.00000000 217592016.00000000 75486.08593750  6443181.50000000 5095257.00000000 
0.03300    136145968.00000000 85165392.00000000 215357856.00000000 74457.53906250  6365802.50000000 5034435.50000000 
0.03400    134693600.00000000 84272432.00000000 213080432.00000000 73412.21875000  6287027.00000000 4972569.00000000 
0.03500    133216992.00000000 83362896.00000000 210763072.00000000 72350.58593750  6206978.00000000 4909653.00000000 
0.03600    131714976.00000000 82438912.00000000 208406752.00000000 71274.42187500  6125644.00000000 4845789.50000000 
0.03700    130190176.00000000 81500280.00000000 206013088.00000000 70185.00000000  6043180.00000000 4781004.00000000 
0.03800    128642992.00000000 80547896.00000000 203586048.00000000 69083.09375000  5959696.50000000 4715377.50000000 
0.03900    127075912.00000000 79582744.00000000 201125840.00000000 67970.17968750  5875204.00000000 4648969.50000000 
0.04000    125488976.00000000 78606184.00000000 198636640.00000000 66847.18750000  5789831.00000000 4581871.50000000 
0.04100    123885256.00000000 77618160.00000000 196118336.00000000 65715.50781250  5703637.00000000 4514122.00000000 
0.04200    122265136.00000000 76619952.00000000 193574368.00000000 64575.81640625  5616675.50000000 4445791.50000000 
0.04300    120629600.00000000 75612480.00000000 191007232.00000000 63429.91406250  5529101.50000000 4376902.50000000 
0.04400    118980936.00000000 74596072.00000000 188418464.00000000 62278.52343750  5440914.50000000 4307565.00000000 
0.04500    117320088.00000000 73572176.00000000 185810336.00000000 61122.88281250  5352254.00000000 4237839.50000000 
0.04600    115647888.00000000 72542032.00000000 183184688.00000000 59964.10937500  5263151.00000000 4167780.25000000 
0.04700    113967136.00000000 71504968.00000000 180543744.00000000 58803.07812500  5173703.00000000 4097443.75000000 
0.04800    112277424.00000000 70463312.00000000 177891056.00000000 57640.97656250  5084020.50000000 4026892.25000000 
0.04900    110581552.00000000 69417624.00000000 175226976.00000000 56479.26562500  4994156.00000000 3956171.75000000 
0.05000    108879800.00000000 68367824.00000000 172553648.00000000 55318.43359375  4904147.50000000 3885382.75000000 
0.05100    107174296.00000000 67315264.00000000 169874032.00000000 54159.76562500  4814117.00000000 3814529.50000000 
0.05200    105466240.00000000 66260752.00000000 167189120.00000000 53004.26953125  4724124.00000000 3743686.25000000 
0.05300    103756568.00000000 65205140.00000000 164501888.00000000 51852.91406250  4634230.00000000 3672965.75000000 
0.05400    102045944.00000000 64149060.00000000 161815056.00000000 50706.61718750  4544546.00000000 3602356.50000000 
0.05500    100337032.00000000 63093528.00000000 159128560.00000000 49566.16796875  4455102.50000000 3531941.00000000 
0.05600    98630072.00000000 62038824.00000000 156444352.00000000 48433.03125000  4365944.00000000 3461761.00000000 
0.05700    96927112.00000000 60986044.00000000 153766272.00000000 47307.51562500  4277208.50000000 3391861.50000000 
0.05800    95228248.00000000 59936228.00000000 151095728.00000000 46190.63281250  4188908.00000000 3322315.25000000 
0.05900    93535136.00000000 58889292.00000000 148432352.00000000 45083.13671875  4101114.75000000 3253152.00000000 
0.06000    91848784.00000000 57846484.00000000 145779328.00000000 43986.06640625  4013907.75000000 3184435.25000000 
0.06100    90170576.00000000 56808392.00000000 143139232.00000000 42900.17578125  3927307.75000000 3116213.50000000 
0.06200    88502208.00000000 55775488.00000000 140513792.00000000 41825.77734375  3841424.25000000 3048508.75000000 
0.06300    86842784.00000000 54748812.00000000 137902608.00000000 40764.32812500  3756273.50000000 2981390.25000000 
0.06400    85194648.00000000 53728480.00000000 135309168.00000000 39715.57031250  3671899.75000000 2914882.75000000 
0.06500    83559360.00000000 52715088.00000000 132734976.00000000 38680.44140625  3588390.50000000 2849041.00000000 
0.06600    81936640.00000000 51709848.00000000 130180608.00000000 37659.99609375  3505774.00000000 2783871.00000000 
0.06700    80327584.00000000 50712780.00000000 127646608.00000000 36654.70312500  3424099.75000000 2719454.75000000 
0.06800    78733344.00000000 49724484.00000000 125136432.00000000 35664.38281250  3343410.75000000 2655778.00000000 
0.06900    77155088.00000000 48745800.00000000 122650624.00000000 34690.23828125  3263741.75000000 2592932.75000000 
0.07000    75593080.00000000 47776740.00000000 120189456.00000000 33732.64843750  3185137.50000000 2530910.25000000 
0.07100    74048392.00000000 46818064.00000000 117755272.00000000 32791.42187500  3107651.50000000 2469721.50000000 
0.07200    72520552.00000000 45870360.00000000 115348712.00000000 31867.63867188  3031292.75000000 2409440.25000000 
0.07300    71013032.00000000 44933452.00000000 112971624.00000000 30961.75585938  2956127.75000000 2350067.50000000 
0.07400    69524200.00000000 44008520.00000000 110624632.00000000 30073.50390625  2882131.25000000 2291634.25000000 
0.07500    68054600.00000000 43095532.00000000 108308016.00000000 29203.33007812  2809402.00000000 2234160.00000000 
0.07600    66606356.00000000 42194960.00000000 106023312.00000000 28351.76171875  2737906.50000000 2177662.50000000 
0.07700    65178800.00000000 41307220.00000000 103771296.00000000 27518.83984375  2667692.00000000 2122167.50000000 
0.07800    63773248.00000000 40432224.00000000 101553704.00000000 26704.71875000  2598792.25000000 2067694.87500000 
0.07900    62389148.00000000 39570584.00000000 99369656.00000000 25909.44140625  2531204.25000000 2014236.87500000 
0.08000    61027620.00000000 38722944.00000000 97220296.00000000 25133.34765625  2464946.25000000 1961831.12500000 
0.08100    59689152.00000000 37889132.00000000 95107280.00000000 24376.51171875  2400031.00000000 1910501.50000000 
0.08200    58373532.00000000 37068884.00000000 93030296.00000000 23638.81250000  2336495.25000000 1860208.00000000 
0.08300    57081496.00000000 36263540.00000000 90989200.00000000 22920.40625000  2274346.50000000 1810998.87500000 
0.08400    55813448.00000000 35472240.00000000 88985992.00000000 22221.16406250  2213551.50000000 1762858.62500000 
0.08500    54569360.00000000 34695880.00000000 87020176.00000000 21541.22070312  2154148.50000000 1715825.25000000 
0.08600    53349332.00000000 33933984.00000000 85092072.00000000 20880.26953125  2096154.75000000 1669856.87500000 
0.08700    52153868.00000000 33187200.00000000 83202128.00000000 20238.58398438  2039529.37500000 1624996.50000000 
0.08800    50982848.00000000 32455316.00000000 81350200.00000000 19615.63671875  1984303.50000000 1581212.62500000 
0.08900    49836780.00000000 31738596.00000000 79536968.00000000 19011.56835938  1930469.87500000 1538527.12500000 
0.09000    48715376.00000000 31036924.00000000 77762912.00000000 18426.18164062  1878014.37500000 1496922.25000000 
0.09100    47618448.00000000 30350298.00000000 76026824.00000000 17859.13671875  1826948.50000000 1456393.62500000 
0.09200    46546400.00000000 29678796.00000000 74330576.00000000 17310.16015625  1777236.50000000 1416951.75000000 
0.09300    45499072.00000000 29022420.00000000 72672008.00000000 16779.41015625  1728899.12500000 1378568.12500000 
0.09400    44476588.00000000 28381366.00000000 71051960.00000000 16266.20703125  1681903.37500000 1341245.00000000 
0.09500    43478932.00000000 27755208.00000000 69471136.00000000 15770.46386719  1636249.00000000 1304977.12500000 
0.09600    42505300.00000000 27144158.00000000 67928664.00000000 15291.91503906  1591907.12500000 1269746.87500000 
0.09700    41556244.00000000 26548044.00000000 66424156.00000000 14830.22070312  1548890.50000000 1235535.62500000 
0.09800    40631376.00000000 25966748.00000000 64957492.00000000 14384.86914062  1507155.25000000 1202353.37500000 
0.09900    39730500.00000000 25400266.00000000 63528764.00000000 13955.90332031  1466699.87500000 1170160.00000000 
0.10000    38853464.00000000 24848322.00000000 62137304.00000000 13542.58300781  1427490.75000000 1138964.25000000 
0.10100    37999644.00000000 24310752.00000000 60782196.00000000 13144.75683594  1389521.37500000 1108721.62500000 
0.10200    37169392.00000000 23787696.00000000 59464132.00000000 12762.07226562  1352758.25000000 1079441.87500000 
0.10300    36361968.00000000 23278682.00000000 58181420.00000000 12394.01171875  1317179.75000000 1051098.12500000 
0.10400    35577268.00000000 22783568.00000000 56934916.00000000 12040.10351562  1282767.25000000 1023670.06250000 
0.10500    34814752.00000000 22302342.00000000 55723068.00000000 11700.33105469  1249503.75000000 997149.37500000 
0.10600    34074388.00000000 21834700.00000000 54546072.00000000 11373.87597656  1217337.25000000 971491.62500000 
0.10700    33355534.00000000 21380290.00000000 53402848.00000000 11060.52734375  1186275.62500000 946702.06250000 
0.10800    32658002.00000000 20939092.00000000 52293288.00000000 10759.73925781  1156266.25000000 922749.43750000 
0.10900    31981050.00000000 20510726.00000000 51216040.00000000 10471.18261719  1127292.87500000 899617.75000000 
0.11000    31324594.00000000 20094934.00000000 50171156.00000000 10194.50488281  1099328.25000000 877275.25000000 
0.11100    30688218.00000000 19691552.00000000 49157600.00000000 9929.06738281   1072340.00000000 855706.75000000 
0.11200    30071428.00000000 19300316.00000000 48175232.00000000 9674.60546875   1046311.75000000 834885.93750000 
0.11300    29473418.00000000 18921056.00000000 47222440.00000000 9430.66601562   1021201.62500000 814799.81250000 
0.11400    28894460.00000000 18553292.00000000 46299484.00000000 9196.81347656   996976.25000000 795421.25000000 
0.11500    28333534.00000000 18196772.00000000 45404936.00000000 8972.59375000   973616.87500000 776721.93750000 
0.11600    27790296.00000000 17851344.00000000 44538492.00000000 8757.57617188   951094.37500000 758687.50000000 
0.11700    27264228.00000000 17516616.00000000 43699220.00000000 8551.49121094   929382.50000000 741291.62500000 
0.11800    26754816.00000000 17192256.00000000 42886144.00000000 8353.76269531   908432.06250000 724504.37500000 
0.11900    26261872.00000000 16878130.00000000 42098848.00000000 8163.97900391   888240.56250000 708316.18750000 
0.12000    25784508.00000000 16573740.00000000 41336476.00000000 7981.82617188   868753.75000000 692694.62500000 
0.12100    25322510.00000000 16279133.00000000 40598268.00000000 7806.99902344   849967.68750000 677626.87500000 
0.12200    24875278.00000000 15993485.00000000 39883432.00000000 7638.95214844   831824.93750000 663072.93750000 
0.12300    24442340.00000000 15716984.00000000 39191276.00000000 7477.40869141   814331.93750000 649033.25000000 
0.12400    24023152.00000000 15449129.00000000 38520876.00000000 7321.90625000   797435.12500000 635463.43750000 
0.12500    23617044.00000000 15189390.00000000 37871344.00000000 7172.20361328   781115.43750000 622359.93750000 
0.12600    23223950.00000000 14937777.00000000 37242460.00000000 7027.91113281   765347.43750000 609697.43750000 
0.12700    22843006.00000000 14694009.00000000 36632836.00000000 6888.67041016   750100.25000000 597446.12500000 
0.12800    22473848.00000000 14457658.00000000 36041824.00000000 6754.18212891   735348.81250000 585595.37500000 
0.12900    22116130.00000000 14228371.00000000 35468988.00000000 6624.16406250   721067.75000000 574121.18750000 
0.13000    21769160.00000000 14006025.00000000 34913412.00000000 6498.26123047   707232.31250000 563002.06250000 
0.13100    21432666.00000000 13790177.00000000 34374464.00000000 6376.22119141   693819.18750000 552223.56250000 
0.13200    21106006.00000000 13580752.00000000 33851188.00000000 6257.68408203   680805.81250000 541763.68750000 
0.13300    20788904.00000000 13377282.00000000 33342914.00000000 6142.52001953   668170.31250000 531607.25000000 
0.13400    20480634.00000000 13179510.00000000 32849086.00000000 6030.42041016   655883.18750000 521734.46875000 
0.13500    20181142.00000000 12987217.00000000 32369030.00000000 5921.14111328   643933.12500000 512128.12500000 
0.13600    19889590.00000000 12800106.00000000 31901978.00000000 5814.43603516   632293.12500000 502774.06250000 
0.13700    19605884.00000000 12617948.00000000 31447250.00000000 5710.11914062   620940.75000000 493652.71875000 
0.13800    19329460.00000000 12440589.00000000 31004060.00000000 5607.95312500   609862.18750000 484754.37500000 
0.13900    19060108.00000000 12267533.00000000 30572360.00000000 5507.75195312   599038.31250000 476058.56250000 
0.14000    18797078.00000000 12098804.00000000 30150942.00000000 5409.39257812   588450.00000000 467559.03125000 
0.14100    18540352.00000000 11933948.00000000 29739542.00000000 5312.69091797   578079.43750000 459236.34375000 
0.14200    18289442.00000000 11772928.00000000 29337560.00000000 5217.48242188   567914.87500000 451076.81250000 
0.14300    18043892.00000000 11615470.00000000 28944104.00000000 5123.59570312   557939.68750000 443075.37500000 
0.14400    17803398.00000000 11461202.00000000 28558702.00000000 5030.89257812   548136.06250000 435210.18750000 
0.14500    17567794.00000000 11310137.00000000 28181372.00000000 4939.35351562   538493.68750000 427482.40625000 
0.14600    17336636.00000000 11161981.00000000 27811314.00000000 4848.84277344   529001.43750000 419873.28125000 
0.14700    17109632.00000000 11016574.00000000 27447988.00000000 4759.15966797   519646.00000000 412379.06250000 
0.14800    16886568.00000000 10873726.00000000 27090850.00000000 4670.34375000   510411.31250000 404987.09375000 
0.14900    16667023.00000000 10733232.00000000 26739474.00000000 4582.19189453   501292.18750000 397690.78125000 
0.15000    16450874.00000000 10594930.00000000 26393816.00000000 4494.79345703   492279.46875000 390478.46875000 
0.15100    16237812.00000000 10458748.00000000 26052868.00000000 4407.97509766   483363.84375000 383347.71875000 
0.15200    16027682.00000000 10324475.00000000 25716956.00000000 4321.79345703   474541.50000000 376292.71875000 
0.15300    15820136.00000000 10191894.00000000 25385276.00000000 4236.14550781   465794.75000000 369306.43750000 
0.15400    15614931.00000000 10061021.00000000 25057424.00000000 4150.93310547   457122.25000000 362377.46875000 
0.15500    15412121.00000000 9931610.00000000 24733448.00000000 4066.25903320   448522.31250000 355514.06250000 
0.15600    15211129.00000000 9803615.00000000 24412738.00000000 3982.07470703   439983.75000000 348695.90625000 
0.15700    15012326.00000000 9676853.00000000 24095162.00000000 3898.39453125   431512.12500000 341932.62500000 
0.15800    14814888.00000000 9551257.00000000 23780260.00000000 3815.14135742   423085.28125000 335215.43750000 
0.15900    14619333.00000000 9426804.00000000 23468022.00000000 3732.39721680   414717.40625000 328542.81250000 
0.16000    14424917.00000000 9303301.00000000 23158312.00000000 3650.12500000   406396.15625000 321910.81250000 
0.16100    14232136.00000000 9180722.00000000 22850742.00000000 3568.43432617   398126.56250000 315321.34375000 
0.16200    14040420.00000000 9059005.00000000 22545164.00000000 3487.24902344   389901.50000000 308766.50000000 
0.16300    13849781.00000000 8938003.00000000 22241482.00000000 3406.61621094   381722.03125000 302250.62500000 
0.16400    13660251.00000000 8817797.00000000 21939552.00000000 3326.62646484   373587.15625000 295772.96875000 
0.16500    13471590.00000000 8698145.00000000 21638934.00000000 3247.25659180   365497.37500000 289331.09375000 
0.16600    13283795.00000000 8579151.00000000 21340022.00000000 3168.59497070   357453.65625000 282928.06250000 
0.16700    13096822.00000000 8460725.00000000 21042390.00000000 3090.61157227   349452.09375000 276559.03125000 
0.16800    12910538.00000000 8342769.50000000 20745966.00000000 3013.38452148   341498.28125000 270227.50000000 
0.16900    12725130.00000000 8225416.50000000 20450796.00000000 2937.01928711   333594.31250000 263940.71875000 
0.17000    12540340.00000000 8108497.50000000 20156826.00000000 2861.48583984   325742.81250000 257689.34375000 
