# SAXS profile: number of points = 501, q_min = 0, q_max = 0.5, delta_q = 0.001
#    q    intensity 
0.00000    162233792.00000000 101201976.00000000 256269488.00000000 103988.38281250 8214861.50000000 6488078.50000000 
0.00100    162197824.00000000 101176800.00000000 256207872.00000000 103956.18750000 8212600.50000000 6486284.00000000 
0.00200    162083696.00000000 101102296.00000000 256020448.00000000 103860.00000000 8205710.00000000 6480869.00000000 
0.00300    161886496.00000000 100979848.00000000 255708592.00000000 103700.40625000 8194320.00000000 6471907.50000000 
0.00400    161607600.00000000 100808592.00000000 255270864.00000000 103476.46875000 8178377.50000000 6459407.00000000 
0.00500    161250288.00000000 100587736.00000000 254710720.00000000 103190.55468750 8157966.00000000 6443279.00000000 
0.00600    160814944.00000000 100317376.00000000 254025760.00000000 102841.37500000 8133109.50000000 6423677.50000000 
0.00700    160299936.00000000 100001000.00000000 253223120.00000000 102431.10156250 8103835.00000000 6400657.00000000 
0.00800    159710576.00000000 99638400.00000000 252298672.00000000 101960.42968750 8070234.50000000 6374208.50000000 
0.00900    159047184.00000000 99229424.00000000 251254560.00000000 101429.92187500 8032347.50000000 6344383.00000000 
0.01000    158313344.00000000 98773360.00000000 250096848.00000000 100841.56250000 7990268.50000000 6311260.50000000 
0.01100    157506576.00000000 98272000.00000000 248822928.00000000 100195.65625000 7944092.00000000 6274834.00000000 
0.01200    156626144.00000000 97727616.00000000 247438048.00000000 99494.24218750  7893879.50000000 6235329.00000000 
0.01300    155673712.00000000 97139016.00000000 245943456.00000000 98738.68750000  7839792.00000000 6192709.50000000 
0.01400    154657168.00000000 96508792.00000000 244342592.00000000 97930.64062500  7781859.00000000 6147111.00000000 
0.01500    153573824.00000000 95838072.00000000 242639408.00000000 97072.03125000  7720204.50000000 6098587.50000000 
0.01600    152427376.00000000 95128696.00000000 240833024.00000000 96164.51562500  7655043.50000000 6047282.00000000 
0.01700    151218528.00000000 94379848.00000000 238929520.00000000 95210.59375000  7586423.00000000 5993228.50000000 
0.01800    149949312.00000000 93593912.00000000 236932688.00000000 94211.39062500  7514483.50000000 5936543.50000000 
0.01900    148622144.00000000 92772600.00000000 234843040.00000000 93169.08593750  7439420.50000000 5877407.00000000 
0.02000    147238640.00000000 91916616.00000000 232670032.00000000 92087.12500000  7361259.50000000 5815822.50000000 
0.02100    145804672.00000000 91027648.00000000 230409696.00000000 90966.72656250  7280259.50000000 5752012.50000000 
0.02200    144319952.00000000 90107336.00000000 228071808.00000000 89809.63281250  7196550.00000000 5686075.50000000 
0.02300    142786096.00000000 89157296.00000000 225657392.00000000 88619.03906250  7110240.00000000 5618040.50000000 
0.02400    141206624.00000000 88178752.00000000 223171328.00000000 87397.12500000  7021522.00000000 5548217.50000000 
0.02500    139585472.00000000 87173344.00000000 220617072.00000000 86145.93750000  6930584.00000000 5476494.00000000 
0.02600    137924240.00000000 86142784.00000000 218000608.00000000 84868.75000000  6837580.00000000 5403185.00000000 
0.02700    136224016.00000000 85088944.00000000 215324672.00000000 83567.60156250  6742558.50000000 5328361.50000000 
0.02800    134488384.00000000 84013592.00000000 212592464.00000000 82244.12500000  6645825.00000000 5252087.00000000 
0.02900    132723224.00000000 82918264.00000000 209809712.00000000 80901.52343750  6547520.00000000 5174604.50000000 
0.03000    130926960.00000000 81803688.00000000 206982000.00000000 79541.80468750  6447755.00000000 5095986.00000000 
0.03100    129104888.00000000 80672664.00000000 204110432.00000000 78168.35937500  6346780.50000000 5016370.50000000 
0.03200    127258344.00000000 79527344.00000000 201201760.00000000 76782.42968750  6244690.50000000 4935854.50000000 
0.03300    125392216.00000000 78369016.00000000 198260096.00000000 75387.34375000  6141617.50000000 4854645.50000000 
0.03400    123506400.00000000 77198760.00000000 195288784.00000000 73984.29687500  6037841.00000000 4772768.00000000 
0.03500    121605040.00000000 76019072.00000000 192293664.00000000 72576.22656250  5933396.00000000 4690433.50000000 
0.03600    119691216.00000000 74830536.00000000 189275888.00000000 71165.01562500  5828521.50000000 4607746.50000000 
0.03700    117766216.00000000 73634880.00000000 186241904.00000000 69753.94531250  5723351.00000000 4524759.00000000 
0.03800    115834744.00000000 72434216.00000000 183196096.00000000 68344.46875000  5618009.50000000 4441680.00000000 
0.03900    113896544.00000000 71230096.00000000 180141136.00000000 66936.94531250  5512698.00000000 4358577.00000000 
0.04000    111956712.00000000 70023752.00000000 177082288.00000000 65535.57421875  5407431.50000000 4275583.50000000 
0.04100    110015848.00000000 68817824.00000000 174022640.00000000 64140.71484375  5302497.00000000 4192806.00000000 
0.04200    108077992.00000000 67613416.00000000 170964800.00000000 62755.08593750  5197914.00000000 4110278.75000000 
0.04300    106144312.00000000 66410076.00000000 167915568.00000000 61380.73437500  5093930.00000000 4028198.75000000 
0.04400    104217432.00000000 65211524.00000000 164875440.00000000 60018.26171875  4990583.50000000 3946653.00000000 
0.04500    102299096.00000000 64017964.00000000 161849232.00000000 58669.64062500  4888009.00000000 3865678.50000000 
0.04600    100391944.00000000 62831016.00000000 158840128.00000000 57336.10546875  4786302.50000000 3785419.50000000 
0.04700    98497544.00000000 61652236.00000000 155849696.00000000 56019.62500000  4685563.00000000 3705953.50000000 
0.04800    96618520.00000000 60482244.00000000 152884160.00000000 54721.01562500  4585962.50000000 3627278.25000000 
0.04900    94754928.00000000 59322420.00000000 149943264.00000000 53441.25390625  4487556.50000000 3549564.25000000 
0.05000    92910624.00000000 58173596.00000000 147033856.00000000 52181.71484375  4390325.50000000 3472838.50000000 
0.05100    91086072.00000000 57037124.00000000 144154448.00000000 50943.00000000  4294505.00000000 3397179.50000000 
0.05200    89283152.00000000 55914164.00000000 141307792.00000000 49726.53515625  4200112.00000000 3322617.50000000 
0.05300    87503288.00000000 54805024.00000000 138498816.00000000 48532.54296875  4107212.50000000 3249249.50000000 
0.05400    85748472.00000000 53711036.00000000 135727232.00000000 47362.00781250  4015854.50000000 3177096.75000000 
0.05500    84018728.00000000 52632896.00000000 132995768.00000000 46215.33593750  3926112.50000000 3106203.50000000 
0.05600    82316072.00000000 51571420.00000000 130307312.00000000 45093.06640625  3838017.75000000 3036617.25000000 
0.05700    80640696.00000000 50527112.00000000 127661872.00000000 43995.63671875  3751630.50000000 2968387.25000000 
0.05800    78995016.00000000 49500400.00000000 125062216.00000000 42923.17187500  3666977.00000000 2901542.50000000 
0.05900    77378512.00000000 48492756.00000000 122508720.00000000 41876.11718750  3584111.00000000 2836056.25000000 
0.06000    75792256.00000000 47503368.00000000 120004112.00000000 40854.36718750  3503050.75000000 2771990.25000000 
0.06100    74237536.00000000 46533532.00000000 117547896.00000000 39858.02734375  3423805.00000000 2709383.25000000 
0.06200    72714800.00000000 45583296.00000000 115141632.00000000 38887.58984375  3346366.75000000 2648189.50000000 
0.06300    71223560.00000000 44653032.00000000 112786416.00000000 37942.32031250  3270792.00000000 2588484.25000000 
0.06400    69765216.00000000 43743096.00000000 110482888.00000000 37022.16796875  3197022.25000000 2530207.50000000 
0.06500    68340112.00000000 42853640.00000000 108230864.00000000 36127.13671875  3125147.50000000 2473365.75000000 
0.06600    66947824.00000000 41984832.00000000 106030344.00000000 35256.50000000  3055039.75000000 2418000.00000000 
0.06700    65588336.00000000 41136760.00000000 103883368.00000000 34410.97656250  2986814.50000000 2364067.50000000 
0.06800    64262536.00000000 40309256.00000000 101789112.00000000 33588.88281250  2920376.25000000 2311571.00000000 
0.06900    62970108.00000000 39502732.00000000 99746632.00000000 32790.31250000  2855734.25000000 2260482.25000000 
0.07000    61710540.00000000 38716820.00000000 97756672.00000000 32014.97070312  2792850.00000000 2210797.50000000 
0.07100    60483932.00000000 37951608.00000000 95819576.00000000 31261.92382812  2731710.25000000 2162506.50000000 
0.07200    59290140.00000000 37206960.00000000 93933352.00000000 30530.94921875  2672298.50000000 2115540.25000000 
0.07300    58128856.00000000 36482632.00000000 92099016.00000000 29821.51953125  2614559.50000000 2069956.25000000 
0.07400    56999492.00000000 35778240.00000000 90315176.00000000 29132.83984375  2558468.25000000 2025647.87500000 
0.07500    55901864.00000000 35093892.00000000 88581920.00000000 28464.43164062  2503983.50000000 1982596.87500000 
0.07600    54835668.00000000 34429156.00000000 86897920.00000000 27815.46679688  2451071.75000000 1940811.62500000 
0.07700    53799316.00000000 33783792.00000000 85262576.00000000 27185.46484375  2399681.25000000 1900211.50000000 
0.07800    52793596.00000000 33157560.00000000 83674312.00000000 26573.51171875  2349780.25000000 1860803.87500000 
0.07900    51817168.00000000 32549280.00000000 82133064.00000000 25979.09570312  2301304.00000000 1822563.12500000 
0.08000    50869800.00000000 31959564.00000000 80638504.00000000 25401.58007812  2254272.75000000 1785396.37500000 
0.08100    49950528.00000000 31387510.00000000 79187392.00000000 24840.29296875  2208550.75000000 1749298.00000000 
0.08200    49058408.00000000 30832622.00000000 77780216.00000000 24294.48437500  2164147.50000000 1714256.50000000 
0.08300    48192860.00000000 30294480.00000000 76415920.00000000 23763.63085938  2120979.00000000 1680197.25000000 
0.08400    47353316.00000000 29773200.00000000 75092000.00000000 23246.75781250  2079025.50000000 1647100.87500000 
0.08500    46538852.00000000 29267460.00000000 73808520.00000000 22743.56445312  2038233.00000000 1614914.25000000 
0.08600    45748868.00000000 28777178.00000000 72563736.00000000 22253.56445312  1998569.75000000 1583628.50000000 
0.08700    44982284.00000000 28301978.00000000 71356216.00000000 21775.65625000  1959955.37500000 1553175.62500000 
0.08800    44238132.00000000 27840874.00000000 70184920.00000000 21309.54882812  1922353.62500000 1523533.50000000 
0.08900    43516040.00000000 27393880.00000000 69048672.00000000 20854.71679688  1885754.75000000 1494658.75000000 
0.09000    42815072.00000000 26960072.00000000 67945880.00000000 20410.30859375  1850051.62500000 1466525.50000000 
0.09100    42134392.00000000 26539208.00000000 66874464.00000000 19976.49218750  1815257.12500000 1439086.37500000 
0.09200    41473000.00000000 26130488.00000000 65834668.00000000 19551.80664062  1781302.12500000 1412322.62500000 
0.09300    40830176.00000000 25733718.00000000 64824764.00000000 19136.79296875  1748144.00000000 1386198.00000000 
0.09400    40205160.00000000 25347946.00000000 63842960.00000000 18730.28320312  1715748.37500000 1360672.12500000 
0.09500    39597172.00000000 24973434.00000000 62887856.00000000 18332.02539062  1684075.12500000 1335724.62500000 
0.09600    39005396.00000000 24608820.00000000 61958876.00000000 17941.83593750  1653084.87500000 1311305.75000000 
0.09700    38428808.00000000 24254068.00000000 61054096.00000000 17559.37695312  1622752.00000000 1287415.75000000 
0.09800    37867276.00000000 23908680.00000000 60173144.00000000 17184.03125000  1593036.12500000 1264008.12500000 
0.09900    37319112.00000000 23572108.00000000 59314144.00000000 16815.62304688  1563901.00000000 1241066.50000000 
0.10000    36784728.00000000 23244106.00000000 58476136.00000000 16454.02734375  1535316.50000000 1218558.62500000 
0.10100    36262768.00000000 22923646.00000000 57657788.00000000 16098.54980469  1507268.00000000 1196459.00000000 
0.10200    35752216.00000000 22611046.00000000 56858928.00000000 15749.44726562  1479723.00000000 1174762.75000000 
0.10300    35253144.00000000 22305300.00000000 56077004.00000000 15406.38281250  1452637.87500000 1153433.00000000 
0.10400    34764720.00000000 22006242.00000000 55312356.00000000 15069.02246094  1426018.62500000 1132452.75000000 
0.10500    34286164.00000000 21713662.00000000 54563760.00000000 14737.42773438  1399824.75000000 1111816.00000000 
0.10600    33816996.00000000 21426632.00000000 53829944.00000000 14411.16894531  1374025.75000000 1091500.25000000 
0.10700    33356916.00000000 21145334.00000000 53109868.00000000 14090.27246094  1348631.37500000 1071478.12500000 
0.10800    32904944.00000000 20869160.00000000 52403080.00000000 13774.71484375  1323605.62500000 1051753.00000000 
0.10900    32460996.00000000 20597892.00000000 51708564.00000000 13464.32226562  1298946.75000000 1032307.06250000 
0.11000    32024322.00000000 20331314.00000000 51025972.00000000 13158.92578125  1274621.50000000 1013125.18750000 
0.11100    31594502.00000000 20069028.00000000 50353996.00000000 12858.66699219  1250645.50000000 994209.43750000 
0.11200    31171244.00000000 19810458.00000000 49692500.00000000 12563.31738281  1226982.00000000 975536.12500000 
0.11300    30754224.00000000 19556084.00000000 49040484.00000000 12272.96777344  1203624.75000000 957101.93750000 
0.11400    30342904.00000000 19304902.00000000 48397584.00000000 11987.50292969  1180580.00000000 938905.37500000 
0.11500    29937116.00000000 19056952.00000000 47763136.00000000 11706.93945312  1157828.12500000 920944.06250000 
0.11600    29536424.00000000 18812192.00000000 47136308.00000000 11431.25195312  1135356.62500000 903195.81250000 
0.11700    29140516.00000000 18570384.00000000 46517148.00000000 11160.45117188  1113201.50000000 885674.75000000 
0.11800    28749394.00000000 18331128.00000000 45904880.00000000 10894.41699219  1091304.37500000 868359.31250000 
0.11900    28362412.00000000 18094662.00000000 45299624.00000000 10633.25000000  1069684.25000000 851258.00000000 
0.12000    27979610.00000000 17860464.00000000 44700364.00000000 10376.95507812  1048334.56250000 834365.18750000 
0.12100    27600700.00000000 17628524.00000000 44106908.00000000 10125.62402344  1027276.43750000 817690.43750000 
0.12200    27225550.00000000 17398804.00000000 43519812.00000000 9879.09179688   1006478.00000000 801223.12500000 
0.12300    26854092.00000000 17170902.00000000 42937684.00000000 9637.32812500   985946.93750000 784953.87500000 
0.12400    26486080.00000000 16944972.00000000 42360860.00000000 9400.51074219   965697.31250000 768889.81250000 
0.12500    26121314.00000000 16721041.00000000 41788680.00000000 9168.41308594   945704.25000000 753038.25000000 
0.12600    25759764.00000000 16498908.00000000 41221664.00000000 8941.25585938   925991.18750000 737395.75000000 
0.12700    25401516.00000000 16278260.00000000 40659000.00000000 8718.81152344   906552.31250000 721960.37500000 
0.12800    25046258.00000000 16059476.00000000 40101308.00000000 8501.25292969   887379.93750000 706735.00000000 
0.12900    24694020.00000000 15842302.00000000 39548148.00000000 8288.34863281   868477.31250000 691714.68750000 
0.13000    24344794.00000000 15626661.00000000 38998908.00000000 8080.33496094   849848.37500000 676907.87500000 
0.13100    23998444.00000000 15412603.00000000 38454140.00000000 7876.88916016   831506.00000000 662307.06250000 
0.13200    23654916.00000000 15200071.00000000 37913272.00000000 7678.15478516   813424.43750000 647923.43750000 
0.13300    23314318.00000000 14989134.00000000 37376872.00000000 7484.13330078   795629.18750000 633753.43750000 
0.13400    22976630.00000000 14779664.00000000 36844916.00000000 7294.53125000   778104.50000000 619799.68750000 
0.13500    22641744.00000000 14571692.00000000 36316796.00000000 7109.54394531   760860.68750000 606056.18750000 
0.13600    22309794.00000000 14365246.00000000 35792924.00000000 6928.92675781   743889.43750000 592530.81250000 
0.13700    21980854.00000000 14160317.00000000 35273448.00000000 6752.75097656   727206.81250000 579221.18750000 
0.13800    21654458.00000000 13957058.00000000 34757932.00000000 6580.88671875   710795.31250000 566130.37500000 
0.13900    21331180.00000000 13755227.00000000 34246852.00000000 6413.21191406   694659.18750000 553255.75000000 
0.14000    21010724.00000000 13555035.00000000 33740456.00000000 6249.78955078   678815.62500000 540598.62500000 
0.14100    20693464.00000000 13356308.00000000 33238200.00000000 6090.34277344   663240.75000000 528161.06250000 
0.14200    20378962.00000000 13159356.00000000 32740262.00000000 5934.90136719   647938.00000000 515940.93750000 
0.14300    20067428.00000000 12964006.00000000 32246794.00000000 5783.33984375   632920.06250000 503931.43750000 
0.14400    19759044.00000000 12770246.00000000 31757794.00000000 5635.54199219   618167.18750000 492143.40625000 
0.14500    19453754.00000000 12578212.00000000 31273482.00000000 5491.45800781   603696.25000000 480566.28125000 
0.14600    19151484.00000000 12387885.00000000 30793664.00000000 5351.01953125   589493.81250000 469206.40625000 
0.14700    18852582.00000000 12199452.00000000 30318718.00000000 5214.07128906   575561.62500000 458061.21875000 
0.14800    18556590.00000000 12012667.00000000 29848390.00000000 5080.51757812   561889.56250000 447122.59375000 
0.14900    18263840.00000000 11827652.00000000 29382940.00000000 4950.25878906   548481.56250000 436394.43750000 
0.15000    17974428.00000000 11644543.00000000 28922328.00000000 4823.25292969   535342.37500000 425871.28125000 
0.15100    17688090.00000000 11463289.00000000 28466738.00000000 4699.31347656   522453.93750000 415556.56250000 
0.15200    17405312.00000000 11283862.00000000 28015966.00000000 4578.39355469   509830.12500000 405443.40625000 
0.15300    17125648.00000000 11106409.00000000 27570412.00000000 4460.39648438   497448.37500000 395531.93750000 
0.15400    16849158.00000000 10930646.00000000 27129642.00000000 4345.26123047   485315.43750000 385815.53125000 
0.15500    16576342.00000000 10757090.00000000 26694052.00000000 4232.87841797   473429.40625000 376300.31250000 
0.15600    16306694.00000000 10585308.00000000 26263656.00000000 4123.12304688   461779.90625000 366974.28125000 
0.15700    16040281.00000000 10415656.00000000 25838478.00000000 4016.00000000   450375.96875000 357842.43750000 
0.15800    15777192.00000000 10247849.00000000 25418176.00000000 3911.28857422   439199.18750000 348893.12500000 
0.15900    15517610.00000000 10082108.00000000 25003370.00000000 3809.06884766   428253.00000000 340130.65625000 
0.16000    15261272.00000000 9918348.00000000 24593566.00000000 3709.19824219   417529.21875000 331547.12500000 
0.16100    15008461.00000000 9756633.00000000 24189272.00000000 3611.61328125   407033.93750000 323142.93750000 
0.16200    14758947.00000000 9596896.00000000 23789804.00000000 3516.25366211   396752.06250000 314914.40625000 
0.16300    14512687.00000000 9439303.00000000 23395760.00000000 3423.08203125   386683.90625000 306859.15625000 
0.16400    14269878.00000000 9283592.00000000 23007076.00000000 3332.01367188   376827.68750000 298971.53125000 
0.16500    14030425.00000000 9130097.00000000 22623450.00000000 3243.02124023   367171.62500000 291251.21875000 
0.16600    13794226.00000000 8978543.00000000 22245198.00000000 3156.07250977   357724.25000000 283694.81250000 
0.16700    13561427.00000000 8828945.00000000 21872082.00000000 3071.05688477   348472.81250000 276296.53125000 
0.16800    13331866.00000000 8681410.00000000 21503970.00000000 2988.02368164   339411.90625000 269053.59375000 
0.16900    13105821.00000000 8536032.00000000 21141500.00000000 2906.93457031   330549.25000000 261970.50000000 
0.17000    12882794.00000000 8392517.00000000 20783784.00000000 2827.72656250   321867.53125000 255034.07812500 
