# SAXS profile: number of points = 501, q_min = 0, q_max = 0.5, delta_q = 0.001
#    q    intensity 
0.00000    162231456.00000000 101202808.00000000 256268688.00000000 107650.43750000 8358299.50000000 6601325.50000000 
0.00100    162195248.00000000 101177800.00000000 256207696.00000000 107615.83593750 8355881.50000000 6599482.00000000 
0.00200    162083456.00000000 101103960.00000000 256022128.00000000 107510.82812500 8348716.00000000 6593801.00000000 
0.00300    161889856.00000000 100981888.00000000 255711008.00000000 107334.99218750 8336751.00000000 6584422.50000000 
0.00400    161612112.00000000 100810736.00000000 255275152.00000000 107089.35937500 8320028.50000000 6571304.00000000 
0.00500    161250928.00000000 100590552.00000000 254714288.00000000 106775.11718750 8298594.00000000 6554456.00000000 
0.00600    160815984.00000000 100322520.00000000 254034064.00000000 106393.58593750 8272520.00000000 6533968.50000000 
0.00700    160298480.00000000 100008376.00000000 253233360.00000000 105944.41406250 8241801.00000000 6509836.00000000 
0.00800    159709360.00000000 99648000.00000000 252310048.00000000 105428.21875000 8206529.00000000 6482208.00000000 
0.00900    159048960.00000000 99241640.00000000 251272256.00000000 104847.30468750 8166832.50000000 6451003.00000000 
0.01000    158315472.00000000 98789136.00000000 250118496.00000000 104203.17187500 8122731.00000000 6416374.50000000 
0.01100    157507632.00000000 98291224.00000000 248849712.00000000 103497.23437500 8074358.50000000 6378372.50000000 
0.01200    156627280.00000000 97749680.00000000 247468864.00000000 102730.57031250 8021817.00000000 6337031.00000000 
0.01300    155677600.00000000 97165392.00000000 245981520.00000000 101905.77343750 7965129.00000000 6292584.00000000 
0.01400    154661248.00000000 96540792.00000000 244387680.00000000 101023.32812500 7904522.50000000 6244961.50000000 
0.01500    153581952.00000000 95874872.00000000 242688640.00000000 100087.85156250 7840072.50000000 6194316.00000000 
0.01600    152435728.00000000 95170064.00000000 240891264.00000000 99100.21875000  7771960.00000000 6140729.50000000 
0.01700    151229152.00000000 94425920.00000000 238996736.00000000 98061.42968750  7700260.00000000 6084380.50000000 
0.01800    149961584.00000000 93645728.00000000 237009024.00000000 96975.07031250  7625063.50000000 6025350.50000000 
0.01900    148637824.00000000 92830264.00000000 234930352.00000000 95843.25000000  7546667.50000000 5963743.00000000 
0.02000    147259616.00000000 91980768.00000000 232766384.00000000 94669.32031250  7465184.00000000 5899636.50000000 
0.02100    145828032.00000000 91099184.00000000 230518464.00000000 93455.19531250  7380735.00000000 5833259.50000000 
0.02200    144347424.00000000 90185904.00000000 228191744.00000000 92202.92968750  7293489.00000000 5764678.00000000 
0.02300    142818496.00000000 89242712.00000000 225790688.00000000 90916.07812500  7203573.00000000 5693952.50000000 
0.02400    141243696.00000000 88271800.00000000 223319808.00000000 89598.06250000  7111273.50000000 5621349.50000000 
0.02500    139628112.00000000 87274432.00000000 220778880.00000000 88249.18750000  7016703.50000000 5547005.00000000 
0.02600    137971792.00000000 86251544.00000000 218176768.00000000 86873.87500000  6920001.50000000 5470893.50000000 
0.02700    136278320.00000000 85206728.00000000 215515984.00000000 85474.82031250  6821359.50000000 5393306.50000000 
0.02800    134552128.00000000 84140000.00000000 212800704.00000000 84054.99218750  6721023.50000000 5314341.50000000 
0.02900    132792808.00000000 83052760.00000000 210036480.00000000 82615.78906250  6619007.50000000 5234048.50000000 
0.03000    131004496.00000000 81947680.00000000 207223904.00000000 81161.50781250  6515699.50000000 5152731.50000000 
0.03100    129190704.00000000 80827088.00000000 204372176.00000000 79693.83593750  6411104.00000000 5070363.50000000 
0.03200    127352824.00000000 79690472.00000000 201482032.00000000 78215.89843750  6305452.00000000 4987184.00000000 
0.03300    125494304.00000000 78541384.00000000 198559360.00000000 76730.53125000  6198906.50000000 4903292.50000000 
0.03400    123618208.00000000 77381136.00000000 195605888.00000000 75239.26562500  6091687.00000000 4818831.00000000 
0.03500    121726264.00000000 76209760.00000000 192630144.00000000 73745.28906250  5983893.00000000 4733957.00000000 
0.03600    119822184.00000000 75029720.00000000 189632288.00000000 72250.78906250  5875729.50000000 4648718.50000000 
0.03700    117907360.00000000 73843512.00000000 186617200.00000000 70758.41406250  5767369.00000000 4563327.00000000 
0.03800    115985184.00000000 72651952.00000000 183590224.00000000 69268.78125000  5658842.00000000 4477777.00000000 
0.03900    114057456.00000000 71456752.00000000 180554608.00000000 67786.57812500  5550439.00000000 4392323.00000000 
0.04000    112126896.00000000 70259584.00000000 177514544.00000000 66312.17187500  5442280.50000000 4307035.00000000 
0.04100    110196680.00000000 69062456.00000000 174472656.00000000 64847.67187500  5334392.00000000 4221993.00000000 
0.04200    108267720.00000000 67864872.00000000 171432480.00000000 63395.74218750  5227078.00000000 4137319.75000000 
0.04300    106344160.00000000 66669076.00000000 168399232.00000000 61957.17187500  5120344.00000000 4053122.25000000 
0.04400    104425224.00000000 65477396.00000000 165375072.00000000 60534.03515625  5014400.00000000 3969476.50000000 
0.04500    102515544.00000000 64290708.00000000 162364160.00000000 59127.96875000  4909249.50000000 3886548.75000000 
0.04600    100616504.00000000 63109652.00000000 159368416.00000000 57740.49218750  4805119.50000000 3804347.50000000 
0.04700    98728760.00000000 61935720.00000000 156391984.00000000 56372.21093750  4702048.00000000 3722968.50000000 
0.04800    96855248.00000000 60770320.00000000 153437088.00000000 55025.10156250  4600154.50000000 3642509.25000000 
0.04900    94998144.00000000 59614060.00000000 150506080.00000000 53699.61328125  4499527.50000000 3563057.75000000 
0.05000    93159392.00000000 58468236.00000000 147603344.00000000 52397.47656250  4400240.00000000 3484630.50000000 
0.05100    91337848.00000000 57334284.00000000 144729248.00000000 51119.09765625  4302426.50000000 3407324.75000000 
0.05200    89537992.00000000 56212460.00000000 141887184.00000000 49864.78906250  4206033.00000000 3331198.25000000 
0.05300    87759424.00000000 55103796.00000000 139078544.00000000 48635.91406250  4111251.75000000 3256264.75000000 
0.05400    86004664.00000000 54009388.00000000 136305488.00000000 47432.70312500  4018049.25000000 3182613.75000000 
0.05500    84273240.00000000 52929556.00000000 133573392.00000000 46255.83593750  3926562.00000000 3110280.75000000 
0.05600    82568952.00000000 51865496.00000000 130878280.00000000 45105.53125000  3836765.75000000 3039300.25000000 
0.05700    80889960.00000000 50817184.00000000 128225296.00000000 43981.96875000  3748707.00000000 2969663.75000000 
0.05800    79238912.00000000 49785996.00000000 125614880.00000000 42885.26171875  3662431.00000000 2901458.75000000 
0.05900    77614680.00000000 48771432.00000000 123049056.00000000 41815.32812500  3577991.75000000 2834654.75000000 
0.06000    76020280.00000000 47774952.00000000 120527544.00000000 40772.64843750  3495381.25000000 2769288.75000000 
0.06100    74455872.00000000 46796100.00000000 118052992.00000000 39756.93750000  3414620.50000000 2705411.75000000 
0.06200    72920520.00000000 45836456.00000000 115624848.00000000 38767.79296875  3335704.00000000 2642968.00000000 
0.06300    71415896.00000000 44895612.00000000 113244880.00000000 37805.31640625  3258671.75000000 2582020.25000000 
0.06400    69941480.00000000 43973096.00000000 110912672.00000000 36868.67578125  3183474.00000000 2522483.50000000 
0.06500    68499392.00000000 43070084.00000000 108630712.00000000 35958.17187500  3110143.00000000 2464478.50000000 
0.06600    67087752.00000000 42186860.00000000 106397320.00000000 35073.39843750  3038651.50000000 2407872.50000000 
0.06700    65707144.00000000 41322804.00000000 104212832.00000000 34213.63281250  2969009.75000000 2352745.75000000 
0.06800    64358592.00000000 40478584.00000000 102079048.00000000 33377.91406250  2901163.25000000 2299036.00000000 
0.06900    63041720.00000000 39654164.00000000 99995056.00000000 32566.76367188  2835106.50000000 2246798.25000000 
0.07000    61756100.00000000 38848988.00000000 97959392.00000000 31778.60937500  2770851.50000000 2195901.75000000 
0.07100    60501608.00000000 38063036.00000000 95974424.00000000 31013.58789062  2708304.25000000 2146436.25000000 
0.07200    59278168.00000000 37297144.00000000 94037664.00000000 30270.76367188  2647500.75000000 2098276.00000000 
0.07300    58085784.00000000 36550560.00000000 92150832.00000000 29549.24414062  2588346.50000000 2051483.25000000 
0.07400    56923912.00000000 35822904.00000000 90311992.00000000 28849.01171875  2530840.75000000 2005988.50000000 
0.07500    55792364.00000000 35114344.00000000 88521024.00000000 28168.93945312  2474986.50000000 1961764.50000000 
0.07600    54690196.00000000 34424148.00000000 86777000.00000000 27508.30468750  2420671.25000000 1918784.25000000 
0.07700    53617980.00000000 33753324.00000000 85080352.00000000 26866.91992188  2367893.00000000 1877043.25000000 
0.07800    52574612.00000000 33100566.00000000 83429128.00000000 26243.71484375  2316590.75000000 1836457.37500000 
0.07900    51558988.00000000 32465494.00000000 81822824.00000000 25637.96093750  2266735.25000000 1797016.50000000 
0.08000    50572000.00000000 31848180.00000000 80260352.00000000 25049.25781250  2218297.00000000 1758692.50000000 
0.08100    49611576.00000000 31247858.00000000 78743008.00000000 24476.91992188  2171201.25000000 1721463.87500000 
0.08200    48677904.00000000 30664414.00000000 77266656.00000000 23920.13281250  2125426.75000000 1685263.87500000 
0.08300    47770736.00000000 30097666.00000000 75832304.00000000 23378.20117188  2080915.87500000 1650092.00000000 
0.08400    46888760.00000000 29546888.00000000 74438496.00000000 22850.77343750  2037641.12500000 1615881.00000000 
0.08500    46031616.00000000 29012204.00000000 73084424.00000000 22337.30468750  1995554.50000000 1582602.25000000 
0.08600    45198636.00000000 28492760.00000000 71768424.00000000 21837.31445312  1954592.75000000 1550244.62500000 
0.08700    44389328.00000000 27987968.00000000 70490120.00000000 21349.48828125  1914731.62500000 1518759.50000000 
0.08800    43602700.00000000 27497918.00000000 69248056.00000000 20874.17382812  1875923.62500000 1488100.62500000 
0.08900    42837948.00000000 27021942.00000000 68041576.00000000 20410.40820312  1838131.87500000 1458265.87500000 
0.09000    42094772.00000000 26559640.00000000 66868956.00000000 19957.96679688  1801309.75000000 1429180.00000000 
0.09100    41372492.00000000 26110340.00000000 65729596.00000000 19516.20703125  1765424.00000000 1400857.25000000 
0.09200    40670112.00000000 25674132.00000000 64622260.00000000 19084.73632812  1730425.12500000 1373225.00000000 
0.09300    39986908.00000000 25249970.00000000 63545968.00000000 18663.25195312  1696291.50000000 1346283.75000000 
0.09400    39322972.00000000 24838198.00000000 62499560.00000000 18251.28320312  1662952.87500000 1319985.62500000 
0.09500    38676320.00000000 24437386.00000000 61481544.00000000 17848.55078125  1630430.75000000 1294312.25000000 
0.09600    38047340.00000000 24047954.00000000 60490852.00000000 17454.30664062  1598643.62500000 1269238.25000000 
0.09700    37434764.00000000 23669190.00000000 59527688.00000000 17068.99218750  1567583.75000000 1244721.37500000 
0.09800    36838868.00000000 23300394.00000000 58589628.00000000 16691.74804688  1537219.37500000 1220763.25000000 
0.09900    36258400.00000000 22941816.00000000 57676716.00000000 16322.46289062  1507501.50000000 1197330.00000000 
0.10000    35692204.00000000 22592506.00000000 56787136.00000000 15960.90527344  1478429.12500000 1174385.50000000 
0.10100    35140180.00000000 22252194.00000000 55920160.00000000 15606.83203125  1449955.50000000 1151926.87500000 
0.10200    34602012.00000000 21920554.00000000 55074904.00000000 15259.99707031  1422053.75000000 1129906.25000000 
0.10300    34076748.00000000 21597084.00000000 54250440.00000000 14920.29785156  1394710.12500000 1108334.50000000 
0.10400    33564116.00000000 21281722.00000000 53445984.00000000 14587.38183594  1367917.75000000 1087181.00000000 
0.10500    33063346.00000000 20973914.00000000 52660692.00000000 14261.17089844  1341630.00000000 1066440.37500000 
0.10600    32573958.00000000 20673206.00000000 51893080.00000000 13941.66015625  1315837.37500000 1046071.06250000 
0.10700    32095702.00000000 20379406.00000000 51143060.00000000 13628.56347656  1290508.50000000 1026074.31250000 
0.10800    31627612.00000000 20092280.00000000 50409580.00000000 13321.66308594  1265636.25000000 1006433.62500000 
0.10900    31169628.00000000 19811262.00000000 49691964.00000000 13020.86816406  1241207.87500000 987140.25000000 
0.11000    30721192.00000000 19536490.00000000 48988992.00000000 12726.37988281  1217208.87500000 968171.81250000 
0.11100    30281932.00000000 19266966.00000000 48300780.00000000 12437.75195312  1193632.50000000 949533.68750000 
0.11200    29851212.00000000 19003318.00000000 47626232.00000000 12155.01074219  1170430.62500000 931203.25000000 
0.11300    29428568.00000000 18744532.00000000 46964460.00000000 11877.85449219  1147632.75000000 913162.87500000 
0.11400    29014174.00000000 18490680.00000000 46315300.00000000 11606.68945312  1125204.37500000 895429.75000000 
0.11500    28607162.00000000 18241428.00000000 45678208.00000000 11340.83789062  1103149.25000000 877966.56250000 
0.11600    28207182.00000000 17996552.00000000 45051940.00000000 11080.68457031  1081446.87500000 860783.18750000 
0.11700    27814388.00000000 17755930.00000000 44436700.00000000 10825.96191406  1060092.12500000 843870.43750000 
0.11800    27427926.00000000 17519204.00000000 43831408.00000000 10576.49023438  1039075.68750000 827210.56250000 
0.11900    27047486.00000000 17286408.00000000 43235820.00000000 10332.37890625  1018383.00000000 810811.62500000 
0.12000    26673216.00000000 17057120.00000000 42649832.00000000 10093.42382812  998026.56250000 794660.62500000 
0.12100    26304758.00000000 16831262.00000000 42072136.00000000 9859.63183594   977984.68750000 778757.25000000 
0.12200    25941794.00000000 16608583.00000000 41503364.00000000 9630.92089844   958257.18750000 763102.68750000 
0.12300    25583984.00000000 16389045.00000000 40942624.00000000 9407.26464844   938838.00000000 747676.87500000 
0.12400    25231142.00000000 16172419.00000000 40389220.00000000 9188.38378906   919721.37500000 732492.93750000 
0.12500    24883088.00000000 15958671.00000000 39842908.00000000 8974.37109375   900908.18750000 717531.18750000 
0.12600    24539652.00000000 15747474.00000000 39304428.00000000 8765.11425781   882383.18750000 702801.75000000 
0.12700    24200510.00000000 15538888.00000000 38771976.00000000 8560.54199219   864151.12500000 688299.25000000 
0.12800    23865902.00000000 15332786.00000000 38246628.00000000 8360.56738281   846212.12500000 674016.00000000 
0.12900    23535260.00000000 15129047.00000000 37727140.00000000 8165.08642578   828557.12500000 659950.75000000 
0.13000    23208554.00000000 14927498.00000000 37213756.00000000 7974.08154297   811179.81250000 646112.93750000 
0.13100    22885718.00000000 14728112.00000000 36706220.00000000 7787.38769531   794082.00000000 632485.06250000 
0.13200    22566402.00000000 14530917.00000000 36203928.00000000 7604.93164062   777253.50000000 619072.25000000 
0.13300    22250772.00000000 14335595.00000000 35707240.00000000 7426.75341797   760708.06250000 605871.50000000 
0.13400    21938820.00000000 14142401.00000000 35215620.00000000 7252.62402344   744431.56250000 592888.00000000 
0.13500    21629968.00000000 13950860.00000000 34729072.00000000 7082.50683594   728416.62500000 580106.37500000 
0.13600    21324576.00000000 13761298.00000000 34247788.00000000 6916.25292969   712676.06250000 567540.43750000 
0.13700    21022406.00000000 13573454.00000000 33771032.00000000 6753.93115234   697201.50000000 555175.18750000 
0.13800    20723306.00000000 13387331.00000000 33299070.00000000 6595.41601562   681978.68750000 543014.81250000 
0.13900    20427274.00000000 13202884.00000000 32831420.00000000 6440.52832031   667020.68750000 531063.06250000 
0.14000    20134242.00000000 13020235.00000000 32368572.00000000 6289.27294922   652315.31250000 519312.90625000 
0.14100    19844316.00000000 12839098.00000000 31910360.00000000 6141.58447266   637874.62500000 507762.78125000 
0.14200    19557350.00000000 12659618.00000000 31456176.00000000 5997.28173828   623682.18750000 496417.96875000 
0.14300    19273300.00000000 12481745.00000000 31006446.00000000 5856.43066406   609743.06250000 485267.34375000 
0.14400    18991880.00000000 12305382.00000000 30560836.00000000 5718.86181641   596050.87500000 474314.93750000 
0.14500    18713582.00000000 12130656.00000000 30119490.00000000 5584.52539062   582606.68750000 463558.00000000 
0.14600    18437724.00000000 11957455.00000000 29682556.00000000 5453.32568359   569412.93750000 452998.93750000 
0.14700    18165082.00000000 11785941.00000000 29249774.00000000 5325.29492188   556468.87500000 442637.40625000 
0.14800    17894950.00000000 11615765.00000000 28820994.00000000 5200.27343750   543755.43750000 432460.87500000 
0.14900    17627718.00000000 11447293.00000000 28396550.00000000 5078.19921875   531274.37500000 422476.12500000 
0.15000    17363176.00000000 11280306.00000000 27976022.00000000 4959.08300781   519042.65625000 412680.87500000 
0.15100    17101374.00000000 11114827.00000000 27559806.00000000 4842.77099609   507045.18750000 403077.43750000 
0.15200    16842566.00000000 10951094.00000000 27147986.00000000 4729.32226562   495279.25000000 393657.09375000 
0.15300    16586497.00000000 10788820.00000000 26740154.00000000 4618.57910156   483740.56250000 384424.65625000 
0.15400    16332929.00000000 10628020.00000000 26336104.00000000 4510.51464844   472430.71875000 375370.00000000 
0.15500    16082316.00000000 10468953.00000000 25936636.00000000 4405.10449219   461350.25000000 366499.34375000 
0.15600    15834323.00000000 10311285.00000000 25541308.00000000 4302.32666016   450488.34375000 357807.43750000 
0.15700    15589135.00000000 10155378.00000000 25150512.00000000 4202.07568359   439855.18750000 349294.53125000 
0.15800    15346680.00000000 10001117.00000000 24763404.00000000 4104.27490234   429432.62500000 340954.46875000 
0.15900    15107180.00000000 9848343.00000000 24380818.00000000 4008.99487305   419235.59375000 332790.56250000 
0.16000    14870219.00000000 9697246.00000000 24002674.00000000 3916.07543945   409245.78125000 324793.18750000 
0.16100    14636285.00000000 9547812.00000000 23628732.00000000 3825.55786133   399471.56250000 316974.15625000 
0.16200    14405012.00000000 9400089.00000000 23259042.00000000 3737.34326172   389902.65625000 309315.84375000 
0.16300    14176577.00000000 9253986.00000000 22893740.00000000 3651.42065430   380540.59375000 301824.40625000 
0.16400    13951024.00000000 9109621.00000000 22532816.00000000 3567.76391602   371382.25000000 294499.87500000 
0.16500    13728313.00000000 8966879.00000000 22176168.00000000 3486.24316406   362420.65625000 287329.84375000 
0.16600    13508374.00000000 8825824.00000000 21824084.00000000 3406.94750977   353663.09375000 280324.78125000 
0.16700    13291211.00000000 8686482.00000000 21476218.00000000 3329.73046875   345094.53125000 273469.59375000 
0.16800    13077068.00000000 8548902.00000000 21132802.00000000 3254.57080078   336714.81250000 266772.31250000 
0.16900    12865654.00000000 8412950.00000000 20793974.00000000 3181.50122070   328530.15625000 260224.10937500 
0.17000    12657032.00000000 8278753.00000000 20459294.00000000 3110.40283203   320525.25000000 253823.89062500 
