# SAXS profile: number of points = 501, q_min = 0, q_max = 0.5, delta_q = 0.001
#    q    intensity 
0.00000    162238448.00000000 101201760.00000000 256271664.00000000 106119.38281250 8298617.00000000 6554216.00000000 
0.00100    162202416.00000000 101178544.00000000 256214112.00000000 106092.09375000 8296599.00000000 6552651.00000000 
0.00200    162092432.00000000 101109688.00000000 256039280.00000000 106009.68750000 8290536.00000000 6547864.00000000 
0.00300    161909056.00000000 100995280.00000000 255748800.00000000 105873.60937500 8280453.50000000 6539904.00000000 
0.00400    161651088.00000000 100835064.00000000 255341936.00000000 105682.25000000 8266359.50000000 6528792.00000000 
0.00500    161320208.00000000 100628384.00000000 254818864.00000000 105438.03125000 8248301.00000000 6514523.00000000 
0.00600    160915744.00000000 100377136.00000000 254182384.00000000 105139.32812500 8226266.00000000 6497133.00000000 
0.00700    160439920.00000000 100081128.00000000 253432160.00000000 104787.63281250 8200305.50000000 6476644.00000000 
0.00800    159892832.00000000 99741288.00000000 252569648.00000000 104383.68750000 8170499.50000000 6453103.50000000 
0.00900    159274144.00000000 99357296.00000000 251595728.00000000 103927.37500000 8136781.50000000 6426533.50000000 
0.01000    158587168.00000000 98929920.00000000 250512896.00000000 103420.40625000 8099302.00000000 6396964.50000000 
0.01100    157832400.00000000 98460184.00000000 249320816.00000000 102862.53906250 8058080.50000000 6364427.00000000 
0.01200    157011168.00000000 97948416.00000000 248022768.00000000 102255.45312500 8013226.00000000 6329020.00000000 
0.01300    156122048.00000000 97395400.00000000 246620288.00000000 101599.87500000 7964733.50000000 6290788.50000000 
0.01400    155167712.00000000 96801992.00000000 245115808.00000000 100896.46093750 7912722.50000000 6249733.00000000 
0.01500    154149552.00000000 96168776.00000000 243510352.00000000 100146.53906250 7857286.50000000 6205976.50000000 
0.01600    153070128.00000000 95496416.00000000 241808064.00000000 99351.53125000  7798462.00000000 6159562.00000000 
0.01700    151929840.00000000 94787336.00000000 240008960.00000000 98512.65625000  7736341.50000000 6110546.50000000 
0.01800    150731184.00000000 94041760.00000000 238118480.00000000 97630.98437500  7671062.00000000 6059035.00000000 
0.01900    149474688.00000000 93260616.00000000 236136336.00000000 96707.53906250  7602673.00000000 6005058.50000000 
0.02000    148163376.00000000 92444472.00000000 234066880.00000000 95744.65625000  7531308.50000000 5948758.00000000 
0.02100    146798752.00000000 91594864.00000000 231913472.00000000 94742.78125000  7457031.00000000 5890157.00000000 
0.02200    145382096.00000000 90713872.00000000 229679200.00000000 93704.15625000  7379991.00000000 5829356.50000000 
0.02300    143914304.00000000 89801440.00000000 227365232.00000000 92630.14062500  7300300.50000000 5766488.50000000 
0.02400    142401104.00000000 88859728.00000000 224976848.00000000 91522.25000000  7218057.00000000 5701606.50000000 
0.02500    140841760.00000000 87889312.00000000 222517104.00000000 90381.74218750  7133359.50000000 5634774.00000000 
0.02600    139238032.00000000 86892808.00000000 219987328.00000000 89211.21093750  7046345.50000000 5566092.50000000 
0.02700    137594560.00000000 85869232.00000000 217394208.00000000 88012.14062500  6957153.50000000 5495733.50000000 
0.02800    135911264.00000000 84823016.00000000 214738592.00000000 86784.89062500  6865849.50000000 5423726.00000000 
0.02900    134190912.00000000 83752704.00000000 212026560.00000000 85533.27343750  6772672.50000000 5350185.50000000 
0.03000    132436560.00000000 82661424.00000000 209259424.00000000 84257.54687500  6677644.50000000 5275177.00000000 
0.03100    130649408.00000000 81550376.00000000 206441776.00000000 82960.21093750  6580899.00000000 5198900.00000000 
0.03200    128833528.00000000 80420760.00000000 203575952.00000000 81642.35156250  6482615.00000000 5121358.50000000 
0.03300    126989968.00000000 79273880.00000000 200667904.00000000 80306.71875000  6382949.00000000 5042705.00000000 
0.03400    125120504.00000000 78111488.00000000 197720144.00000000 78954.66406250  6281939.00000000 4963002.00000000 
0.03500    123228904.00000000 76935592.00000000 194736096.00000000 77588.10156250  6179774.50000000 4882408.00000000 
0.03600    121317160.00000000 75746632.00000000 191720912.00000000 76208.28906250  6076529.00000000 4800960.00000000 
0.03700    119386880.00000000 74546064.00000000 188677200.00000000 74817.60937500  5972437.50000000 4718854.00000000 
0.03800    117440464.00000000 73336112.00000000 185608464.00000000 73417.34375000  5867579.50000000 4636102.00000000 
0.03900    115482216.00000000 72117880.00000000 182517856.00000000 72010.11718750  5762009.00000000 4552841.50000000 
0.04000    113511656.00000000 70892984.00000000 179411472.00000000 70596.87500000  5655991.00000000 4469178.00000000 
0.04100    111532832.00000000 69662992.00000000 176291712.00000000 69179.19531250  5549543.00000000 4385199.50000000 
0.04200    109547800.00000000 68429120.00000000 173160592.00000000 67760.00781250  5442834.00000000 4301022.00000000 
0.04300    107558888.00000000 67193072.00000000 170023648.00000000 66339.55468750  5335970.50000000 4216748.00000000 
0.04400    105567976.00000000 65954732.00000000 166883616.00000000 64919.94140625  5229100.00000000 4132426.00000000 
0.04500    103576288.00000000 64717604.00000000 163744224.00000000 63503.23828125  5122302.50000000 4048183.00000000 
0.04600    101588384.00000000 63481592.00000000 160610512.00000000 62090.39453125  5015751.50000000 3964108.50000000 
0.04700    99605032.00000000 62248956.00000000 157482576.00000000 60683.05078125  4909439.00000000 3880299.50000000 
0.04800    97627984.00000000 61020144.00000000 154363936.00000000 59282.78515625  4803634.00000000 3796806.25000000 
0.04900    95659112.00000000 59796980.00000000 151260272.00000000 57891.00390625  4698352.00000000 3713762.50000000 
0.05000    93700688.00000000 58580004.00000000 148173456.00000000 56509.43750000  4593725.00000000 3631233.50000000 
0.05100    91755208.00000000 57371576.00000000 145107584.00000000 55138.76562500  4489791.00000000 3549288.00000000 
0.05200    89824480.00000000 56171728.00000000 142063088.00000000 53780.57421875  4386768.50000000 3468009.75000000 
0.05300    87909456.00000000 54981800.00000000 139043856.00000000 52436.01171875  4284649.50000000 3387457.25000000 
0.05400    86011984.00000000 53803068.00000000 136052720.00000000 51106.53125000  4183555.75000000 3307717.75000000 
0.05500    84134568.00000000 52637072.00000000 133092816.00000000 49792.94531250  4083569.75000000 3228864.75000000 
0.05600    82277520.00000000 51483720.00000000 130166184.00000000 48496.26953125  3984768.25000000 3150942.25000000 
0.05700    80443072.00000000 50344504.00000000 127275184.00000000 47217.48828125  3887255.25000000 3074042.75000000 
0.05800    78632624.00000000 49220240.00000000 124421776.00000000 45958.09375000  3791070.75000000 2998194.75000000 
0.05900    76847512.00000000 48111836.00000000 121608624.00000000 44718.26953125  3696292.00000000 2923464.00000000 
0.06000    75089144.00000000 47020100.00000000 118836840.00000000 43498.84375000  3602999.25000000 2849879.50000000 
0.06100    73357808.00000000 45946040.00000000 116109752.00000000 42300.98437500  3511244.50000000 2777513.00000000 
0.06200    71655824.00000000 44889744.00000000 113427832.00000000 41125.32812500  3421051.00000000 2706414.25000000 
0.06300    69984392.00000000 43852192.00000000 110793608.00000000 39972.17578125  3332527.00000000 2636609.25000000 
0.06400    68342928.00000000 42833784.00000000 108207656.00000000 38842.35937500  3245690.75000000 2568129.25000000 
0.06500    66733908.00000000 41835284.00000000 105672184.00000000 37736.22265625  3160592.50000000 2501023.00000000 
0.06600    65157160.00000000 40856932.00000000 103188696.00000000 36654.32421875  3077244.00000000 2435309.25000000 
0.06700    63613884.00000000 39899936.00000000 100757288.00000000 35597.01562500  2995712.25000000 2371030.25000000 
0.06800    62104168.00000000 38963740.00000000 98380368.00000000 34564.74218750  2916018.25000000 2308194.00000000 
0.06900    60629544.00000000 38049588.00000000 96057488.00000000 33557.37890625  2838158.50000000 2246825.00000000 
0.07000    59189904.00000000 37156752.00000000 93790168.00000000 32575.62500000  2762202.00000000 2186946.25000000 
0.07100    57785420.00000000 36286344.00000000 91578968.00000000 31619.11523438  2688116.00000000 2128551.50000000 
0.07200    56416932.00000000 35438040.00000000 89423672.00000000 30688.59375000  2615951.00000000 2071668.37500000 
0.07300    55084288.00000000 34612504.00000000 87325960.00000000 29783.61132812  2545703.00000000 2016287.75000000 
0.07400    53788300.00000000 33809552.00000000 85285608.00000000 28904.34375000  2477378.75000000 1962438.62500000 
0.07500    52528584.00000000 33029096.00000000 83302504.00000000 28050.48437500  2410978.50000000 1910103.87500000 
0.07600    51304836.00000000 32271590.00000000 81377016.00000000 27222.16406250  2346483.50000000 1859266.87500000 
0.07700    50118056.00000000 31536708.00000000 79508384.00000000 26419.28515625  2283897.50000000 1809950.12500000 
0.07800    48967372.00000000 30824394.00000000 77697688.00000000 25641.44726562  2223232.50000000 1762133.12500000 
0.07900    47852500.00000000 30134658.00000000 75943848.00000000 24888.48242188  2164431.75000000 1715797.12500000 
0.08000    46773984.00000000 29467356.00000000 74247296.00000000 24160.21093750  2107508.00000000 1670939.87500000 
0.08100    45730832.00000000 28822278.00000000 72606104.00000000 23456.30468750  2052440.12500000 1627553.12500000 
0.08200    44722940.00000000 28199040.00000000 71020976.00000000 22776.22851562  1999202.87500000 1585607.00000000 
0.08300    43750568.00000000 27597766.00000000 69491416.00000000 22119.78320312  1947755.12500000 1545082.75000000 
0.08400    42812072.00000000 27017952.00000000 68015976.00000000 21486.21679688  1898094.00000000 1505940.87500000 
0.08500    41907672.00000000 26459066.00000000 66594080.00000000 20875.51562500  1850181.00000000 1468198.50000000 
0.08600    41036848.00000000 25921252.00000000 65225204.00000000 20287.13085938  1803973.62500000 1431792.12500000 
0.08700    40198500.00000000 25403836.00000000 63907864.00000000 19720.37890625  1759431.75000000 1396709.37500000 
0.08800    39392420.00000000 24906424.00000000 62641436.00000000 19174.65429688  1716549.12500000 1362922.25000000 
0.08900    38617972.00000000 24428654.00000000 61424660.00000000 18649.57617188  1675256.00000000 1330397.37500000 
0.09000    37874188.00000000 23969972.00000000 60256460.00000000 18144.61132812  1635521.25000000 1299102.00000000 
0.09100    37160576.00000000 23529930.00000000 59135488.00000000 17659.12500000  1597301.50000000 1268996.12500000 
0.09200    36475952.00000000 23108350.00000000 58060504.00000000 17192.45507812  1560565.25000000 1240054.62500000 
0.09300    35820152.00000000 22704260.00000000 57031008.00000000 16744.29101562  1525249.00000000 1212241.12500000 
0.09400    35191644.00000000 22317444.00000000 56044612.00000000 16313.43164062  1491320.87500000 1185512.50000000 
0.09500    34589748.00000000 21947074.00000000 55100404.00000000 15899.78222656  1458728.75000000 1159840.00000000 
0.09600    34014212.00000000 21592754.00000000 54197544.00000000 15502.60351562  1427425.50000000 1135192.37500000 
0.09700    33463226.00000000 21254136.00000000 53333180.00000000 15121.23437500  1397367.75000000 1111522.75000000 
0.09800    32936590.00000000 20930350.00000000 52506944.00000000 14754.88183594  1368498.37500000 1088784.37500000 
0.09900    32432722.00000000 20621076.00000000 51717540.00000000 14403.17187500  1340784.87500000 1066958.50000000 
0.10000    31951204.00000000 20325352.00000000 50962988.00000000 14065.32910156  1314162.00000000 1045989.68750000 
0.10100    31490992.00000000 20043006.00000000 50241772.00000000 13740.71777344  1288583.50000000 1025843.43750000 
0.10200    31050908.00000000 19773058.00000000 49552320.00000000 13428.87304688  1264015.12500000 1006490.37500000 
0.10300    30630224.00000000 19515130.00000000 48893496.00000000 13129.01953125  1240402.75000000 987886.37500000 
0.10400    30228162.00000000 19268738.00000000 48263624.00000000 12840.66308594  1217693.37500000 969990.56250000 
0.10500    29843630.00000000 19033146.00000000 47661328.00000000 12563.13476562  1195847.87500000 952774.62500000 
0.10600    29475240.00000000 18807644.00000000 47085152.00000000 12295.93457031  1174802.50000000 936185.87500000 
0.10700    29122916.00000000 18591902.00000000 46533376.00000000 12038.47363281  1154523.50000000 920209.00000000 
0.10800    28784928.00000000 18385132.00000000 46004560.00000000 11790.20312500  1134982.62500000 904800.43750000 
0.10900    28460772.00000000 18186956.00000000 45497192.00000000 11550.59082031  1116101.12500000 889915.81250000 
0.11000    28149724.00000000 17996406.00000000 45010376.00000000 11319.12011719  1097875.62500000 875535.81250000 
0.11100    27850510.00000000 17813628.00000000 44542208.00000000 11095.26464844  1080226.12500000 861622.31250000 
0.11200    27562358.00000000 17637420.00000000 44091732.00000000 10878.49414062  1063137.00000000 848136.93750000 
0.11300    27284470.00000000 17467694.00000000 43657476.00000000 10668.51269531  1046560.37500000 835056.62500000 
0.11400    27016358.00000000 17303708.00000000 43237612.00000000 10464.82324219  1030471.00000000 822353.50000000 
0.11500    26756694.00000000 17145208.00000000 42831768.00000000 10266.93554688  1014814.12500000 809989.18750000 
0.11600    26505302.00000000 16991212.00000000 42438200.00000000 10074.39160156  999562.75000000 797944.62500000 
0.11700    26260990.00000000 16841798.00000000 42055948.00000000 9887.03613281   984690.37500000 786184.56250000 
0.11800    26022910.00000000 16696136.00000000 41683224.00000000 9704.18847656   970150.93750000 774691.12500000 
0.11900    25790728.00000000 16553998.00000000 41320176.00000000 9525.78417969   955928.43750000 763435.50000000 
0.12000    25563618.00000000 16414928.00000000 40964376.00000000 9351.27734375   941979.25000000 752398.00000000 
0.12100    25341152.00000000 16278431.00000000 40615944.00000000 9180.62402344   928290.56250000 741561.06250000 
0.12200    25122292.00000000 16144299.00000000 40272896.00000000 9013.32617188   914827.68750000 730899.75000000 
0.12300    24906920.00000000 16012006.00000000 39935076.00000000 8849.19628906   901570.43750000 720393.81250000 
0.12400    24694052.00000000 15881233.00000000 39601692.00000000 8687.95605469   888492.81250000 710022.75000000 
0.12500    24483620.00000000 15751701.00000000 39271244.00000000 8529.43066406   875574.37500000 699772.62500000 
0.12600    24274892.00000000 15623116.00000000 38943608.00000000 8373.52636719   862808.00000000 689643.68750000 
0.12700    24067378.00000000 15495131.00000000 38617456.00000000 8219.78125000   850161.43750000 679596.81250000 
0.12800    23860748.00000000 15367583.00000000 38292464.00000000 8068.26660156   837612.31250000 669634.43750000 
0.12900    23654530.00000000 15240105.00000000 37968180.00000000 7918.70654297   825166.68750000 659736.00000000 
0.13000    23448340.00000000 15112497.00000000 37643600.00000000 7771.05419922   812801.31250000 649905.81250000 
0.13100    23241920.00000000 14984530.00000000 37318600.00000000 7625.17626953   800499.87500000 640113.62500000 
0.13200    23035036.00000000 14856071.00000000 36992416.00000000 7480.89697266   788259.75000000 630368.93750000 
0.13300    22827276.00000000 14726921.00000000 36664584.00000000 7338.19433594   776066.06250000 620656.43750000 
0.13400    22618408.00000000 14596966.00000000 36335084.00000000 7197.02343750   763914.37500000 610972.37500000 
0.13500    22408384.00000000 14465970.00000000 36003168.00000000 7057.31933594   751804.25000000 601315.62500000 
0.13600    22196762.00000000 14333789.00000000 35668636.00000000 6918.94189453   739713.87500000 591671.43750000 
0.13700    21983496.00000000 14200553.00000000 35331376.00000000 6781.96044922   727651.43750000 582041.62500000 
0.13800    21768448.00000000 14065908.00000000 34991000.00000000 6646.32812500   715616.12500000 572432.18750000 
0.13900    21551496.00000000 13929957.00000000 34647352.00000000 6512.01513672   703597.87500000 562834.56250000 
0.14000    21332512.00000000 13792610.00000000 34300468.00000000 6379.08398438   691605.62500000 553246.31250000 
0.14100    21111582.00000000 13653759.00000000 33950108.00000000 6247.43798828   679633.37500000 543667.62500000 
0.14200    20888498.00000000 13513527.00000000 33596288.00000000 6117.18212891   667677.62500000 534106.12500000 
0.14300    20663488.00000000 13371684.00000000 33238616.00000000 5988.30224609   655749.62500000 524560.31250000 
0.14400    20435912.00000000 13228311.00000000 32877390.00000000 5860.79443359   643842.00000000 515024.43750000 
0.14500    20206698.00000000 13083502.00000000 32513054.00000000 5734.73339844   631968.68750000 505512.56250000 
0.14600    19975252.00000000 12937290.00000000 32144876.00000000 5610.15527344   620132.25000000 496021.71875000 
0.14700    19741850.00000000 12789632.00000000 31773568.00000000 5487.11132812   608325.68750000 486559.18750000 
0.14800    19506520.00000000 12640583.00000000 31398692.00000000 5365.59130859   596565.62500000 477124.84375000 
0.14900    19269456.00000000 12490226.00000000 31020990.00000000 5245.69726562   584849.06250000 467722.84375000 
0.15000    19030584.00000000 12338576.00000000 30640236.00000000 5127.43847656   573187.06250000 458360.25000000 
0.15100    18789962.00000000 12185830.00000000 30256718.00000000 5010.86328125   561589.31250000 449040.15625000 
0.15200    18548060.00000000 12031844.00000000 29870658.00000000 4896.09082031   550055.43750000 439772.53125000 
0.15300    18304740.00000000 11877028.00000000 29482226.00000000 4783.06103516   538589.62500000 430560.46875000 
0.15400    18060050.00000000 11721161.00000000 29091500.00000000 4671.90234375   527204.87500000 421400.81250000 
0.15500    17814578.00000000 11564534.00000000 28699052.00000000 4562.60937500   515905.43750000 412309.65625000 
0.15600    17568056.00000000 11407085.00000000 28305048.00000000 4455.28613281   504696.59375000 403288.50000000 
0.15700    17320716.00000000 11249192.00000000 27909654.00000000 4349.90966797   493589.53125000 394347.18750000 
0.15800    17072888.00000000 11090689.00000000 27513278.00000000 4246.54687500   482586.06250000 385482.18750000 
0.15900    16824794.00000000 10931786.00000000 27115882.00000000 4145.24609375   471698.25000000 376706.09375000 
0.16000    16576273.00000000 10772578.00000000 26718194.00000000 4046.03637695   460922.15625000 368021.87500000 
0.16100    16327843.00000000 10613328.00000000 26320178.00000000 3948.97827148   450278.87500000 359435.37500000 
0.16200    16079626.00000000 10454009.00000000 25922190.00000000 3854.04370117   439764.34375000 350949.37500000 
0.16300    15831676.00000000 10294750.00000000 25524556.00000000 3761.27001953   429381.28125000 342571.87500000 
0.16400    15584249.00000000 10135772.00000000 25127664.00000000 3670.70458984   419147.09375000 334306.68750000 
0.16500    15337466.00000000 9976915.00000000 24731722.00000000 3582.30908203   409059.53125000 326158.03125000 
0.16600    15091701.00000000 9818634.00000000 24336990.00000000 3496.12988281   399126.00000000 318130.34375000 
0.16700    14846834.00000000 9660758.00000000 23943650.00000000 3412.15307617   389347.21875000 310225.40625000 
0.16800    14603094.00000000 9503685.00000000 23552228.00000000 3330.38452148   379731.56250000 302445.81250000 
0.16900    14360943.00000000 9347352.00000000 23162934.00000000 3250.84399414   370282.84375000 294802.81250000 
0.17000    14120206.00000000 9191798.00000000 22775714.00000000 3173.48510742   361001.65625000 287288.09375000 
