# SAXS profile: number of points = 501, q_min = 0, q_max = 0.5, delta_q = 0.001
#    q    intensity 
0.00000    162230592.00000000 101202512.00000000 256270304.00000000 102794.05468750 8167559.00000000 6450673.00000000 
0.00100    162198368.00000000 101178848.00000000 256212176.00000000 102761.54687500 8165328.50000000 6448982.50000000 
0.00200    162094192.00000000 101111144.00000000 256040144.00000000 102665.97656250 8158608.50000000 6443718.50000000 
0.00300    161915712.00000000 100998272.00000000 255751600.00000000 102506.25000000 8147469.00000000 6434973.00000000 
0.00400    161654400.00000000 100839696.00000000 255347440.00000000 102283.37500000 8131900.50000000 6422717.50000000 
0.00500    161321200.00000000 100636528.00000000 254828960.00000000 101997.63281250 8111903.50000000 6407041.00000000 
0.00600    160917776.00000000 100388168.00000000 254198352.00000000 101650.40625000 8087589.00000000 6387948.50000000 
0.00700    160439152.00000000 100098056.00000000 253454640.00000000 101241.46093750 8058973.00000000 6365490.50000000 
0.00800    159890464.00000000 99763880.00000000 252599632.00000000 100771.67187500 8026054.50000000 6339679.50000000 
0.00900    159274976.00000000 99387096.00000000 251635344.00000000 100242.88281250 7989025.00000000 6310593.50000000 
0.01000    158592416.00000000 98967496.00000000 250562448.00000000 99655.71093750  7947857.00000000 6278273.00000000 
0.01100    157841664.00000000 98506056.00000000 249382800.00000000 99011.65625000  7902638.00000000 6242747.50000000 
0.01200    157020880.00000000 98003712.00000000 248100256.00000000 98311.47656250  7853523.50000000 6204189.00000000 
0.01300    156137040.00000000 97460984.00000000 246716624.00000000 97558.57031250  7800547.50000000 6162613.50000000 
0.01400    155189056.00000000 96879848.00000000 245231232.00000000 96752.98437500  7743866.00000000 6118053.00000000 
0.01500    154180416.00000000 96259576.00000000 243650656.00000000 95896.15625000  7683534.50000000 6070695.00000000 
0.01600    153110672.00000000 95603776.00000000 241974192.00000000 94990.65625000  7619678.00000000 6020530.00000000 
0.01700    151980544.00000000 94910688.00000000 240204928.00000000 94039.14062500  7552458.50000000 5967745.50000000 
0.01800    150795680.00000000 94183440.00000000 238346896.00000000 93043.08593750  7481952.50000000 5912382.00000000 
0.01900    149554368.00000000 93421976.00000000 236403728.00000000 92003.29687500  7408360.50000000 5854576.50000000 
0.02000    148260880.00000000 92628016.00000000 234375792.00000000 90923.02343750  7331796.00000000 5794367.50000000 
0.02100    146917616.00000000 91802136.00000000 232268640.00000000 89804.47656250  7252325.50000000 5731963.50000000 
0.02200    145524768.00000000 90946832.00000000 230084784.00000000 88650.82812500  7170184.50000000 5667434.50000000 
0.02300    144086016.00000000 90061440.00000000 227828464.00000000 87462.86718750  7085544.50000000 5600890.50000000 
0.02400    142602064.00000000 89149608.00000000 225502512.00000000 86242.77343750  6998438.00000000 5532435.50000000 
0.02500    141076704.00000000 88210896.00000000 223108944.00000000 84993.87500000  6909104.00000000 5462229.50000000 
0.02600    139510496.00000000 87247632.00000000 220653248.00000000 83719.28125000  6817723.50000000 5390371.00000000 
0.02700    137907872.00000000 86260624.00000000 218138192.00000000 82419.25781250  6724350.50000000 5316942.50000000 
0.02800    136270368.00000000 85253224.00000000 215567168.00000000 81097.75000000  6629197.00000000 5242173.00000000 
0.02900    134600800.00000000 84223864.00000000 212945584.00000000 79756.78125000  6532481.50000000 5166072.50000000 
0.03000    132900328.00000000 83176048.00000000 210274544.00000000 78398.56250000  6434263.50000000 5088838.50000000 
0.03100    131171184.00000000 82110032.00000000 207561504.00000000 77025.69531250  6334752.00000000 5010548.00000000 
0.03200    129416904.00000000 81028920.00000000 204806272.00000000 75640.42187500  6234106.00000000 4931347.00000000 
0.03300    127639720.00000000 79933104.00000000 202015104.00000000 74245.67187500  6132466.00000000 4851397.50000000 
0.03400    125842472.00000000 78824072.00000000 199191568.00000000 72842.68750000  6030071.50000000 4770771.00000000 
0.03500    124026080.00000000 77702856.00000000 196337056.00000000 71434.26562500  5926829.00000000 4689566.00000000 
0.03600    122193752.00000000 76571856.00000000 193456688.00000000 70022.81250000  5823163.00000000 4607888.50000000 
0.03700    120347832.00000000 75430792.00000000 190553056.00000000 68609.17187500  5719073.00000000 4525964.00000000 
0.03800    118490960.00000000 74282760.00000000 187632496.00000000 67196.87500000  5614717.00000000 4443778.00000000 
0.03900    116624776.00000000 73128280.00000000 184698192.00000000 65787.37500000  5510278.00000000 4361511.00000000 
0.04000    114751584.00000000 71969488.00000000 181751088.00000000 64382.28125000  5405856.00000000 4279226.00000000 
0.04100    112874144.00000000 70807448.00000000 178795248.00000000 62984.18750000  5301561.00000000 4197045.50000000 
0.04200    110993096.00000000 69642320.00000000 175835584.00000000 61594.23828125  5197624.50000000 4115097.00000000 
0.04300    109112880.00000000 68476728.00000000 172872928.00000000 60213.93750000  5094026.00000000 4033464.50000000 
0.04400    107232592.00000000 67311624.00000000 169913232.00000000 58845.37109375  4990996.50000000 3952224.75000000 
0.04500    105356952.00000000 66147692.00000000 166959872.00000000 57489.92187500  4888601.50000000 3871439.25000000 
0.04600    103486136.00000000 64986840.00000000 164012224.00000000 56149.32421875  4786929.50000000 3791259.50000000 
0.04700    101622584.00000000 63829768.00000000 161074592.00000000 54823.83984375  4686059.50000000 3711700.75000000 
0.04800    99768160.00000000 62677912.00000000 158150992.00000000 53515.52734375  4586122.00000000 3632864.50000000 
0.04900    97923984.00000000 61531672.00000000 155243920.00000000 52226.19140625  4487257.50000000 3554843.00000000 
0.05000    96091952.00000000 60392996.00000000 152355632.00000000 50955.49218750  4389503.00000000 3477664.75000000 
0.05100    94274728.00000000 59262200.00000000 149486864.00000000 49705.08984375  4292921.50000000 3401417.75000000 
0.05200    92471632.00000000 58140032.00000000 146642480.00000000 48475.73046875  4197580.00000000 3326136.25000000 
0.05300    90685752.00000000 57027652.00000000 143824752.00000000 47267.98046875  4103590.25000000 3251895.00000000 
0.05400    88917888.00000000 55926364.00000000 141033296.00000000 46083.22265625  4010989.50000000 3178744.50000000 
0.05500    87168160.00000000 54835812.00000000 138270624.00000000 44921.39453125  3919862.25000000 3106719.50000000 
0.05600    85439784.00000000 53758216.00000000 135541424.00000000 43782.78515625  3830176.25000000 3035880.75000000 
0.05700    83733080.00000000 52692948.00000000 132844808.00000000 42668.21484375  3742055.00000000 2966236.25000000 
0.05800    82047672.00000000 51641608.00000000 130182800.00000000 41577.97656250  3655527.50000000 2897804.00000000 
0.05900    80386808.00000000 50604396.00000000 127556920.00000000 40512.21875000  3570595.50000000 2830645.00000000 
0.06000    78749920.00000000 49581688.00000000 124969232.00000000 39471.63671875  3487305.50000000 2764778.00000000 
0.06100    77137752.00000000 48574072.00000000 122420712.00000000 38455.71484375  3405669.00000000 2700202.50000000 
0.06200    75551848.00000000 47582196.00000000 119912176.00000000 37464.57812500  3325740.00000000 2636957.50000000 
0.06300    73992192.00000000 46606184.00000000 117444696.00000000 36498.10156250  3247492.50000000 2575042.25000000 
0.06400    72460248.00000000 45647376.00000000 115019296.00000000 35556.36328125  3170966.25000000 2514476.50000000 
0.06500    70954392.00000000 44704516.00000000 112637568.00000000 34639.02343750  3096126.75000000 2455237.50000000 
0.06600    69476872.00000000 43779228.00000000 110298952.00000000 33746.32812500  3023020.25000000 2397349.25000000 
0.06700    68028080.00000000 42870988.00000000 108004280.00000000 32877.61718750  2951600.75000000 2340804.50000000 
0.06800    66607848.00000000 41980272.00000000 105755240.00000000 32032.85156250  2881893.00000000 2285611.25000000 
0.06900    65215100.00000000 41107500.00000000 103550248.00000000 31211.01562500  2813894.50000000 2231732.50000000 
0.07000    63852388.00000000 40252944.00000000 101391888.00000000 30412.63867188  2747530.75000000 2179183.25000000 
0.07100    62518348.00000000 39416384.00000000 99278488.00000000 29636.43945312  2682865.50000000 2127938.50000000 
0.07200    61213716.00000000 38596948.00000000 97210880.00000000 28882.75585938  2619836.50000000 2078008.37500000 
0.07300    59937784.00000000 37796392.00000000 95189504.00000000 28150.49414062  2558443.75000000 2029353.62500000 
0.07400    58691392.00000000 37013912.00000000 93213704.00000000 27439.56054688  2498630.75000000 1981952.87500000 
0.07500    57473760.00000000 36249528.00000000 91284736.00000000 26748.98828125  2440401.75000000 1935808.50000000 
0.07600    56284684.00000000 35502484.00000000 89399984.00000000 26078.67187500  2383715.75000000 1890862.37500000 
0.07700    55124672.00000000 34773980.00000000 87561176.00000000 25427.71289062  2328538.25000000 1847139.50000000 
0.07800    53993100.00000000 34062880.00000000 85767296.00000000 24795.83789062  2274841.50000000 1804578.25000000 
0.07900    52889212.00000000 33370382.00000000 84018200.00000000 24182.17968750  2222601.00000000 1763158.62500000 
0.08000    51813972.00000000 32694942.00000000 82312784.00000000 23586.29882812  2171787.75000000 1722878.00000000 
0.08100    50765624.00000000 32036462.00000000 80651112.00000000 23007.84375000  2122345.50000000 1683686.87500000 
0.08200    49744788.00000000 31395252.00000000 79033328.00000000 22445.95312500  2074247.62500000 1645562.00000000 
0.08300    48750452.00000000 30770982.00000000 77457184.00000000 21900.05664062  2027471.87500000 1608482.37500000 
0.08400    47782748.00000000 30163440.00000000 75924128.00000000 21369.91601562  1981987.00000000 1572411.75000000 
0.08500    46841484.00000000 29572322.00000000 74431288.00000000 20854.81054688  1937736.25000000 1537336.12500000 
0.08600    45924952.00000000 28997422.00000000 72979240.00000000 20353.99804688  1894684.75000000 1503217.12500000 
0.08700    45033880.00000000 28438324.00000000 71567880.00000000 19867.29882812  1852815.87500000 1470035.62500000 
0.08800    44167332.00000000 27894672.00000000 70195792.00000000 19394.03320312  1812083.62500000 1437752.12500000 
0.08900    43325144.00000000 27366702.00000000 68861256.00000000 18933.68554688  1772459.87500000 1406342.12500000 
0.09000    42506056.00000000 26853430.00000000 67564944.00000000 18485.74218750  1733902.75000000 1375781.62500000 
0.09100    41710248.00000000 26354774.00000000 66304948.00000000 18050.09765625  1696381.87500000 1346052.12500000 
0.09200    40936916.00000000 25870470.00000000 65081616.00000000 17625.99218750  1659855.00000000 1317123.87500000 
0.09300    40185668.00000000 25400518.00000000 63892588.00000000 17213.16601562  1624321.37500000 1288949.00000000 
0.09400    39455652.00000000 24943858.00000000 62737844.00000000 16810.97460938  1589695.87500000 1261540.25000000 
0.09500    38746816.00000000 24500626.00000000 61616280.00000000 16419.28125000  1555999.62500000 1234846.12500000 
0.09600    38058460.00000000 24070450.00000000 60528080.00000000 16037.66406250  1523184.37500000 1208840.87500000 
0.09700    37389404.00000000 23652742.00000000 59470780.00000000 15665.88574219  1491210.75000000 1183521.62500000 
0.09800    36740212.00000000 23247610.00000000 58444376.00000000 15303.44824219  1460056.62500000 1158858.62500000 
0.09900    36109400.00000000 22854296.00000000 57448216.00000000 14950.29394531  1429718.87500000 1134826.87500000 
0.10000    35496664.00000000 22472590.00000000 56480700.00000000 14605.91796875  1400135.25000000 1111402.62500000 
0.10100    34901372.00000000 22101880.00000000 55541068.00000000 14270.03125000  1371281.00000000 1088575.62500000 
0.10200    34323516.00000000 21742326.00000000 54628984.00000000 13942.69140625  1343162.62500000 1066315.50000000 
0.10300    33761776.00000000 21393344.00000000 53743348.00000000 13623.32128906  1315743.62500000 1044601.37500000 
0.10400    33216396.00000000 21054344.00000000 52883176.00000000 13311.80566406  1289000.37500000 1023443.00000000 
0.10500    32686066.00000000 20725422.00000000 52047836.00000000 13008.14257812  1262915.75000000 1002792.25000000 
0.10600    32170844.00000000 20405720.00000000 51236212.00000000 12711.68945312  1237463.37500000 982648.75000000 
0.10700    31670230.00000000 20095522.00000000 50447572.00000000 12422.77539062  1212623.12500000 962981.43750000 
0.10800    31183364.00000000 19794028.00000000 49680992.00000000 12140.85937500  1188373.12500000 943798.93750000 
0.10900    30709998.00000000 19501090.00000000 48936120.00000000 11866.00585938  1164704.37500000 925062.43750000 
0.11000    30249522.00000000 19216344.00000000 48211712.00000000 11598.03515625  1141610.62500000 906786.00000000 
0.11100    29801538.00000000 18939474.00000000 47506924.00000000 11336.64160156  1119042.50000000 888931.25000000 
0.11200    29365336.00000000 18670256.00000000 46821772.00000000 11081.74804688  1097027.00000000 871490.75000000 
0.11300    28940772.00000000 18408438.00000000 46154392.00000000 10833.35058594  1075510.87500000 854460.75000000 
0.11400    28527108.00000000 18153362.00000000 45504892.00000000 10591.29101562  1054487.25000000 837830.56250000 
0.11500    28124206.00000000 17905148.00000000 44872028.00000000 10355.21191406  1033958.18750000 821578.50000000 
0.11600    27731440.00000000 17663364.00000000 44254688.00000000 10125.20312500  1013905.75000000 805690.68750000 
0.11700    27348676.00000000 17427668.00000000 43654212.00000000 9901.04785156   994308.37500000 790174.87500000 
0.11800    26974854.00000000 17197576.00000000 43067452.00000000 9682.71679688   975150.56250000 775004.81250000 
0.11900    26610006.00000000 16973140.00000000 42494624.00000000 9470.08203125   956431.12500000 760174.06250000 
0.12000    26253658.00000000 16754256.00000000 41935880.00000000 9262.85937500   938140.62500000 745681.06250000 
0.12100    25905546.00000000 16540264.00000000 41389808.00000000 9061.11621094   920244.12500000 731508.31250000 
0.12200    25565050.00000000 16331047.00000000 40855696.00000000 8864.68750000   902753.87500000 717644.62500000 
0.12300    25232166.00000000 16126394.00000000 40332876.00000000 8673.37500000   885656.37500000 704086.43750000 
0.12400    24905940.00000000 15926063.00000000 39821820.00000000 8487.03027344   868921.37500000 690828.37500000 
0.12500    24586574.00000000 15729795.00000000 39320508.00000000 8305.63964844   852552.56250000 677852.50000000 
0.12600    24273582.00000000 15537483.00000000 38829696.00000000 8129.05419922   836549.18750000 665157.62500000 
0.12700    23966482.00000000 15348691.00000000 38347956.00000000 7957.05517578   820880.62500000 652727.06250000 
0.12800    23665334.00000000 15163420.00000000 37874756.00000000 7789.56591797   805549.75000000 640558.00000000 
0.12900    23369306.00000000 14981293.00000000 37410412.00000000 7626.44824219   790531.75000000 628644.56250000 
0.13000    23078278.00000000 14802199.00000000 36953664.00000000 7467.53271484   775837.25000000 616971.25000000 
0.13100    22792180.00000000 14625995.00000000 36503904.00000000 7312.74511719   761436.62500000 605534.25000000 
0.13200    22510390.00000000 14452358.00000000 36061624.00000000 7161.77246094   747331.75000000 594334.06250000 
0.13300    22232906.00000000 14281288.00000000 35625936.00000000 7014.80615234   733507.87500000 583356.25000000 
0.13400    21959654.00000000 14112546.00000000 35196124.00000000 6871.29492188   719955.81250000 572585.18750000 
0.13500    21689728.00000000 13945988.00000000 34771892.00000000 6731.40332031   706664.50000000 562023.81250000 
0.13600    21423296.00000000 13781361.00000000 34353036.00000000 6594.87158203   693625.31250000 551658.43750000 
0.13700    21160398.00000000 13618721.00000000 33938928.00000000 6461.52343750   680831.87500000 541480.68750000 
0.13800    20900514.00000000 13457602.00000000 33529570.00000000 6331.25488281   668269.43750000 531494.75000000 
0.13900    20643324.00000000 13298131.00000000 33124260.00000000 6204.00097656   655928.37500000 521679.68750000 
0.14000    20388960.00000000 13140177.00000000 32723020.00000000 6079.50585938   643810.56250000 512039.78125000 
0.14100    20136526.00000000 12983570.00000000 32325406.00000000 5957.64404297   631898.62500000 502561.53125000 
0.14200    19886788.00000000 12828154.00000000 31931180.00000000 5838.39062500   620184.12500000 493236.03125000 
0.14300    19639072.00000000 12673884.00000000 31540044.00000000 5721.54101562   608659.68750000 484062.59375000 
0.14400    19393390.00000000 12520601.00000000 31151732.00000000 5606.93554688   597316.93750000 475032.93750000 
0.14500    19149268.00000000 12368334.00000000 30766138.00000000 5494.52587891   586152.62500000 466139.00000000 
0.14600    18907158.00000000 12216842.00000000 30382794.00000000 5384.17382812   575152.06250000 457380.40625000 
0.14700    18666440.00000000 12066234.00000000 30001960.00000000 5275.72802734   564311.75000000 448749.93750000 
0.14800    18426898.00000000 11916254.00000000 29622944.00000000 5169.16259766   553618.62500000 440235.12500000 
0.14900    18189068.00000000 11766962.00000000 29245828.00000000 5064.33056641   543078.37500000 431837.84375000 
0.15000    17952252.00000000 11618188.00000000 28870460.00000000 4961.10644531   532682.06250000 423554.56250000 
0.15100    17716682.00000000 11470008.00000000 28496706.00000000 4859.52880859   522414.93750000 415373.68750000 
0.15200    17482218.00000000 11322387.00000000 28124528.00000000 4759.39404297   512277.43750000 407298.78125000 
0.15300    17248644.00000000 11175142.00000000 27753712.00000000 4660.62695312   502262.71875000 399321.68750000 
0.15400    17016230.00000000 11028404.00000000 27384158.00000000 4563.26074219   492366.62500000 391435.71875000 
0.15500    16784582.00000000 10882051.00000000 27015786.00000000 4467.16601562   482588.81250000 383646.68750000 
0.15600    16553830.00000000 10736141.00000000 26648856.00000000 4372.30908203   472917.34375000 375942.65625000 
0.15700    16324072.00000000 10590561.00000000 26282944.00000000 4278.68798828   463356.59375000 368324.00000000 
0.15800    16094863.00000000 10445416.00000000 25918130.00000000 4186.21142578   453897.31250000 360788.15625000 
0.15900    15866677.00000000 10300580.00000000 25554546.00000000 4094.88305664   444540.15625000 353332.06250000 
0.16000    15639186.00000000 10156087.00000000 25191910.00000000 4004.61962891   435282.71875000 345957.00000000 
0.16100    15412573.00000000 10012087.00000000 24830692.00000000 3915.50952148   426125.46875000 338657.15625000 
0.16200    15186883.00000000 9868434.00000000 24470412.00000000 3827.45556641   417061.78125000 331435.78125000 
0.16300    14961914.00000000 9725146.00000000 24111490.00000000 3740.46118164   408090.53125000 324290.09375000 
0.16400    14737837.00000000 9582358.00000000 23753774.00000000 3654.59326172   399212.37500000 317212.90625000 
0.16500    14514734.00000000 9440012.00000000 23397348.00000000 3569.80761719   390429.90625000 310213.81250000 
0.16600    14292557.00000000 9298172.00000000 23042284.00000000 3486.06640625   381739.18750000 303288.96875000 
0.16700    14071284.00000000 9156791.00000000 22688658.00000000 3403.46362305   373138.56250000 296435.78125000 
0.16800    13851134.00000000 9015991.00000000 22336580.00000000 3322.00634766   364630.71875000 289655.62500000 
0.16900    13632003.00000000 8875877.00000000 21986070.00000000 3241.71313477   356223.59375000 282949.68750000 
0.17000    13414144.00000000 8736207.00000000 21637482.00000000 3162.58837891   347905.25000000 276319.25000000 
