# SAXS profile: number of points = 501, q_min = 0, q_max = 0.5, delta_q = 0.001
#    q    intensity 
0.00000    162235648.00000000 101202272.00000000 256271248.00000000 92901.54687500  7764611.50000000 6132467.00000000 
0.00100    162200880.00000000 101179232.00000000 256214880.00000000 92875.33593750  7762624.00000000 6130909.00000000 
0.00200    162095120.00000000 101111320.00000000 256042912.00000000 92797.82812500  7756664.50000000 6126240.00000000 
0.00300    161915776.00000000 100997680.00000000 255754112.00000000 92668.76562500  7746805.50000000 6118473.00000000 
0.00400    161659664.00000000 100839960.00000000 255351824.00000000 92487.57812500  7733035.00000000 6107570.00000000 
0.00500    161330592.00000000 100637080.00000000 254838160.00000000 92255.77343750  7715345.00000000 6093669.00000000 
0.00600    160930240.00000000 100388272.00000000 254207120.00000000 91973.42968750  7693789.00000000 6076671.50000000 
0.00700    160460672.00000000 100097336.00000000 253468064.00000000 91640.60937500  7668414.00000000 6056688.00000000 
0.00800    159915200.00000000 99761912.00000000 252618464.00000000 91258.85156250  7639233.00000000 6033698.00000000 
0.00900    159305152.00000000 99385232.00000000 251657584.00000000 90828.28125000  7606337.50000000 6007795.50000000 
0.01000    158628448.00000000 98965984.00000000 250590016.00000000 90350.50781250  7569794.00000000 5978974.50000000 
0.01100    157885168.00000000 98504040.00000000 249417360.00000000 89825.75000000  7529666.50000000 5947335.00000000 
0.01200    157076144.00000000 98000576.00000000 248137632.00000000 89254.50781250  7485977.50000000 5912926.50000000 
0.01300    156196864.00000000 97457944.00000000 246759248.00000000 88639.75781250  7438835.00000000 5875778.00000000 
0.01400    155259088.00000000 96874816.00000000 245280416.00000000 87980.19531250  7388356.00000000 5835997.00000000 
0.01500    154256960.00000000 96254192.00000000 243704624.00000000 87279.03125000  7334576.00000000 5793631.00000000 
0.01600    153195776.00000000 95596912.00000000 242032976.00000000 86536.57031250  7277583.00000000 5748682.50000000 
0.01700    152076560.00000000 94902704.00000000 240270272.00000000 85754.88281250  7217541.50000000 5701403.50000000 
0.01800    150899424.00000000 94173272.00000000 238418224.00000000 84934.82812500  7154550.00000000 5651767.00000000 
0.01900    149669568.00000000 93409936.00000000 236479184.00000000 84078.74218750  7088632.50000000 5599826.50000000 
0.02000    148385328.00000000 92613368.00000000 234456496.00000000 83187.64843750  7020068.50000000 5545680.00000000 
0.02100    147049616.00000000 91786424.00000000 232354192.00000000 82263.38281250  6948748.50000000 5489541.50000000 
0.02200    145667184.00000000 90928632.00000000 230175760.00000000 81306.71875000  6874942.00000000 5431365.50000000 
0.02300    144236912.00000000 90040688.00000000 227922336.00000000 80320.71093750  6798746.50000000 5371318.00000000 
0.02400    142760640.00000000 89125936.00000000 225597680.00000000 79306.18750000  6720334.50000000 5309458.50000000 
0.02500    141244288.00000000 88185000.00000000 223208352.00000000 78265.69531250  6639713.50000000 5245911.50000000 
0.02600    139686816.00000000 87218112.00000000 220755344.00000000 77200.55468750  6557115.00000000 5180778.00000000 
0.02700    138091568.00000000 86228216.00000000 218243104.00000000 76112.55468750  6472643.50000000 5114194.50000000 
0.02800    136461696.00000000 85215888.00000000 215672496.00000000 75003.12500000  6386376.00000000 5046184.00000000 
0.02900    134797984.00000000 84183696.00000000 213050896.00000000 73875.66406250  6298565.50000000 4976941.50000000 
0.03000    133104656.00000000 83132248.00000000 210381552.00000000 72730.70312500  6209243.50000000 4906495.00000000 
0.03100    131381816.00000000 82062616.00000000 207666752.00000000 71569.72656250  6118608.50000000 4835052.50000000 
0.03200    129633520.00000000 80976152.00000000 204912160.00000000 70395.88281250  6026780.50000000 4762598.50000000 
0.03300    127861968.00000000 79875752.00000000 202118224.00000000 69209.97656250  5933877.00000000 4689304.50000000 
0.03400    126068672.00000000 78761848.00000000 199291616.00000000 68014.16406250  5840003.50000000 4615305.00000000 
0.03500    124256416.00000000 77636352.00000000 196437152.00000000 66810.56250000  5745400.50000000 4540671.00000000 
0.03600    122429232.00000000 76500640.00000000 193554720.00000000 65600.41406250  5650094.00000000 4465504.50000000 
0.03700    120586784.00000000 75356864.00000000 190652000.00000000 64386.35937500  5554260.00000000 4389949.00000000 
0.03800    118733656.00000000 74204576.00000000 187728352.00000000 63168.66015625  5458043.00000000 4314033.50000000 
0.03900    116870416.00000000 73046024.00000000 184788992.00000000 61950.10937500  5361539.50000000 4237871.50000000 
0.04000    115000136.00000000 71883016.00000000 181840528.00000000 60731.73046875  5264882.50000000 4161604.00000000 
0.04100    113125456.00000000 70716736.00000000 178882400.00000000 59515.46484375  5168186.50000000 4085287.50000000 
0.04200    111247624.00000000 69549224.00000000 175920704.00000000 58303.06640625  5071545.50000000 4009061.00000000 
0.04300    109369336.00000000 68380024.00000000 172958192.00000000 57095.40625000  4975139.50000000 3932966.25000000 
0.04400    107492384.00000000 67213016.00000000 169997984.00000000 55894.29687500  4879024.50000000 3857115.00000000 
0.04500    105619560.00000000 66047328.00000000 167041488.00000000 54700.49218750  4783356.00000000 3781600.50000000 
0.04600    103752384.00000000 64884816.00000000 164096288.00000000 53516.21875000  4688193.00000000 3706494.00000000 
0.04700    101892472.00000000 63727052.00000000 161161296.00000000 52342.16796875  4593623.50000000 3631879.75000000 
0.04800    100041512.00000000 62574588.00000000 158238592.00000000 51179.74609375  4499800.00000000 3557813.50000000 
0.04900    98202488.00000000 61429716.00000000 155336160.00000000 50030.00390625  4406808.00000000 3484381.00000000 
0.05000    96375448.00000000 60291492.00000000 152452880.00000000 48893.91406250  4314703.50000000 3411664.00000000 
0.05100    94563408.00000000 59162892.00000000 149591664.00000000 47772.53906250  4223550.00000000 3339696.75000000 
0.05200    92767216.00000000 58044080.00000000 146757568.00000000 46666.85156250  4133447.50000000 3268578.50000000 
0.05300    90988728.00000000 56935920.00000000 143949440.00000000 45577.44531250  4044506.00000000 3198347.50000000 
0.05400    89228840.00000000 55839200.00000000 141171072.00000000 44504.86718750  3956740.25000000 3129023.75000000 
0.05500    87489760.00000000 54755012.00000000 138425184.00000000 43450.51953125  3870224.75000000 3060704.50000000 
0.05600    85772208.00000000 53684508.00000000 135712784.00000000 42414.75390625  3785016.50000000 2993424.50000000 
0.05700    84077368.00000000 52627492.00000000 133037496.00000000 41397.96093750  3701206.50000000 2927230.75000000 
0.05800    82405712.00000000 51585688.00000000 130397424.00000000 40401.04296875  3618791.25000000 2862127.50000000 
0.05900    80759280.00000000 50559032.00000000 127798000.00000000 39424.01562500  3537830.50000000 2798189.75000000 
0.06000    79138856.00000000 49548680.00000000 125237912.00000000 38467.21875000  3458382.50000000 2735443.25000000 
0.06100    77545112.00000000 48554392.00000000 122720512.00000000 37531.45312500  3380458.00000000 2673892.25000000 
0.06200    75979008.00000000 47577328.00000000 120245216.00000000 36616.09375000  3304074.00000000 2613579.50000000 
0.06300    74439776.00000000 46617884.00000000 117816168.00000000 35722.19140625  3229325.00000000 2554533.00000000 
0.06400    72930160.00000000 45675852.00000000 115430896.00000000 34849.23437500  3156126.25000000 2496713.25000000 
0.06500    71450416.00000000 44752024.00000000 113091808.00000000 33997.75781250  3084562.25000000 2440189.50000000 
0.06600    69998816.00000000 43847152.00000000 110799464.00000000 33167.30859375  3014630.25000000 2384949.25000000 
0.06700    68578264.00000000 42960352.00000000 108555152.00000000 32358.10546875  2946339.00000000 2330999.50000000 
0.06800    67187544.00000000 42092860.00000000 106358440.00000000 31570.07421875  2879678.00000000 2278360.50000000 
0.06900    65828056.00000000 41244064.00000000 104210048.00000000 30802.94335938  2814655.50000000 2226999.75000000 
0.07000    64498588.00000000 40414784.00000000 102110184.00000000 30056.54101562  2751263.50000000 2176932.25000000 
0.07100    63200264.00000000 39604432.00000000 100058312.00000000 29330.55468750  2689507.25000000 2128147.00000000 
0.07200    61932376.00000000 38813764.00000000 98055544.00000000 28624.93945312  2629338.25000000 2080631.37500000 
0.07300    60695404.00000000 38042036.00000000 96101880.00000000 27939.38085938  2570792.00000000 2034406.12500000 
0.07400    59489668.00000000 37289364.00000000 94196984.00000000 27273.29882812  2513819.50000000 1989406.62500000 
0.07500    58313768.00000000 36556348.00000000 92339680.00000000 26626.22656250  2458405.25000000 1945649.75000000 
0.07600    57168584.00000000 35841748.00000000 90530144.00000000 25998.15039062  2404504.50000000 1903101.37500000 
0.07700    56053280.00000000 35146576.00000000 88768664.00000000 25388.12304688  2352124.50000000 1861758.25000000 
0.07800    54967284.00000000 34469604.00000000 87054552.00000000 24796.17968750  2301246.50000000 1821579.12500000 
0.07900    53911304.00000000 33811072.00000000 85385480.00000000 24221.59570312  2251786.25000000 1782556.00000000 
0.08000    52883520.00000000 33170998.00000000 83764008.00000000 23663.94921875  2203772.75000000 1744648.37500000 
0.08100    51884544.00000000 32548708.00000000 82187128.00000000 23122.63476562  2157115.75000000 1707834.75000000 
0.08200    50913120.00000000 31943670.00000000 80653832.00000000 22597.20898438  2111822.50000000 1672107.50000000 
0.08300    49969612.00000000 31355976.00000000 79164208.00000000 22087.17187500  2067854.25000000 1637408.75000000 
0.08400    49053004.00000000 30785520.00000000 77718136.00000000 21592.03906250  2025129.75000000 1603715.50000000 
0.08500    48162476.00000000 30231232.00000000 76312272.00000000 21111.05664062  1983655.87500000 1571010.62500000 
0.08600    47297200.00000000 29693276.00000000 74948568.00000000 20643.93554688  1943375.75000000 1539248.50000000 
0.08700    46457432.00000000 29171158.00000000 73624176.00000000 20190.04492188  1904248.75000000 1508407.75000000 
0.08800    45641812.00000000 28664256.00000000 72337616.00000000 19748.63671875  1866242.37500000 1478437.00000000 
0.08900    44849684.00000000 28172368.00000000 71089048.00000000 19319.56835938  1829307.25000000 1449336.25000000 
0.09000    44080292.00000000 27695086.00000000 69877392.00000000 18901.93359375  1793406.75000000 1421042.62500000 
0.09100    43333352.00000000 27231742.00000000 68700600.00000000 18495.62890625  1758503.12500000 1393542.00000000 
0.09200    42607784.00000000 26782020.00000000 67557776.00000000 18099.64453125  1724544.62500000 1366796.50000000 
0.09300    41903112.00000000 26345296.00000000 66448516.00000000 17714.11718750  1691504.50000000 1340781.87500000 
0.09400    41218500.00000000 25921190.00000000 65370552.00000000 17337.79687500  1659331.25000000 1315450.50000000 
0.09500    40553184.00000000 25509598.00000000 64323520.00000000 16970.95703125  1627991.25000000 1290772.62500000 
0.09600    39906268.00000000 25109574.00000000 63306220.00000000 16612.93554688  1597455.25000000 1266739.00000000 
0.09700    39277140.00000000 24720972.00000000 62317324.00000000 16263.04101562  1567669.50000000 1243293.62500000 
0.09800    38665244.00000000 24343068.00000000 61355596.00000000 15921.18066406  1538613.25000000 1220428.75000000 
0.09900    38069960.00000000 23975706.00000000 60420048.00000000 15586.80566406  1510239.87500000 1198104.12500000 
0.10000    37489964.00000000 23618150.00000000 59509300.00000000 15259.43359375  1482515.62500000 1176297.75000000 
0.10100    36925064.00000000 23270286.00000000 58622240.00000000 14938.93652344  1455397.25000000 1154969.25000000 
0.10200    36374840.00000000 22931278.00000000 57758392.00000000 14624.83496094  1428886.37500000 1134114.62500000 
0.10300    35837556.00000000 22600904.00000000 56915892.00000000 14316.87988281  1402922.37500000 1113687.87500000 
0.10400    35313912.00000000 22278806.00000000 56094028.00000000 14014.71972656  1377480.25000000 1093681.12500000 
0.10500    34802232.00000000 21964656.00000000 55292048.00000000 13718.13574219  1352548.50000000 1074068.75000000 
0.10600    34301872.00000000 21657714.00000000 54508072.00000000 13426.83300781  1328065.12500000 1054826.37500000 
0.10700    33813516.00000000 21357680.00000000 53742096.00000000 13140.60937500  1304044.37500000 1035934.87500000 
0.10800    33335074.00000000 21064450.00000000 52992668.00000000 12859.25683594  1280437.50000000 1017371.56250000 
0.10900    32866622.00000000 20777546.00000000 52259128.00000000 12582.49511719  1257236.37500000 999118.56250000 
0.11000    32407698.00000000 20496330.00000000 51540460.00000000 12310.24902344  1234408.75000000 981159.68750000 
0.11100    31957554.00000000 20220612.00000000 50835788.00000000 12042.31933594  1211937.37500000 963487.93750000 
0.11200    31515674.00000000 19950434.00000000 50144544.00000000 11778.57714844  1189803.37500000 946074.12500000 
0.11300    31081852.00000000 19684974.00000000 49465324.00000000 11518.90136719  1167996.00000000 928912.12500000 
0.11400    30655382.00000000 19424196.00000000 48798500.00000000 11263.05664062  1146489.37500000 911991.25000000 
0.11500    30235798.00000000 19167916.00000000 48142300.00000000 11011.13769531  1125283.12500000 895292.62500000 
0.11600    29823034.00000000 18915606.00000000 47496708.00000000 10762.96093750  1104351.37500000 878812.87500000 
0.11700    29416588.00000000 18667110.00000000 46860760.00000000 10518.39941406  1083701.37500000 862533.87500000 
0.11800    29015524.00000000 18422278.00000000 46233592.00000000 10277.46777344  1063289.87500000 846461.62500000 
0.11900    28620310.00000000 18180612.00000000 45615316.00000000 10040.23046875  1043142.25000000 830572.25000000 
0.12000    28230038.00000000 17942170.00000000 45005300.00000000 9806.40039062   1023217.25000000 814870.00000000 
0.12100    27844720.00000000 17706836.00000000 44402672.00000000 9576.21289062   1003532.56250000 799344.75000000 
0.12200    27464192.00000000 17474172.00000000 43807260.00000000 9349.51855469   984081.43750000 783990.37500000 
0.12300    27087820.00000000 17244290.00000000 43218364.00000000 9126.28417969   964845.37500000 768809.31250000 
0.12400    26715754.00000000 17016590.00000000 42636124.00000000 8906.45605469   945830.56250000 753787.75000000 
0.12500    26347536.00000000 16791332.00000000 42060040.00000000 8690.21191406   927025.18750000 738932.43750000 
0.12600    25983086.00000000 16568209.00000000 41489268.00000000 8477.54492188   908428.12500000 724236.81250000 
0.12700    25622132.00000000 16347243.00000000 40923748.00000000 8268.29199219   890043.06250000 709698.31250000 
0.12800    25264470.00000000 16128102.00000000 40363728.00000000 8062.57226562   871864.62500000 695320.50000000 
0.12900    24910336.00000000 15910844.00000000 39808716.00000000 7860.38085938   853895.87500000 681098.43750000 
0.13000    24559076.00000000 15695382.00000000 39258228.00000000 7661.79345703   836136.87500000 667029.81250000 
0.13100    24210902.00000000 15481543.00000000 38712420.00000000 7466.75927734   818581.62500000 653119.56250000 
0.13200    23865682.00000000 15269482.00000000 38170924.00000000 7275.37353516   801227.37500000 639364.12500000 
0.13300    23523302.00000000 15058927.00000000 37633800.00000000 7087.58154297   784091.12500000 625767.25000000 
0.13400    23183844.00000000 14849861.00000000 37100480.00000000 6903.39990234   767161.25000000 612335.43750000 
0.13500    22846968.00000000 14642298.00000000 36571364.00000000 6722.91699219   750448.37500000 599063.37500000 
0.13600    22512878.00000000 14436288.00000000 36046416.00000000 6546.06689453   733947.81250000 585957.18750000 
0.13700    22181548.00000000 14231712.00000000 35525548.00000000 6372.89843750   717651.31250000 573012.00000000 
0.13800    21852470.00000000 14028411.00000000 35008392.00000000 6203.43164062   701588.75000000 560230.75000000 
0.13900    21526426.00000000 13826653.00000000 34494828.00000000 6037.69921875   685738.93750000 547624.56250000 
0.14000    21202990.00000000 13626323.00000000 33985740.00000000 5875.60644531   670116.31250000 535183.00000000 
0.14100    20882200.00000000 13427545.00000000 33480336.00000000 5717.21972656   654710.00000000 522914.06250000 
0.14200    20564082.00000000 13229948.00000000 32978624.00000000 5562.49804688   639540.18750000 510822.71875000 
0.14300    20248608.00000000 13033827.00000000 32481054.00000000 5411.49316406   624598.62500000 498908.46875000 
0.14400    19935750.00000000 12839313.00000000 31987174.00000000 5264.10644531   609879.37500000 487167.75000000 
0.14500    19625662.00000000 12646251.00000000 31497610.00000000 5120.34570312   595403.06250000 475613.84375000 
0.14600    19318276.00000000 12454551.00000000 31012232.00000000 4980.19042969   581159.06250000 464237.87500000 
0.14700    19013822.00000000 12264479.00000000 30530760.00000000 4843.68408203   567156.18750000 453046.62500000 
0.14800    18712006.00000000 12075951.00000000 30053630.00000000 4710.69433594   553385.18750000 442040.59375000 
0.14900    18413046.00000000 11888884.00000000 29580472.00000000 4581.16113281   539852.12500000 431217.65625000 
0.15000    18117152.00000000 11703510.00000000 29111876.00000000 4455.13281250   526560.50000000 420584.96875000 
0.15100    17824126.00000000 11519726.00000000 28647636.00000000 4332.53466797   513510.18750000 410136.93750000 
0.15200    17534174.00000000 11337687.00000000 28187748.00000000 4213.33154297   500703.12500000 399881.09375000 
0.15300    17247236.00000000 11157290.00000000 27732748.00000000 4097.39843750   488138.81250000 389813.28125000 
0.15400    16963218.00000000 10978529.00000000 27282112.00000000 3984.75024414   475810.00000000 379930.12500000 
0.15500    16682699.00000000 10801706.00000000 26836174.00000000 3875.31958008   463722.25000000 370239.50000000 
0.15600    16404847.00000000 10626465.00000000 26394956.00000000 3769.00097656   451878.53125000 360735.03125000 
0.15700    16130493.00000000 10453211.00000000 25958608.00000000 3665.78002930   440269.65625000 351422.25000000 
0.15800    15859158.00000000 10281696.00000000 25527076.00000000 3565.55468750   428900.18750000 342293.46875000 
0.15900    15591117.00000000 10112077.00000000 25100524.00000000 3468.24145508   417769.40625000 333353.84375000 
0.16000    15326358.00000000 9944294.00000000 24678980.00000000 3373.80908203   406869.59375000 324603.15625000 
0.16100    15065068.00000000 9778470.00000000 24262454.00000000 3282.20434570   396204.12500000 316032.68750000 
0.16200    14806892.00000000 9614573.00000000 23851150.00000000 3193.27978516   385771.18750000 307647.43750000 
0.16300    14552101.00000000 9452688.00000000 23444868.00000000 3107.00048828   375566.25000000 299443.18750000 
0.16400    14300812.00000000 9292754.00000000 23043652.00000000 3023.30712891   365588.09375000 291417.78125000 
0.16500    14052822.00000000 9134798.00000000 22647690.00000000 2942.11035156   355832.21875000 283567.93750000 
0.16600    13808198.00000000 8978964.00000000 22257232.00000000 2863.36303711   346295.09375000 275898.68750000 
0.16700    13567031.00000000 8825031.00000000 21871808.00000000 2786.90161133   336978.03125000 268399.53125000 
0.16800    13329157.00000000 8673260.00000000 21491790.00000000 2712.71606445   327872.06250000 261072.29687500 
0.16900    13094921.00000000 8523389.00000000 21116944.00000000 2640.76586914   318983.53125000 253916.79687500 
0.17000    12863946.00000000 8375697.50000000 20747632.00000000 2570.91479492   310294.34375000 246924.35937500 
