# SAXS profile: number of points = 501, q_min = 0, q_max = 0.5, delta_q = 0.001
#    q    intensity 
0.00000    162236272.00000000 101201776.00000000 256270912.00000000 98230.99218750  7984195.00000000 6305930.00000000 
0.00100    162208896.00000000 101184088.00000000 256225424.00000000 98208.79687500  7982577.00000000 6304624.00000000 
0.00200    162124928.00000000 101131088.00000000 256090976.00000000 98141.35937500  7977694.00000000 6300801.00000000 
0.00300    161982608.00000000 101042256.00000000 255865616.00000000 98029.85156250  7969618.00000000 6294476.00000000 
0.00400    161783280.00000000 100918752.00000000 255550208.00000000 97872.77343750  7958291.50000000 6285559.00000000 
0.00500    161525232.00000000 100759536.00000000 255145712.00000000 97672.53125000  7943746.00000000 6274097.00000000 
0.00600    161211216.00000000 100565536.00000000 254651696.00000000 97427.85937500  7926031.50000000 6260163.00000000 
0.00700    160838144.00000000 100336016.00000000 254067888.00000000 97139.58593750  7905105.50000000 6243736.00000000 
0.00800    160411744.00000000 100073320.00000000 253399024.00000000 96808.39843750  7881085.00000000 6224817.00000000 
0.00900    159925584.00000000 99775424.00000000 252642064.00000000 96434.78125000  7853934.00000000 6203486.00000000 
0.01000    159388832.00000000 99444496.00000000 251798128.00000000 96018.64062500  7823693.00000000 6179724.50000000 
0.01100    158798512.00000000 99080096.00000000 250869712.00000000 95560.73437500  7790448.00000000 6153537.00000000 
0.01200    158153760.00000000 98683024.00000000 249857552.00000000 95061.90625000  7754199.00000000 6125031.00000000 
0.01300    157457888.00000000 98252560.00000000 248761504.00000000 94523.10156250  7714997.00000000 6094230.50000000 
0.01400    156709568.00000000 97790216.00000000 247583216.00000000 93944.50000000  7672849.50000000 6061134.00000000 
0.01500    155907584.00000000 97296576.00000000 246325264.00000000 93327.19531250  7627933.00000000 6025805.00000000 
0.01600    155055040.00000000 96770984.00000000 244989440.00000000 92672.69531250  7580166.00000000 5988235.50000000 
0.01700    154156176.00000000 96214864.00000000 243574704.00000000 91980.53906250  7529718.00000000 5948584.50000000 
0.01800    153208064.00000000 95630208.00000000 242085584.00000000 91253.24218750  7476648.00000000 5906815.50000000 
0.01900    152212256.00000000 95015688.00000000 240521904.00000000 90490.67187500  7420929.50000000 5862972.00000000 
0.02000    151170608.00000000 94373344.00000000 238884800.00000000 89694.17968750  7362664.00000000 5817181.50000000 
0.02100    150083904.00000000 93702808.00000000 237177104.00000000 88865.37500000  7302002.50000000 5769460.00000000 
0.02200    148954688.00000000 93005336.00000000 235400944.00000000 88004.10156250  7238901.50000000 5719828.50000000 
0.02300    147781728.00000000 92281392.00000000 233558832.00000000 87113.09375000  7173552.00000000 5668417.50000000 
0.02400    146567792.00000000 91532032.00000000 231650896.00000000 86192.68750000  7105926.00000000 5615233.00000000 
0.02500    145314848.00000000 90758000.00000000 229681360.00000000 85243.95312500  7036234.00000000 5560370.00000000 
0.02600    144022144.00000000 89960184.00000000 227651488.00000000 84268.37500000  6964422.00000000 5503893.50000000 
0.02700    142694080.00000000 89139072.00000000 225561088.00000000 83267.68750000  6890675.00000000 5445857.00000000 
0.02800    141329440.00000000 88296264.00000000 223415968.00000000 82242.24218750  6815038.50000000 5386382.50000000 
0.02900    139929840.00000000 87432728.00000000 221218080.00000000 81194.60156250  6737623.00000000 5325414.50000000 
0.03000    138498192.00000000 86548040.00000000 218966592.00000000 80124.78125000  6658509.50000000 5263168.50000000 
0.03100    137035616.00000000 85643928.00000000 216667040.00000000 79034.98437500  6577736.50000000 5199636.50000000 
0.03200    135542896.00000000 84721008.00000000 214319856.00000000 77926.86718750  6495495.00000000 5134895.00000000 
0.03300    134022384.00000000 83781104.00000000 211929616.00000000 76800.59375000  6411794.50000000 5069021.50000000 
0.03400    132475576.00000000 82824640.00000000 209495584.00000000 75658.61718750  6326813.50000000 5002109.50000000 
0.03500    130903184.00000000 81852776.00000000 207023056.00000000 74501.87500000  6240541.50000000 4934226.00000000 
0.03600    129307688.00000000 80865320.00000000 204513840.00000000 73331.90625000  6153137.00000000 4865394.00000000 
0.03700    127689872.00000000 79865544.00000000 201970016.00000000 72149.80468750  6064703.00000000 4795769.00000000 
0.03800    126052808.00000000 78852264.00000000 199393760.00000000 70957.29687500  5975324.50000000 4725376.50000000 
0.03900    124396312.00000000 77827584.00000000 196787472.00000000 69755.50781250  5885054.50000000 4654308.00000000 
0.04000    122722792.00000000 76791744.00000000 194153920.00000000 68546.27343750  5794047.50000000 4582658.50000000 
0.04100    121033968.00000000 75746792.00000000 191497376.00000000 67329.96093750  5702418.50000000 4510476.50000000 
0.04200    119331168.00000000 74692696.00000000 188817696.00000000 66108.92187500  5610124.00000000 4437819.50000000 
0.04300    117615912.00000000 73631064.00000000 186119792.00000000 64883.91796875  5517437.00000000 4364790.50000000 
0.04400    115890416.00000000 72562368.00000000 183403712.00000000 63656.24609375  5424347.00000000 4291423.00000000 
0.04500    114155408.00000000 71488200.00000000 180671632.00000000 62427.44140625  5330907.00000000 4217854.50000000 
0.04600    112413032.00000000 70408520.00000000 177928080.00000000 61198.58593750  5237302.50000000 4144067.25000000 
0.04700    110663720.00000000 69324760.00000000 175174768.00000000 59970.84375000  5143541.50000000 4070182.00000000 
0.04800    108910864.00000000 68237968.00000000 172414000.00000000 58745.51953125  5049733.50000000 3996274.50000000 
0.04900    107154200.00000000 67148840.00000000 169648896.00000000 57523.67187500  4956016.00000000 3922384.50000000 
0.05000    105396504.00000000 66058932.00000000 166877952.00000000 56306.55078125  4862426.50000000 3848617.00000000 
0.05100    103637760.00000000 64968300.00000000 164110528.00000000 55095.33593750  4769018.00000000 3774986.25000000 
0.05200    101880568.00000000 63878340.00000000 161341408.00000000 53890.60546875  4675948.00000000 3701576.25000000 
0.05300    100125976.00000000 62789900.00000000 158578096.00000000 52693.94921875  4583191.50000000 3628470.25000000 
0.05400    98375424.00000000 61703384.00000000 155819488.00000000 51506.27343750  4490916.50000000 3555686.00000000 
0.05500    96630904.00000000 60620012.00000000 153069072.00000000 50327.99218750  4399125.50000000 3483304.50000000 
0.05600    94892096.00000000 59540580.00000000 150328752.00000000 49160.75000000  4307962.00000000 3411376.50000000 
0.05700    93161016.00000000 58465748.00000000 147601392.00000000 48005.04687500  4217433.50000000 3339966.50000000 
0.05800    91439536.00000000 57396264.00000000 144886880.00000000 46861.67578125  4127593.00000000 3269093.75000000 
0.05900    89727752.00000000 56332624.00000000 142188816.00000000 45731.69140625  4038551.75000000 3198841.75000000 
0.06000    88026784.00000000 55276152.00000000 139507152.00000000 44615.49609375  3950355.00000000 3129252.50000000 
0.06100    86339152.00000000 54226880.00000000 136845824.00000000 43513.98437500  3863051.75000000 3060360.75000000 
0.06200    84664712.00000000 53185784.00000000 134204608.00000000 42427.85546875  3776725.50000000 2992199.25000000 
0.06300    83005192.00000000 52153560.00000000 131588456.00000000 41357.71875000  3691368.25000000 2924816.25000000 
0.06400    81360792.00000000 51130800.00000000 128994200.00000000 40304.07031250  3607074.50000000 2858276.25000000 
0.06500    79733032.00000000 50117752.00000000 126426200.00000000 39267.39453125  3523875.00000000 2792575.00000000 
0.06600    78122584.00000000 49115292.00000000 123885056.00000000 38248.17968750  3441814.75000000 2727778.50000000 
0.06700    76530272.00000000 48124196.00000000 121372648.00000000 37246.92578125  3360942.75000000 2663893.00000000 
0.06800    74957032.00000000 47144496.00000000 118888864.00000000 36263.96093750  3281288.00000000 2600969.00000000 
0.06900    73403384.00000000 46177028.00000000 116437072.00000000 35299.91796875  3202868.50000000 2539020.00000000 
0.07000    71870488.00000000 45221844.00000000 114017104.00000000 34354.97265625  3125756.50000000 2478090.25000000 
0.07100    70358576.00000000 44279856.00000000 111630152.00000000 33429.03515625  3049960.25000000 2418196.75000000 
0.07200    68868784.00000000 43350876.00000000 109276392.00000000 32522.78125000  2975485.00000000 2359326.75000000 
0.07300    67401032.00000000 42435952.00000000 106959256.00000000 31636.15429688  2902360.25000000 2301555.50000000 
0.07400    65956004.00000000 41534896.00000000 104677264.00000000 30769.47656250  2830651.75000000 2244841.00000000 
0.07500    64534404.00000000 40648240.00000000 102431792.00000000 29922.79492188  2760313.25000000 2189252.75000000 
0.07600    63136592.00000000 39776160.00000000 100223352.00000000 29096.02734375  2691408.50000000 2134743.50000000 
0.07700    61763280.00000000 38918664.00000000 98052984.00000000 28289.39843750  2623914.25000000 2081379.87500000 
0.07800    60414212.00000000 38076924.00000000 95921184.00000000 27502.80468750  2557874.00000000 2029133.00000000 
0.07900    59090136.00000000 37250104.00000000 93828904.00000000 26736.33203125  2493260.50000000 1978034.25000000 
0.08000    57791200.00000000 36438684.00000000 91775496.00000000 25989.77148438  2430105.25000000 1928076.62500000 
0.08100    56517764.00000000 35643072.00000000 89762064.00000000 25263.15039062  2368402.75000000 1879240.50000000 
0.08200    55269592.00000000 34863036.00000000 87789256.00000000 24556.29296875  2308141.00000000 1831560.00000000 
0.08300    54047152.00000000 34099184.00000000 85856160.00000000 23868.89062500  2249343.75000000 1785009.00000000 
0.08400    52850692.00000000 33351046.00000000 83963952.00000000 23200.92773438  2191975.00000000 1739603.75000000 
0.08500    51680056.00000000 32619176.00000000 82112552.00000000 22552.39843750  2136037.50000000 1695330.87500000 
0.08600    50535104.00000000 31903216.00000000 80301384.00000000 21922.52148438  2081553.25000000 1652180.37500000 
0.08700    49415952.00000000 31203414.00000000 78532016.00000000 21311.55078125  2028467.25000000 1610154.00000000 
0.08800    48323000.00000000 30519160.00000000 76802432.00000000 20719.02539062  1976804.12500000 1569233.62500000 
0.08900    47255700.00000000 29851360.00000000 75113648.00000000 20144.48828125  1926521.37500000 1529416.00000000 
0.09000    46213940.00000000 29199330.00000000 73465296.00000000 19587.79296875  1877613.25000000 1490678.37500000 
0.09100    45197828.00000000 28563242.00000000 71857576.00000000 19048.48046875  1830072.12500000 1453014.50000000 
0.09200    44206992.00000000 27942886.00000000 70289384.00000000 18526.38281250  1783868.50000000 1416405.25000000 
0.09300    43241352.00000000 27338184.00000000 68760528.00000000 18021.14257812  1738987.25000000 1380848.00000000 
0.09400    42300288.00000000 26748894.00000000 67271464.00000000 17531.99023438  1695397.50000000 1346305.50000000 
0.09500    41384364.00000000 26175020.00000000 65821036.00000000 17059.04687500  1653098.37500000 1312775.50000000 
0.09600    40492520.00000000 25616210.00000000 64409292.00000000 16601.54882812  1612045.75000000 1280239.37500000 
0.09700    39624748.00000000 25072564.00000000 63035544.00000000 16159.18066406  1572227.75000000 1248675.62500000 
0.09800    38781100.00000000 24543828.00000000 61699276.00000000 15731.71679688  1533612.37500000 1218055.62500000 
0.09900    37960492.00000000 24029480.00000000 60399796.00000000 15318.49707031  1496167.12500000 1188373.00000000 
0.10000    37162628.00000000 23529498.00000000 59136784.00000000 14919.26660156  1459866.00000000 1159599.25000000 
0.10100    36387664.00000000 23043782.00000000 57909432.00000000 14533.34960938  1424690.00000000 1131707.75000000 
0.10200    35634860.00000000 22571972.00000000 56717360.00000000 14160.54785156  1390617.00000000 1104680.12500000 
0.10300    34903864.00000000 22113644.00000000 55559628.00000000 13800.33789062  1357595.62500000 1078494.75000000 
0.10400    34194108.00000000 21668762.00000000 54435840.00000000 13452.32421875  1325612.50000000 1053130.25000000 
0.10500    33505244.00000000 21237162.00000000 53345608.00000000 13116.21777344  1294642.00000000 1028568.68750000 
0.10600    32836498.00000000 20818270.00000000 52286712.00000000 12791.18261719  1264646.50000000 1004766.25000000 
0.10700    32188058.00000000 20411742.00000000 51259916.00000000 12477.18652344  1235590.50000000 981716.56250000 
0.10800    31559194.00000000 20017584.00000000 50263940.00000000 12173.57421875  1207446.75000000 959394.31250000 
0.10900    30949350.00000000 19635346.00000000 49298120.00000000 11880.07910156  1180195.12500000 937774.93750000 
0.11000    30357962.00000000 19264692.00000000 48361784.00000000 11596.30859375  1153793.37500000 916829.87500000 
0.11100    29784408.00000000 18905398.00000000 47453676.00000000 11321.77636719  1128228.87500000 896541.18750000 
0.11200    29228454.00000000 18557072.00000000 46573692.00000000 11056.13574219  1103445.12500000 876876.31250000 
0.11300    28689486.00000000 18219494.00000000 45720172.00000000 10798.96875000  1079437.37500000 857832.68750000 
0.11400    28166948.00000000 17892306.00000000 44893284.00000000 10549.95410156  1056172.25000000 839363.00000000 
0.11500    27660350.00000000 17575180.00000000 44091256.00000000 10308.67382812  1033606.06250000 821461.56250000 
0.11600    27169224.00000000 17267702.00000000 43313916.00000000 10074.78027344  1011720.81250000 804095.00000000 
0.11700    26693260.00000000 16969660.00000000 42560748.00000000 9848.04785156   990496.06250000 787252.37500000 
0.11800    26231312.00000000 16680692.00000000 41829936.00000000 9627.85644531   969891.25000000 770898.62500000 
0.11900    25783454.00000000 16400675.00000000 41121280.00000000 9414.24609375   949879.62500000 755022.06250000 
0.12000    25348856.00000000 16128849.00000000 40433936.00000000 9206.71582031   930449.81250000 739603.00000000 
0.12100    24927422.00000000 15865422.00000000 39767368.00000000 9004.93164062   911568.37500000 724616.81250000 
0.12200    24518134.00000000 15609742.00000000 39120320.00000000 8808.70019531   893206.50000000 710045.93750000 
0.12300    24121112.00000000 15361666.00000000 38492444.00000000 8617.69726562   875349.12500000 695869.12500000 
0.12400    23735488.00000000 15120763.00000000 37882608.00000000 8431.73339844   857962.25000000 682069.93750000 
0.12500    23360512.00000000 14886872.00000000 37290256.00000000 8250.42187500   841024.75000000 668623.87500000 
0.12600    22996400.00000000 14659734.00000000 36715016.00000000 8073.76562500   824520.12500000 655526.75000000 
0.12700    22642388.00000000 14438800.00000000 36155480.00000000 7901.25048828   808430.81250000 642749.06250000 
0.12800    22297858.00000000 14224164.00000000 35611240.00000000 7732.82031250   792723.37500000 630281.50000000 
0.12900    21962674.00000000 14015179.00000000 35082172.00000000 7568.29248047   777392.06250000 618110.62500000 
0.13000    21636306.00000000 13811701.00000000 34566440.00000000 7407.48730469   762408.43750000 606213.37500000 
0.13100    21318130.00000000 13613610.00000000 34064120.00000000 7250.16552734   747759.37500000 594577.81250000 
0.13200    21008032.00000000 13420557.00000000 33574720.00000000 7096.15869141   733420.37500000 583196.56250000 
0.13300    20705546.00000000 13232307.00000000 33097252.00000000 6945.35351562   719385.50000000 572052.87500000 
0.13400    20410202.00000000 13048609.00000000 32631196.00000000 6797.59960938   705639.87500000 561128.81250000 
0.13500    20121894.00000000 12869197.00000000 32176158.00000000 6652.72265625   692159.75000000 550422.56250000 
0.13600    19840022.00000000 12693875.00000000 31731424.00000000 6510.66015625   678935.31250000 539916.87500000 
0.13700    19564174.00000000 12522567.00000000 31296396.00000000 6371.24462891   665954.50000000 529599.37500000 
0.13800    19294314.00000000 12354751.00000000 30870542.00000000 6234.40478516   653206.37500000 519467.81250000 
0.13900    19029752.00000000 12190565.00000000 30453604.00000000 6100.09277344   640678.06250000 509506.65625000 
0.14000    18770716.00000000 12029569.00000000 30044946.00000000 5968.13330078   628358.31250000 499710.56250000 
0.14100    18516622.00000000 11871633.00000000 29644038.00000000 5838.50585938   616239.18750000 490070.37500000 
0.14200    18267162.00000000 11716734.00000000 29250560.00000000 5711.09228516   604307.31250000 480581.43750000 
0.14300    18021928.00000000 11564484.00000000 28864016.00000000 5585.91210938   592554.81250000 471230.50000000 
0.14400    17781114.00000000 11414818.00000000 28484132.00000000 5462.80468750   580975.56250000 462012.06250000 
0.14500    17544064.00000000 11267669.00000000 28110336.00000000 5341.80371094   569561.50000000 452927.03125000 
0.14600    17310664.00000000 11122691.00000000 27742418.00000000 5222.83154297   558305.75000000 443965.37500000 
0.14700    17080868.00000000 10979985.00000000 27379872.00000000 5105.82226562   547205.56250000 435125.15625000 
0.14800    16854314.00000000 10839163.00000000 27022516.00000000 4990.79931641   536251.12500000 426398.00000000 
0.14900    16630975.00000000 10700377.00000000 26670086.00000000 4877.62939453   525442.06250000 417778.68750000 
0.15000    16410445.00000000 10563237.00000000 26322186.00000000 4766.41943359   514768.18750000 409270.68750000 
0.15100    16192775.00000000 10427803.00000000 25978592.00000000 4657.10546875   504227.46875000 400865.09375000 
0.15200    15977705.00000000 10293982.00000000 25639172.00000000 4549.64697266   493820.34375000 392563.18750000 
0.15300    15765088.00000000 10161650.00000000 25303450.00000000 4444.04687500   483541.78125000 384361.50000000 
0.15400    15554866.00000000 10030605.00000000 24971220.00000000 4340.27294922   473385.90625000 376252.46875000 
0.15500    15346741.00000000 9901014.00000000 24642604.00000000 4238.31787109   463357.25000000 368242.31250000 
0.15600    15140817.00000000 9772562.00000000 24317150.00000000 4138.19921875   453445.53125000 360324.37500000 
0.15700    14936966.00000000 9645368.00000000 23994956.00000000 4039.93603516   443656.37500000 352503.12500000 
0.15800    14734945.00000000 9519173.00000000 23675490.00000000 3943.42895508   433984.00000000 344769.21875000 
0.15900    14534765.00000000 9394086.00000000 23358732.00000000 3848.75292969   424431.62500000 337127.62500000 
0.16000    14336329.00000000 9270021.00000000 23044756.00000000 3755.88623047   414991.75000000 329578.06250000 
0.16100    14139676.00000000 9146896.00000000 22733496.00000000 3664.86181641   405675.43750000 322121.75000000 
0.16200    13944661.00000000 9024714.00000000 22424464.00000000 3575.59448242   396473.93750000 314755.18750000 
0.16300    13751107.00000000 8903409.00000000 22117862.00000000 3488.14282227   387387.75000000 307478.21875000 
0.16400    13559197.00000000 8782943.00000000 21813706.00000000 3402.50439453   378424.56250000 300294.12500000 
0.16500    13368721.00000000 8663356.00000000 21511610.00000000 3318.63134766   369573.09375000 293200.18750000 
0.16600    13179831.00000000 8544497.00000000 21211818.00000000 3236.58398438   360842.65625000 286200.37500000 
0.16700    12992287.00000000 8426498.00000000 20913988.00000000 3156.30444336   352230.43750000 279292.34375000 
0.16800    12806164.00000000 8309214.50000000 20618380.00000000 3077.78393555   343734.06250000 272476.21875000 
0.16900    12621444.00000000 8192758.50000000 20325108.00000000 3001.09423828   335363.75000000 265758.68750000 
0.17000    12438199.00000000 8076993.50000000 20033462.00000000 2926.14672852   327112.65625000 259130.18750000 
