# SAXS profile: number of points = 501, q_min = 0, q_max = 0.5, delta_q = 0.001
#    q    intensity 
0.00000    162237856.00000000 101201776.00000000 256271120.00000000 95006.57031250  7852058.00000000 6201524.50000000 
0.00100    162215328.00000000 101187112.00000000 256235776.00000000 94987.75781250  7850726.50000000 6200488.00000000 
0.00200    162146720.00000000 101144640.00000000 256126016.00000000 94931.34375000  7846699.50000000 6197343.00000000 
0.00300    162032048.00000000 101073600.00000000 255944992.00000000 94838.00781250  7839954.50000000 6192075.50000000 
0.00400    161869776.00000000 100974232.00000000 255690944.00000000 94706.85156250  7830562.00000000 6184696.00000000 
0.00500    161661600.00000000 100846672.00000000 255364880.00000000 94539.16406250  7818467.50000000 6175212.50000000 
0.00600    161406896.00000000 100690528.00000000 254966752.00000000 94333.54687500  7803744.00000000 6163649.00000000 
0.00700    161106784.00000000 100507352.00000000 254497200.00000000 94092.25781250  7786392.00000000 6150032.50000000 
0.00800    160759824.00000000 100294656.00000000 253954704.00000000 93813.42968750  7766354.00000000 6134349.00000000 
0.00900    160369536.00000000 100055336.00000000 253344080.00000000 93499.07031250  7743719.50000000 6116621.50000000 
0.01000    159932656.00000000 99788464.00000000 252662480.00000000 93148.86718750  7718553.00000000 6096873.00000000 
0.01100    159452160.00000000 99494872.00000000 251910704.00000000 92763.03906250  7690800.50000000 6075120.50000000 
0.01200    158927232.00000000 99174000.00000000 251090384.00000000 92342.55468750  7660510.00000000 6051360.00000000 
0.01300    158359712.00000000 98826568.00000000 250201584.00000000 91887.08593750  7627736.50000000 6025657.00000000 
0.01400    157749504.00000000 98452872.00000000 249245792.00000000 91398.23437500  7592465.00000000 5998007.50000000 
0.01500    157097760.00000000 98052656.00000000 248223296.00000000 90875.79687500  7554789.00000000 5968460.00000000 
0.01600    156403824.00000000 97626336.00000000 247134944.00000000 90320.39062500  7514682.50000000 5937030.00000000 
0.01700    155666048.00000000 97175016.00000000 245982016.00000000 89732.75781250  7472215.00000000 5903763.50000000 
0.01800    154888432.00000000 96698952.00000000 244765904.00000000 89113.17968750  7427484.00000000 5868641.50000000 
0.01900    154071872.00000000 96198112.00000000 243487296.00000000 88463.31250000  7380446.00000000 5831770.50000000 
0.02000    153215808.00000000 95673384.00000000 242145568.00000000 87782.86718750  7331216.00000000 5793153.00000000 
0.02100    152320816.00000000 95124592.00000000 240744832.00000000 87072.97656250  7279791.00000000 5752815.00000000 
0.02200    151388208.00000000 94553216.00000000 239283104.00000000 86334.20312500  7226220.00000000 5710819.50000000 
0.02300    150418624.00000000 93958888.00000000 237766256.00000000 85568.05468750  7170605.50000000 5667173.00000000 
0.02400    149413184.00000000 93341888.00000000 236190880.00000000 84774.67968750  7112969.50000000 5621935.50000000 
0.02500    148371280.00000000 92703520.00000000 234560256.00000000 83955.28906250  7053344.50000000 5575179.50000000 
0.02600    147296160.00000000 92044144.00000000 232875328.00000000 83110.19531250  6991814.00000000 5526916.50000000 
0.02700    146187840.00000000 91363864.00000000 231138272.00000000 82240.72656250  6928444.00000000 5477179.00000000 
0.02800    145046288.00000000 90663080.00000000 229349632.00000000 81347.83593750  6863272.00000000 5426041.50000000 
0.02900    143872592.00000000 89943576.00000000 227512160.00000000 80432.52343750  6796372.50000000 5373548.50000000 
0.03000    142669664.00000000 89205472.00000000 225625936.00000000 79495.07812500  6727812.50000000 5319755.00000000 
0.03100    141435024.00000000 88448464.00000000 223692848.00000000 78537.79687500  6657633.50000000 5264678.50000000 
0.03200    140173728.00000000 87673520.00000000 221715072.00000000 77560.14062500  6585970.50000000 5208417.00000000 
0.03300    138884096.00000000 86881968.00000000 219694096.00000000 76564.27343750  6512761.50000000 5150964.50000000 
0.03400    137567504.00000000 86073912.00000000 217631632.00000000 75550.75781250  6438181.00000000 5092406.50000000 
0.03500    136226240.00000000 85249840.00000000 215528864.00000000 74520.78906250  6362282.50000000 5032810.00000000 
0.03600    134859568.00000000 84410600.00000000 213387952.00000000 73474.87500000  6285066.50000000 4972193.00000000 
0.03700    133470232.00000000 83557112.00000000 211208896.00000000 72414.64843750  6206681.50000000 4910649.50000000 
0.03800    132058272.00000000 82689432.00000000 208996080.00000000 71340.52343750  6127146.00000000 4848199.50000000 
0.03900    130625400.00000000 81808688.00000000 206749152.00000000 70254.12500000  6046577.00000000 4784894.00000000 
0.04000    129172464.00000000 80915912.00000000 204470976.00000000 69156.64062500  5964995.00000000 4720820.50000000 
0.04100    127701008.00000000 80011208.00000000 202162304.00000000 68048.74218750  5882493.00000000 4656031.50000000 
0.04200    126211184.00000000 79095648.00000000 199826192.00000000 66931.06250000  5799158.00000000 4590511.00000000 
0.04300    124705048.00000000 78168824.00000000 197463712.00000000 65805.64843750  5715017.50000000 4524439.50000000 
0.04400    123183408.00000000 77232760.00000000 195077312.00000000 64672.91015625  5630194.00000000 4457744.00000000 
0.04500    121647768.00000000 76287848.00000000 192667280.00000000 63534.04296875  5544699.00000000 4390568.00000000 
0.04600    120098168.00000000 75333688.00000000 190235760.00000000 62389.66796875  5458644.00000000 4322927.00000000 
0.04700    118536928.00000000 74372816.00000000 187785376.00000000 61241.52734375  5372092.50000000 4254894.50000000 
0.04800    116964648.00000000 73404664.00000000 185317552.00000000 60090.02734375  5285129.00000000 4186502.75000000 
0.04900    115382736.00000000 72430672.00000000 182834976.00000000 58936.65234375  5197754.50000000 4117833.25000000 
0.05000    113791304.00000000 71450504.00000000 180338144.00000000 57782.06250000  5110131.00000000 4048904.25000000 
0.05100    112192960.00000000 70466256.00000000 177827696.00000000 56627.51171875  5022293.50000000 3979811.75000000 
0.05200    110587816.00000000 69477224.00000000 175307696.00000000 55473.41406250  4934260.00000000 3910561.75000000 
0.05300    108977848.00000000 68484304.00000000 172778672.00000000 54321.23437500  4846148.50000000 3841250.50000000 
0.05400    107362864.00000000 67488144.00000000 170242208.00000000 53171.55859375  4758043.00000000 3771890.75000000 
0.05500    105745568.00000000 66489992.00000000 167700624.00000000 52025.69140625  4669920.00000000 3702545.00000000 
0.05600    104125120.00000000 65490548.00000000 165155248.00000000 50883.96875000  4581912.00000000 3633281.50000000 
0.05700    102503584.00000000 64489688.00000000 162607744.00000000 49747.83984375  4494077.50000000 3564135.00000000 
0.05800    100882136.00000000 63488688.00000000 160059328.00000000 48617.82031250  4406460.00000000 3495133.00000000 
0.05900    99262040.00000000 62487848.00000000 157512304.00000000 47494.72656250  4319110.00000000 3426354.50000000 
0.06000    97642912.00000000 61487752.00000000 154967728.00000000 46379.38671875  4232115.50000000 3357840.75000000 
0.06100    96027544.00000000 60489488.00000000 152426672.00000000 45272.76171875  4145519.25000000 3289617.75000000 
0.06200    94415488.00000000 59493112.00000000 149892704.00000000 44175.14453125  4059377.75000000 3221751.75000000 
0.06300    92808504.00000000 58499596.00000000 147364736.00000000 43087.80468750  3973754.75000000 3154276.00000000 
0.06400    91206760.00000000 57508760.00000000 144845904.00000000 42011.01171875  3888665.50000000 3087199.25000000 
0.06500    89612040.00000000 56522084.00000000 142336480.00000000 40945.64062500  3804193.50000000 3020612.50000000 
0.06600    88024752.00000000 55539640.00000000 139838288.00000000 39892.33203125  3720380.00000000 2954531.25000000 
0.06700    86446224.00000000 54561784.00000000 137353040.00000000 38851.44921875  3637280.50000000 2888984.50000000 
0.06800    84876104.00000000 53589476.00000000 134881408.00000000 37823.96093750  3554923.25000000 2824015.25000000 
0.06900    83316352.00000000 52623044.00000000 132427112.00000000 36809.97656250  3473362.50000000 2759675.50000000 
0.07000    81767184.00000000 51662736.00000000 129987392.00000000 35810.68750000  3392631.00000000 2695975.25000000 
0.07100    80229592.00000000 50709176.00000000 127565080.00000000 34825.69921875  3312801.25000000 2632936.75000000 
0.07200    78703760.00000000 49762844.00000000 125161784.00000000 33855.94140625  3233870.75000000 2570639.75000000 
0.07300    77191208.00000000 48824384.00000000 122778856.00000000 32902.07812500  3155893.50000000 2509073.25000000 
0.07400    75692184.00000000 47893664.00000000 120416808.00000000 31964.21289062  3078920.50000000 2448266.25000000 
0.07500    74207720.00000000 46971456.00000000 118076656.00000000 31042.67578125  3002951.50000000 2388262.50000000 
0.07600    72737952.00000000 46058444.00000000 115759096.00000000 30137.73828125  2928036.50000000 2329053.75000000 
0.07700    71283288.00000000 45154248.00000000 113465640.00000000 29250.08398438  2854209.75000000 2270720.00000000 
0.07800    69845288.00000000 44260004.00000000 111196872.00000000 28379.72265625  2781509.25000000 2213228.50000000 
0.07900    68423688.00000000 43375396.00000000 108953992.00000000 27526.86328125  2709914.00000000 2156621.50000000 
0.08000    67018644.00000000 42501488.00000000 106737608.00000000 26691.97460938  2639473.25000000 2100902.50000000 
0.08100    65631768.00000000 41637560.00000000 104548768.00000000 25875.13476562  2570229.25000000 2046125.87500000 
0.08200    64262656.00000000 40784820.00000000 102387656.00000000 25076.10742188  2502171.00000000 1992262.12500000 
0.08300    62911892.00000000 39943036.00000000 100254600.00000000 24295.62109375  2435349.50000000 1939361.50000000 
0.08400    61580144.00000000 39112796.00000000 98151128.00000000 23533.45507812  2369741.50000000 1887416.62500000 
0.08500    60267664.00000000 38293912.00000000 96077624.00000000 22789.86132812  2305390.50000000 1836449.50000000 
0.08600    58974636.00000000 37486968.00000000 94034136.00000000 22064.71289062  2242299.50000000 1786463.00000000 
0.08700    57701476.00000000 36691880.00000000 92021800.00000000 21358.20117188  2180475.75000000 1737471.50000000 
0.08800    56448288.00000000 35908848.00000000 90040656.00000000 20670.17187500  2119912.00000000 1689478.75000000 
0.08900    55215484.00000000 35138576.00000000 88091240.00000000 20000.76562500  2060658.62500000 1642487.62500000 
0.09000    54003276.00000000 34380308.00000000 86174048.00000000 19349.65625000  2002681.25000000 1596504.37500000 
0.09100    52812040.00000000 33634960.00000000 84289184.00000000 18716.96679688  1946011.62500000 1551541.62500000 
0.09200    51641572.00000000 32902350.00000000 82436696.00000000 18102.58007812  1890618.62500000 1507576.37500000 
0.09300    50492504.00000000 32182474.00000000 80617632.00000000 17506.47265625  1836540.12500000 1464646.12500000 
0.09400    49364396.00000000 31475538.00000000 78831496.00000000 16928.35937500  1783739.37500000 1422719.87500000 
0.09500    48257792.00000000 30781644.00000000 77078512.00000000 16367.91894531  1732238.12500000 1381807.12500000 
0.09600    47172264.00000000 30100760.00000000 75359136.00000000 15825.31250000  1682021.87500000 1341912.25000000 
0.09700    46108492.00000000 29432960.00000000 73672896.00000000 15300.19628906  1633092.00000000 1303013.62500000 
0.09800    45066248.00000000 28778216.00000000 72020296.00000000 14792.30078125  1585428.25000000 1265118.87500000 
0.09900    44045224.00000000 28136734.00000000 70402456.00000000 14301.52148438  1539038.37500000 1228223.12500000 
0.10000    43045784.00000000 27508246.00000000 68816904.00000000 13827.35253906  1493906.75000000 1192315.12500000 
0.10100    42067644.00000000 26892812.00000000 67264664.00000000 13369.76953125  1450016.25000000 1157379.25000000 
0.10200    41110628.00000000 26290670.00000000 65746304.00000000 12928.41503906  1407356.12500000 1123414.37500000 
0.10300    40175136.00000000 25701338.00000000 64261548.00000000 12502.84277344  1365918.37500000 1090402.62500000 
0.10400    39260832.00000000 25124958.00000000 62809288.00000000 12092.97851562  1325686.62500000 1058347.75000000 
0.10500    38367428.00000000 24561610.00000000 61390412.00000000 11698.43066406  1286650.62500000 1027235.25000000 
0.10600    37494724.00000000 24010962.00000000 60003800.00000000 11318.68750000  1248775.87500000 997034.31250000 
0.10700    36642776.00000000 23473128.00000000 58649548.00000000 10953.62597656  1212060.50000000 967751.87500000 
0.10800    35811364.00000000 22947832.00000000 57327748.00000000 10602.80273438  1176484.37500000 939368.06250000 
0.10900    35000244.00000000 22435066.00000000 56037504.00000000 10265.93164062  1142015.50000000 911861.56250000 
0.11000    34209188.00000000 21934710.00000000 54779284.00000000 9942.53613281   1108656.12500000 885226.25000000 
0.11100    33437898.00000000 21446460.00000000 53551948.00000000 9632.29882812   1076381.50000000 859438.31250000 
0.11200    32686052.00000000 20970394.00000000 52355460.00000000 9334.80859375   1045158.25000000 834488.06250000 
0.11300    31953884.00000000 20506298.00000000 51189012.00000000 9049.74609375   1014960.81250000 810348.81250000 
0.11400    31240564.00000000 20054070.00000000 50053140.00000000 8776.71679688   985786.18750000 787017.50000000 
0.11500    30545896.00000000 19613344.00000000 48946472.00000000 8515.35546875   957593.00000000 764462.62500000 
0.11600    29869956.00000000 19184220.00000000 47869336.00000000 8265.16796875   930359.31250000 742681.37500000 
0.11700    29212138.00000000 18766214.00000000 46820164.00000000 8025.83447266   904081.50000000 721639.12500000 
0.11800    28572004.00000000 18359410.00000000 45799624.00000000 7796.93017578   878714.81250000 701326.00000000 
0.11900    27949418.00000000 17963364.00000000 44806300.00000000 7578.10839844   854238.00000000 681719.50000000 
0.12000    27343952.00000000 17578176.00000000 43840048.00000000 7368.94238281   830632.06250000 662802.31250000 
0.12100    26755488.00000000 17203342.00000000 42900888.00000000 7169.11962891   807870.43750000 644562.68750000 
0.12200    26183410.00000000 16838866.00000000 41987660.00000000 6978.21630859   785932.81250000 626965.43750000 
0.12300    25627662.00000000 16484523.00000000 41100040.00000000 6795.84765625   764785.25000000 610007.87500000 
0.12400    25087370.00000000 16139933.00000000 40236848.00000000 6621.58691406   744406.62500000 593655.12500000 
0.12500    24562530.00000000 15804956.00000000 39398368.00000000 6455.12500000   724771.12500000 577895.87500000 
0.12600    24053162.00000000 15479541.00000000 38584008.00000000 6296.15966797   705860.93750000 562715.81250000 
0.12700    23558058.00000000 15163184.00000000 37792324.00000000 6144.22265625   687637.56250000 548081.31250000 
0.12800    23077568.00000000 14855810.00000000 37023432.00000000 5999.01953125   670092.37500000 533986.87500000 
0.12900    22610764.00000000 14557276.00000000 36276828.00000000 5860.16552734   653186.93750000 520407.06250000 
0.13000    22157454.00000000 14267226.00000000 35551648.00000000 5727.39501953   636908.87500000 507322.09375000 
0.13100    21717488.00000000 13985446.00000000 34847072.00000000 5600.27050781   621219.50000000 494712.96875000 
0.13200    21290120.00000000 13711786.00000000 34162972.00000000 5478.55908203   606103.18750000 482562.96875000 
0.13300    20875256.00000000 13445922.00000000 33498778.00000000 5361.98388672   591545.25000000 470858.87500000 
0.13400    20472440.00000000 13187646.00000000 32853706.00000000 5250.14648438   577501.06250000 459572.59375000 
0.13500    20081314.00000000 12936803.00000000 32227052.00000000 5142.76171875   563977.62500000 448687.53125000 
0.13600    19701480.00000000 12693115.00000000 31618466.00000000 5039.60742188   550923.06250000 438192.28125000 
0.13700    19332488.00000000 12456237.00000000 31027290.00000000 4940.37597656   538330.87500000 428068.78125000 
0.13800    18974054.00000000 12226151.00000000 30452712.00000000 4844.77246094   526181.00000000 418295.96875000 
0.13900    18625864.00000000 12002584.00000000 29894644.00000000 4752.60253906   514444.06250000 408858.90625000 
0.14000    18287548.00000000 11785218.00000000 29352272.00000000 4663.59326172   503106.62500000 399744.56250000 
0.14100    17958680.00000000 11573892.00000000 28825062.00000000 4577.54687500   492147.12500000 390932.84375000 
0.14200    17639092.00000000 11368456.00000000 28312376.00000000 4494.17919922   481548.71875000 382410.12500000 
0.14300    17328126.00000000 11168640.00000000 27814000.00000000 4413.32812500   471284.68750000 374162.15625000 
0.14400    17025594.00000000 10974255.00000000 27328846.00000000 4334.76123047   461340.12500000 366171.81250000 
0.14500    16731341.00000000 10785027.00000000 26856988.00000000 4258.31201172   451702.46875000 358430.09375000 
0.14600    16444846.00000000 10600887.00000000 26397420.00000000 4183.76660156   442353.93750000 350921.43750000 
0.14700    16165913.00000000 10421551.00000000 25950192.00000000 4111.00585938   433274.90625000 343633.37500000 
0.14800    15894039.00000000 10246840.00000000 25514372.00000000 4039.85034180   424449.12500000 336550.06250000 
0.14900    15629207.00000000 10076527.00000000 25089536.00000000 3970.11230469   415861.31250000 329660.00000000 
0.15000    15370892.00000000 9910501.00000000 24675420.00000000 3901.71093750   407500.06250000 322952.75000000 
0.15100    15118859.00000000 9748563.00000000 24271346.00000000 3834.49072266   399347.68750000 316418.84375000 
0.15200    14872965.00000000 9590622.00000000 23877310.00000000 3768.36987305   391396.28125000 310048.65625000 
0.15300    14632805.00000000 9436365.00000000 23492290.00000000 3703.17675781   383630.18750000 303829.28125000 
0.15400    14398120.00000000 9285684.00000000 23116034.00000000 3638.83032227   376032.28125000 297748.18750000 
0.15500    14168749.00000000 9138368.00000000 22748574.00000000 3575.28857422   368599.68750000 291801.09375000 
0.15600    13944339.00000000 8994395.00000000 22388900.00000000 3512.40234375   361316.53125000 285977.50000000 
0.15700    13724745.00000000 8853548.00000000 22037372.00000000 3450.16552734   354178.28125000 280270.46875000 
0.15800    13509683.00000000 8715548.00000000 21692846.00000000 3388.45410156   347163.84375000 274667.65625000 
0.15900    13299041.00000000 8580521.00000000 21355470.00000000 3327.25659180   340275.15625000 269170.46875000 
0.16000    13092389.00000000 8448115.00000000 21024640.00000000 3266.50659180   333498.12500000 263760.28125000 
0.16100    12889809.00000000 8318363.50000000 20700366.00000000 3206.16381836   326828.50000000 258443.68750000 
0.16200    12690917.00000000 8191004.00000000 20382146.00000000 3146.22753906   320260.21875000 253206.15625000 
0.16300    12495488.00000000 8066040.00000000 20069570.00000000 3086.60937500   313779.62500000 248044.37500000 
0.16400    12303564.00000000 7943219.00000000 19762684.00000000 3027.36132812   307389.75000000 242952.81250000 
0.16500    12114782.00000000 7822563.50000000 19460888.00000000 2968.40356445   301076.12500000 237929.26562500 
0.16600    11929157.00000000 7703950.50000000 19163906.00000000 2909.77612305   294838.75000000 232965.73437500 
0.16700    11746313.00000000 7587199.50000000 18871854.00000000 2851.45117188   288671.96875000 228059.03125000 
0.16800    11566280.00000000 7472258.00000000 18584164.00000000 2793.44409180   282570.87500000 223207.40625000 
0.16900    11388992.00000000 7359162.50000000 18300992.00000000 2735.78466797   276534.96875000 218408.23437500 
0.17000    11214091.00000000 7247665.00000000 18021674.00000000 2678.42187500   270555.93750000 213658.57812500 
