# SAXS profile: number of points = 501, q_min = 0, q_max = 0.5, delta_q = 0.001
#    q    intensity 
0.00000    162229840.00000000 101201528.00000000 256269744.00000000 101250.57812500 8105997.50000000 6402103.50000000 
0.00100    162198384.00000000 101179168.00000000 256212816.00000000 101217.16406250 8103803.50000000 6400361.00000000 
0.00200    162096000.00000000 101111440.00000000 256042432.00000000 101120.10156250 8097061.50000000 6395043.00000000 
0.00300    161916928.00000000 100999544.00000000 255754752.00000000 100958.61718750 8085881.00000000 6386299.50000000 
0.00400    161659664.00000000 100841960.00000000 255352752.00000000 100732.95312500 8070300.50000000 6374063.00000000 
0.00500    161326592.00000000 100640016.00000000 254835600.00000000 100442.88281250 8050291.00000000 6358387.50000000 
0.00600    160924784.00000000 100393888.00000000 254206944.00000000 100090.26562500 8025912.50000000 6339244.50000000 
0.00700    160446352.00000000 100103896.00000000 253468944.00000000 99676.00781250  7997272.50000000 6316778.50000000 
0.00800    159902400.00000000 99771672.00000000 252619120.00000000 99200.67187500  7964387.00000000 6290949.00000000 
0.00900    159290704.00000000 99398208.00000000 251659952.00000000 98665.18750000  7927261.50000000 6261875.50000000 
0.01000    158611280.00000000 98981312.00000000 250594416.00000000 98070.88281250  7886119.50000000 6229560.50000000 
0.01100    157865232.00000000 98521984.00000000 249421936.00000000 97419.02343750  7840954.00000000 6194103.50000000 
0.01200    157048688.00000000 98022032.00000000 248146496.00000000 96711.50000000  7791802.50000000 6155575.00000000 
0.01300    156169136.00000000 97483120.00000000 246770432.00000000 95950.83593750  7738927.00000000 6113994.50000000 
0.01400    155228432.00000000 96905944.00000000 245294496.00000000 95137.04687500  7682219.50000000 6069571.50000000 
0.01500    154225648.00000000 96290624.00000000 243725072.00000000 94272.33593750  7621996.50000000 6022293.50000000 
0.01600    153162000.00000000 95639112.00000000 242059696.00000000 93359.45312500  7558270.00000000 5972245.50000000 
0.01700    152040704.00000000 94950848.00000000 240302576.00000000 92400.96875000  7491264.50000000 5919575.50000000 
0.01800    150862544.00000000 94228032.00000000 238458192.00000000 91397.31250000  7420929.50000000 5864419.50000000 
0.01900    149632992.00000000 93472912.00000000 236529856.00000000 90351.57031250  7347571.50000000 5806798.50000000 
0.02000    148347376.00000000 92685120.00000000 234517968.00000000 89266.44531250  7271272.50000000 5746897.00000000 
0.02100    147015616.00000000 91866616.00000000 232426336.00000000 88144.00000000  7192227.50000000 5684802.50000000 
0.02200    145633536.00000000 91017608.00000000 230260928.00000000 86985.55468750  7110527.00000000 5620608.50000000 
0.02300    144206048.00000000 90140616.00000000 228023600.00000000 85795.24218750  7026284.00000000 5554431.50000000 
0.02400    142735712.00000000 89235976.00000000 225717392.00000000 84574.57812500  6939754.50000000 5486405.50000000 
0.02500    141223520.00000000 88306248.00000000 223345808.00000000 83325.82031250  6850988.00000000 5416707.50000000 
0.02600    139671536.00000000 87351440.00000000 220911776.00000000 82052.38281250  6760291.50000000 5345408.50000000 
0.02700    138084080.00000000 86375232.00000000 218421664.00000000 80756.04687500  6667733.00000000 5272586.50000000 
0.02800    136462944.00000000 85377576.00000000 215876976.00000000 79439.31250000  6573388.00000000 5198490.00000000 
0.02900    134810256.00000000 84358488.00000000 213282624.00000000 78105.39843750  6477587.50000000 5123186.00000000 
0.03000    133127152.00000000 83321560.00000000 210640176.00000000 76756.31250000  6380395.00000000 5046711.50000000 
0.03100    131417680.00000000 82268056.00000000 207954144.00000000 75394.57812500  6281959.00000000 4969327.00000000 
0.03200    129682768.00000000 81198712.00000000 205231600.00000000 74022.10937500  6182524.00000000 4891084.00000000 
0.03300    127926400.00000000 80116104.00000000 202472816.00000000 72641.39843750  6082168.00000000 4812124.00000000 
0.03400    126150120.00000000 79019632.00000000 199681600.00000000 71255.23437500  5981052.00000000 4732577.50000000 
0.03500    124356448.00000000 77912544.00000000 196862880.00000000 69866.63281250  5879364.50000000 4652489.50000000 
0.03600    122547608.00000000 76795424.00000000 194019440.00000000 68476.34375000  5777193.50000000 4572106.00000000 
0.03700    120725992.00000000 75668856.00000000 191154416.00000000 67086.38281250  5674768.00000000 4491440.00000000 
0.03800    118893392.00000000 74535800.00000000 188273280.00000000 65699.64062500  5572142.50000000 4410615.50000000 
0.03900    117052776.00000000 73397320.00000000 185378000.00000000 64318.13671875  5469537.00000000 4329779.50000000 
0.04000    115206232.00000000 72254472.00000000 182471360.00000000 62943.28125000  5367022.50000000 4249022.50000000 
0.04100    113356168.00000000 71108608.00000000 179557968.00000000 61576.68359375  5264740.50000000 4168439.25000000 
0.04200    111503264.00000000 69960928.00000000 176642192.00000000 60221.31250000  5162790.00000000 4088084.25000000 
0.04300    109651600.00000000 68812880.00000000 173723456.00000000 58877.37500000  5061405.00000000 4008130.25000000 
0.04400    107800936.00000000 67665520.00000000 170810112.00000000 57547.25390625  4960557.00000000 3928628.25000000 
0.04500    105955384.00000000 66518640.00000000 167901008.00000000 56232.10937500  4860456.00000000 3849647.00000000 
0.04600    104114256.00000000 65375960.00000000 165000304.00000000 54933.02734375  4761160.00000000 3771303.00000000 
0.04700    102282000.00000000 64237056.00000000 162111216.00000000 53651.44531250  4662741.50000000 3693645.50000000 
0.04800    100458312.00000000 63103884.00000000 159235600.00000000 52388.72265625  4565347.50000000 3616747.50000000 
0.04900    98646744.00000000 61976744.00000000 156378032.00000000 51145.71093750  4468981.50000000 3540685.00000000 
0.05000    96846744.00000000 60856744.00000000 153538528.00000000 49923.35156250  4373781.50000000 3465540.25000000 
0.05100    95060488.00000000 59744924.00000000 150720944.00000000 48721.97656250  4279868.00000000 3391335.25000000 
0.05200    93290312.00000000 58641816.00000000 147925200.00000000 47542.99609375  4187178.50000000 3318141.75000000 
0.05300    91536000.00000000 57548876.00000000 145157312.00000000 46387.05468750  4095867.50000000 3245988.25000000 
0.05400    89800224.00000000 56466476.00000000 142415280.00000000 45254.04296875  4005987.25000000 3174944.00000000 
0.05500    88084232.00000000 55395864.00000000 139703328.00000000 44145.01562500  3917582.25000000 3105045.50000000 
0.05600    86388048.00000000 54337064.00000000 137023584.00000000 43059.95703125  3830648.75000000 3036303.75000000 
0.05700    84713528.00000000 53291304.00000000 134377312.00000000 41999.25390625  3745284.75000000 2968784.75000000 
0.05800    83060632.00000000 52258448.00000000 131763528.00000000 40963.40234375  3661481.00000000 2902488.50000000 
0.05900    81431280.00000000 51240124.00000000 129187048.00000000 39951.99218750  3579281.00000000 2837442.75000000 
0.06000    79825704.00000000 50235652.00000000 126647304.00000000 38965.43359375  3498739.25000000 2773679.00000000 
0.06100    78244584.00000000 49246208.00000000 124146304.00000000 38003.28515625  3419819.25000000 2711187.25000000 
0.06200    76689576.00000000 48272320.00000000 121684680.00000000 37066.03515625  3342530.75000000 2650012.00000000 
0.06300    75159968.00000000 47314316.00000000 119263216.00000000 36152.63671875  3266935.25000000 2590142.50000000 
0.06400    73655984.00000000 46371976.00000000 116882824.00000000 35264.00000000  3193002.75000000 2531557.75000000 
0.06500    72179432.00000000 45446292.00000000 114544640.00000000 34398.48828125  3120734.00000000 2474299.25000000 
0.06600    70730640.00000000 44537180.00000000 112248440.00000000 33556.77734375  3050118.50000000 2418341.50000000 
0.06700    69308448.00000000 43645088.00000000 109996088.00000000 32738.03710938  2981189.00000000 2363706.25000000 
0.06800    67913024.00000000 42769664.00000000 107786952.00000000 31942.29687500  2913873.50000000 2310321.00000000 
0.06900    66547392.00000000 41912280.00000000 105621200.00000000 31168.66601562  2848201.00000000 2258271.25000000 
0.07000    65208824.00000000 41071504.00000000 103499872.00000000 30417.09375000  2784119.50000000 2207461.00000000 
0.07100    63898356.00000000 40248364.00000000 101422176.00000000 29686.29882812  2721663.75000000 2157900.25000000 
0.07200    62616008.00000000 39442620.00000000 99388840.00000000 28976.45117188  2660751.00000000 2109610.25000000 
0.07300    61361408.00000000 38654480.00000000 97400552.00000000 28286.56054688  2601418.00000000 2062518.25000000 
0.07400    60134728.00000000 37883504.00000000 95455472.00000000 27616.48046875  2543587.00000000 2016631.12500000 
0.07500    58936484.00000000 37130320.00000000 93554624.00000000 26965.09375000  2487230.50000000 1971916.87500000 
0.07600    57765204.00000000 36393716.00000000 91697392.00000000 26332.23046875  2432299.50000000 1928352.25000000 
0.07700    56621824.00000000 35674832.00000000 89884008.00000000 25717.22460938  2378874.00000000 1885948.75000000 
0.07800    55505560.00000000 34973132.00000000 88113432.00000000 25119.59570312  2326811.00000000 1844637.00000000 
0.07900    54415600.00000000 34288204.00000000 86385840.00000000 24538.34765625  2276116.75000000 1804399.00000000 
0.08000    53353128.00000000 33619940.00000000 84699688.00000000 23973.18554688  2226752.00000000 1765230.50000000 
0.08100    52316516.00000000 32968824.00000000 83056256.00000000 23423.39257812  2178674.50000000 1727087.00000000 
0.08200    51305812.00000000 32333500.00000000 81453848.00000000 22888.67382812  2131874.75000000 1689941.87500000 
0.08300    50320720.00000000 31714686.00000000 79891312.00000000 22368.10742188  2086312.37500000 1653781.25000000 
0.08400    49360644.00000000 31111572.00000000 78369672.00000000 21861.43359375  2041925.12500000 1618559.75000000 
0.08500    48424936.00000000 30523970.00000000 76886384.00000000 21368.00976562  1998703.00000000 1584271.75000000 
0.08600    47513908.00000000 29951862.00000000 75442544.00000000 20887.27148438  1956584.87500000 1550864.00000000 
0.08700    46626456.00000000 29394778.00000000 74036080.00000000 20418.89648438  1915571.62500000 1518333.62500000 
0.08800    45762268.00000000 28852446.00000000 72667344.00000000 19962.29101562  1875623.25000000 1486642.12500000 
0.08900    44920968.00000000 28324950.00000000 71334272.00000000 19517.12109375  1836685.87500000 1455773.50000000 
0.09000    44101736.00000000 27811436.00000000 70036344.00000000 19082.79492188  1798742.87500000 1425690.62500000 
0.09100    43304332.00000000 27311836.00000000 68774480.00000000 18658.96093750  1761760.12500000 1396386.00000000 
0.09200    42528060.00000000 26825730.00000000 67546464.00000000 18245.52343750  1725711.12500000 1367815.00000000 
0.09300    41772872.00000000 26353226.00000000 66350804.00000000 17841.79296875  1690555.50000000 1339954.25000000 
0.09400    41037648.00000000 25893084.00000000 65188084.00000000 17447.36523438  1656270.12500000 1312797.62500000 
0.09500    40322180.00000000 25446090.00000000 64056532.00000000 17062.00195312  1622824.00000000 1286317.00000000 
0.09600    39625708.00000000 25011058.00000000 62955412.00000000 16685.53515625  1590205.25000000 1260480.25000000 
0.09700    38948132.00000000 24588090.00000000 61884132.00000000 16317.74316406  1558359.12500000 1235280.12500000 
0.09800    38288280.00000000 24176630.00000000 60842504.00000000 15958.16796875  1527295.00000000 1210682.25000000 
0.09900    37646356.00000000 23776528.00000000 59828348.00000000 15606.58789062  1496963.50000000 1186691.75000000 
0.10000    37020888.00000000 23387300.00000000 58841472.00000000 15262.71679688  1467347.62500000 1163254.75000000 
0.10100    36412664.00000000 23008624.00000000 57880940.00000000 14926.61425781  1438412.75000000 1140379.50000000 
0.10200    35820140.00000000 22640100.00000000 56946400.00000000 14597.65820312  1410150.12500000 1118038.25000000 
0.10300    35242732.00000000 22281582.00000000 56036464.00000000 14276.08593750  1382555.37500000 1096223.25000000 
0.10400    34680912.00000000 21932672.00000000 55150576.00000000 13961.37890625  1355565.50000000 1074889.37500000 
0.10500    34133048.00000000 21592876.00000000 54287716.00000000 13653.68164062  1329210.75000000 1054065.12500000 
0.10600    33599440.00000000 21262278.00000000 53447172.00000000 13352.71582031  1303436.12500000 1033700.87500000 
0.10700    33079296.00000000 20939956.00000000 52628376.00000000 13058.24707031  1278236.62500000 1013793.93750000 
0.10800    32572108.00000000 20626096.00000000 51829716.00000000 12770.19042969  1253592.25000000 994337.56250000 
0.10900    32077472.00000000 20320476.00000000 51051820.00000000 12488.48535156  1229488.62500000 975303.18750000 
0.11000    31594758.00000000 20022074.00000000 50292832.00000000 12212.93750000  1205909.25000000 956703.06250000 
0.11100    31123660.00000000 19731248.00000000 49552536.00000000 11943.44433594  1182838.62500000 938490.56250000 
0.11200    30663714.00000000 19447466.00000000 48830048.00000000 11679.89062500  1160264.12500000 920671.50000000 
0.11300    30214606.00000000 19170508.00000000 48123960.00000000 11422.07617188  1138171.87500000 903228.62500000 
0.11400    29775834.00000000 18900174.00000000 47434496.00000000 11170.17871094  1116534.00000000 886163.43750000 
0.11500    29346662.00000000 18635850.00000000 46761404.00000000 10923.74902344  1095358.75000000 869450.12500000 
0.11600    28927204.00000000 18377654.00000000 46102816.00000000 10682.85644531  1074620.37500000 853090.93750000 
0.11700    28516734.00000000 18125176.00000000 45458376.00000000 10447.42480469  1054310.87500000 837062.56250000 
0.11800    28114958.00000000 17877880.00000000 44827944.00000000 10217.15234375  1034403.87500000 821363.06250000 
0.11900    27721434.00000000 17635794.00000000 44210492.00000000 9992.10253906   1014893.56250000 805975.56250000 
0.12000    27335658.00000000 17398610.00000000 43605160.00000000 9772.07910156   995772.00000000 790889.75000000 
0.12100    26957586.00000000 17166088.00000000 43012040.00000000 9557.10937500   977040.62500000 776102.50000000 
0.12200    26586722.00000000 16938142.00000000 42430240.00000000 9346.87011719   958671.56250000 761604.43750000 
0.12300    26222598.00000000 16714294.00000000 41859048.00000000 9141.45410156   940652.25000000 747383.62500000 
0.12400    25864978.00000000 16494479.00000000 41297876.00000000 8940.42089844   922969.12500000 733425.37500000 
0.12500    25513388.00000000 16278333.00000000 40746752.00000000 8743.98632812   905615.50000000 719729.31250000 
0.12600    25167830.00000000 16065816.00000000 40205148.00000000 8552.01855469   888596.00000000 706291.37500000 
0.12700    24828114.00000000 15856694.00000000 39671156.00000000 8364.10449219   871870.75000000 693078.25000000 
0.12800    24493424.00000000 15650652.00000000 39145740.00000000 8180.34228516   855444.68750000 680105.87500000 
0.12900    24163620.00000000 15447781.00000000 38628144.00000000 8000.63281250   839315.18750000 667359.93750000 
0.13000    23838530.00000000 15247423.00000000 38117844.00000000 7824.74365234   823456.56250000 654824.56250000 
0.13100    23517940.00000000 15049927.00000000 37614404.00000000 7652.57470703   807863.56250000 642502.93750000 
0.13200    23201726.00000000 14854649.00000000 37117348.00000000 7484.03466797   792527.93750000 630377.18750000 
0.13300    22889508.00000000 14661923.00000000 36626032.00000000 7318.97265625   777446.31250000 618444.75000000 
0.13400    22580810.00000000 14471317.00000000 36140980.00000000 7157.30029297   762601.50000000 606696.25000000 
0.13500    22275928.00000000 14282694.00000000 35661548.00000000 6998.81982422   747985.87500000 595128.56250000 
0.13600    21974176.00000000 14096011.00000000 35186464.00000000 6843.52539062   733587.93750000 583729.93750000 
0.13700    21675646.00000000 13911176.00000000 34716516.00000000 6691.25781250   719401.75000000 572490.25000000 
0.13800    21379974.00000000 13727829.00000000 34250788.00000000 6541.80664062   705424.25000000 561412.68750000 
0.13900    21087258.00000000 13546148.00000000 33789304.00000000 6395.24462891   691640.50000000 550486.31250000 
0.14000    20797230.00000000 13365869.00000000 33332074.00000000 6251.40429688   678056.81250000 539713.93750000 
0.14100    20509522.00000000 13187052.00000000 32878350.00000000 6110.11816406   664639.62500000 529068.68750000 
0.14200    20224212.00000000 13009439.00000000 32427896.00000000 5971.33496094   651404.00000000 518565.62500000 
0.14300    19941136.00000000 12833058.00000000 31981014.00000000 5834.98535156   638339.00000000 508190.40625000 
0.14400    19660136.00000000 12657745.00000000 31537046.00000000 5700.93310547   625429.93750000 497936.37500000 
0.14500    19381230.00000000 12483513.00000000 31096090.00000000 5569.21582031   612684.06250000 487808.25000000 
0.14600    19104252.00000000 12310279.00000000 30658192.00000000 5439.69042969   600093.25000000 477794.65625000 
0.14700    18829102.00000000 12138145.00000000 30222664.00000000 5312.29736328   587650.31250000 467898.09375000 
0.14800    18555736.00000000 11966881.00000000 29789792.00000000 5186.90917969   575341.37500000 458105.53125000 
0.14900    18284186.00000000 11796430.00000000 29359350.00000000 5063.60742188   563175.31250000 448424.03125000 
0.15000    18014126.00000000 11626854.00000000 28931452.00000000 4942.28369141   551149.56250000 438845.37500000 
0.15100    17745730.00000000 11458098.00000000 28505762.00000000 4822.87207031   539249.87500000 429366.18750000 
0.15200    17479036.00000000 11290246.00000000 28082768.00000000 4705.39843750   527488.06250000 419994.81250000 
0.15300    17213988.00000000 11123142.00000000 27661644.00000000 4589.80371094   515856.40625000 410715.53125000 
0.15400    16950312.00000000 10956928.00000000 27242822.00000000 4476.03125000   504345.56250000 401539.09375000 
0.15500    16688375.00000000 10791505.00000000 26826282.00000000 4364.15332031   492962.53125000 392458.25000000 
0.15600    16427944.00000000 10626798.00000000 26412160.00000000 4254.11474609   481704.62500000 383472.31250000 
0.15700    16169038.00000000 10463091.00000000 26000414.00000000 4145.94189453   470581.28125000 374587.78125000 
0.15800    15911726.00000000 10300156.00000000 25590588.00000000 4039.50732422   459571.18750000 365792.84375000 
0.15900    15656061.00000000 10138071.00000000 25183678.00000000 3934.99511719   448691.15625000 357100.65625000 
0.16000    15401934.00000000 9976864.00000000 24778938.00000000 3832.29199219   437935.62500000 348502.75000000 
0.16100    15149549.00000000 9816759.00000000 24376738.00000000 3731.53442383   427312.09375000 340006.68750000 
0.16200    14898946.00000000 9657423.00000000 23977340.00000000 3632.57788086   416814.50000000 331609.03125000 
0.16300    14650064.00000000 9499206.00000000 23580220.00000000 3535.49511719   406444.40625000 323314.34375000 
0.16400    14403156.00000000 9341934.00000000 23185942.00000000 3440.42065430   396210.03125000 315121.71875000 
0.16500    14158044.00000000 9185776.00000000 22794920.00000000 3347.22607422   386111.40625000 307031.96875000 
0.16600    13914938.00000000 9030813.00000000 22406478.00000000 3255.99218750   376144.68750000 299048.15625000 
0.16700    13673614.00000000 8876826.00000000 22021252.00000000 3166.73876953   366320.78125000 291176.75000000 
0.16800    13434618.00000000 8724133.00000000 21639020.00000000 3079.46508789   356630.81250000 283410.71875000 
0.16900    13197703.00000000 8572760.00000000 21260278.00000000 2994.26831055   347089.15625000 275759.78125000 
0.17000    12962940.00000000 8422615.00000000 20884756.00000000 2911.08349609   337693.53125000 268223.53125000 
