# SAXS profile: number of points = 501, q_min = 0, q_max = 0.5, delta_q = 0.001
#    q    intensity 
0.00000    162234272.00000000 101201840.00000000 256271120.00000000 102838.31250000 8169306.50000000 6452110.50000000 
0.00100    162201360.00000000 101180568.00000000 256216640.00000000 102809.92187500 8167348.00000000 6450545.50000000 
0.00200    162101744.00000000 101116568.00000000 256052848.00000000 102726.45312500 8161344.50000000 6445863.00000000 
0.00300    161931616.00000000 101010136.00000000 255782512.00000000 102587.28906250 8151430.50000000 6438065.00000000 
0.00400    161690640.00000000 100860600.00000000 255402272.00000000 102392.74218750 8137569.00000000 6427144.50000000 
0.00500    161378848.00000000 100669152.00000000 254916928.00000000 102141.98437500 8119718.50000000 6413131.00000000 
0.00600    160998496.00000000 100434992.00000000 254320800.00000000 101837.28125000 8098056.50000000 6396065.00000000 
0.00700    160553872.00000000 100160168.00000000 253620864.00000000 101478.13281250 8072487.00000000 6375968.00000000 
0.00800    160037584.00000000 99844432.00000000 252816576.00000000 101066.51562500 8043131.50000000 6352834.00000000 
0.00900    159458752.00000000 99487528.00000000 251907824.00000000 100601.31250000 8009985.00000000 6326798.00000000 
0.01000    158815824.00000000 99091112.00000000 250896608.00000000 100084.86718750 7973178.50000000 6297821.50000000 
0.01100    158109152.00000000 98654608.00000000 249785952.00000000 99517.26562500  7932642.50000000 6265996.00000000 
0.01200    157339488.00000000 98178936.00000000 248574176.00000000 98900.24218750  7888575.00000000 6231324.50000000 
0.01300    156507840.00000000 97664816.00000000 247265136.00000000 98234.19531250  7841031.00000000 6193911.50000000 
0.01400    155612352.00000000 97112824.00000000 245861552.00000000 97520.67968750  7789975.50000000 6153774.50000000 
0.01500    154659088.00000000 96524920.00000000 244365104.00000000 96761.24218750  7735651.50000000 6111030.00000000 
0.01600    153649136.00000000 95901088.00000000 242776544.00000000 95956.96093750  7677999.00000000 6065684.00000000 
0.01700    152581632.00000000 95242712.00000000 241099232.00000000 95108.96875000  7617248.50000000 6017861.00000000 
0.01800    151459840.00000000 94549112.00000000 239335344.00000000 94219.56250000  7553386.50000000 5967667.00000000 
0.01900    150284064.00000000 93823312.00000000 237487920.00000000 93289.35156250  7486586.50000000 5915104.00000000 
0.02000    149057264.00000000 93065480.00000000 235558240.00000000 92320.21875000  7416908.00000000 5860271.00000000 
0.02100    147779888.00000000 92277296.00000000 233550992.00000000 91314.90625000  7344489.00000000 5803299.50000000 
0.02200    146453552.00000000 91458608.00000000 231468080.00000000 90273.58593750  7269424.00000000 5744237.00000000 
0.02300    145082704.00000000 90610952.00000000 229311872.00000000 89198.94531250  7191873.00000000 5683201.50000000 
0.02400    143666304.00000000 89736368.00000000 227085344.00000000 88092.41406250  7111927.50000000 5620281.00000000 
0.02500    142208960.00000000 88835584.00000000 224793424.00000000 86955.97656250  7029659.50000000 5555561.00000000 
0.02600    140710448.00000000 87908960.00000000 222437200.00000000 85791.71093750  6945268.50000000 5489109.00000000 
0.02700    139173696.00000000 86958984.00000000 220019472.00000000 84601.00781250  6858863.50000000 5421107.00000000 
0.02800    137601552.00000000 85986072.00000000 217546816.00000000 83386.07812500  6770525.50000000 5351592.50000000 
0.02900    135993888.00000000 84992072.00000000 215018352.00000000 82148.92968750  6680452.50000000 5280678.50000000 
0.03000    134353920.00000000 83977984.00000000 212441584.00000000 80890.96093750  6588760.00000000 5208489.00000000 
0.03100    132685056.00000000 82945272.00000000 209814208.00000000 79615.04687500  6495542.00000000 5135082.50000000 
0.03200    130988280.00000000 81895816.00000000 207145424.00000000 78322.28906250  6400936.50000000 5060546.00000000 
0.03300    129265992.00000000 80829544.00000000 204435280.00000000 77015.31250000  6305068.50000000 4985098.50000000 
0.03400    127520128.00000000 79748808.00000000 201687440.00000000 75695.20312500  6208125.50000000 4908715.00000000 
0.03500    125753040.00000000 78654184.00000000 198906144.00000000 74364.69531250  6110188.50000000 4831599.00000000 
0.03600    123967472.00000000 77548928.00000000 196095456.00000000 73025.10156250  6011396.50000000 4753769.00000000 
0.03700    122164504.00000000 76432552.00000000 193258816.00000000 71678.65625000  5911888.00000000 4675383.00000000 
0.03800    120346848.00000000 75307352.00000000 190396816.00000000 70327.10937500  5811756.00000000 4596539.50000000 
0.03900    118516720.00000000 74172920.00000000 187516208.00000000 68971.86718750  5711198.00000000 4517287.50000000 
0.04000    116675496.00000000 73031920.00000000 184616080.00000000 67615.15625000  5610279.50000000 4437751.00000000 
0.04100    114827032.00000000 71885544.00000000 181704944.00000000 66258.42968750  5509131.50000000 4358067.50000000 
0.04200    112971584.00000000 70734392.00000000 178782368.00000000 64903.09765625  5407874.00000000 4278213.00000000 
0.04300    111110896.00000000 69580744.00000000 175852096.00000000 63551.41406250  5306623.00000000 4198406.50000000 
0.04400    109249184.00000000 68425016.00000000 172917872.00000000 62204.87890625  5205485.50000000 4118651.75000000 
0.04500    107385880.00000000 67268864.00000000 169983696.00000000 60864.35156250  5104574.50000000 4039117.75000000 
0.04600    105525160.00000000 66113272.00000000 167050752.00000000 59531.87500000  5004009.50000000 3959801.25000000 
0.04700    103666696.00000000 64960216.00000000 164122896.00000000 58208.56640625  4903891.50000000 3880881.50000000 
0.04800    101814800.00000000 63809172.00000000 161201728.00000000 56895.79296875  4804379.00000000 3802339.50000000 
0.04900    99968784.00000000 62662740.00000000 158291232.00000000 55595.38671875  4705409.00000000 3724304.00000000 
0.05000    98131928.00000000 61521428.00000000 155394528.00000000 54308.01953125  4607231.50000000 3646832.50000000 
0.05100    96304680.00000000 60385536.00000000 152514288.00000000 53034.97265625  4509809.00000000 3570007.75000000 
0.05200    94489496.00000000 59256876.00000000 149651552.00000000 51777.32812500  4413381.00000000 3493897.75000000 
0.05300    92687544.00000000 58136128.00000000 146809232.00000000 50535.71875000  4317897.00000000 3418517.25000000 
0.05400    90899936.00000000 57024724.00000000 143990064.00000000 49311.67968750  4223485.50000000 3343998.00000000 
0.05500    89129624.00000000 55922752.00000000 141196288.00000000 48106.01562500  4130174.50000000 3270345.75000000 
0.05600    87375960.00000000 54831436.00000000 138429920.00000000 46919.34375000  4038083.50000000 3197661.00000000 
0.05700    85641544.00000000 53751528.00000000 135693440.00000000 45752.17968750  3947249.25000000 3125933.00000000 
0.05800    83927840.00000000 52683664.00000000 132987304.00000000 44605.43359375  3857746.75000000 3055257.50000000 
0.05900    82234024.00000000 51629036.00000000 130314216.00000000 43479.54296875  3769611.00000000 2985649.75000000 
0.06000    80562504.00000000 50587756.00000000 127675912.00000000 42375.92968750  3682880.75000000 2917164.00000000 
0.06100    78914736.00000000 49560452.00000000 125073968.00000000 41293.89062500  3597630.25000000 2849806.50000000 
0.06200    77290424.00000000 48548404.00000000 122509528.00000000 40234.32812500  3513911.25000000 2783657.75000000 
0.06300    75691888.00000000 47551352.00000000 119984896.00000000 39197.43750000  3431697.50000000 2718737.50000000 
0.06400    74118208.00000000 46570320.00000000 117498760.00000000 38183.52734375  3351068.25000000 2655021.25000000 
0.06500    72572120.00000000 45605432.00000000 115055824.00000000 37193.03515625  3272060.50000000 2592566.00000000 
0.06600    71051896.00000000 44657176.00000000 112655040.00000000 36225.77734375  3194644.25000000 2531390.00000000 
0.06700    69559448.00000000 43725840.00000000 110297192.00000000 35282.18750000  3118895.25000000 2471504.50000000 
0.06800    68096104.00000000 42811868.00000000 107984496.00000000 34361.90625000  3044797.50000000 2412913.75000000 
0.06900    66660600.00000000 41915880.00000000 105715736.00000000 33465.45703125  2972355.75000000 2355671.00000000 
0.07000    65254068.00000000 41037576.00000000 103493216.00000000 32591.68554688  2901612.75000000 2299713.00000000 
0.07100    63877224.00000000 40177216.00000000 101316328.00000000 31741.87695312  2832535.75000000 2245078.25000000 
0.07200    62529472.00000000 39335456.00000000 99185688.00000000 30914.72656250  2765127.75000000 2191779.75000000 
0.07300    61211648.00000000 38511832.00000000 97101928.00000000 30110.72656250  2699407.75000000 2139814.25000000 
0.07400    59923684.00000000 37706968.00000000 95066120.00000000 29329.34570312  2635349.00000000 2089128.50000000 
0.07500    58665776.00000000 36920720.00000000 93076680.00000000 28570.22460938  2572937.25000000 2039766.25000000 
0.07600    57437432.00000000 36152888.00000000 91134544.00000000 27833.45312500  2512207.50000000 1991709.62500000 
0.07700    56239396.00000000 35403728.00000000 89239624.00000000 27118.00976562  2453080.25000000 1944930.12500000 
0.07800    55070980.00000000 34672992.00000000 87392224.00000000 26423.98242188  2395582.50000000 1899429.87500000 
0.07900    53932000.00000000 33960904.00000000 85590488.00000000 25750.95507812  2339647.50000000 1855171.50000000 
0.08000    52822052.00000000 33267306.00000000 83835584.00000000 25098.20117188  2285276.25000000 1812157.50000000 
0.08100    51742040.00000000 32591702.00000000 82127200.00000000 24465.47070312  2232470.75000000 1770362.12500000 
0.08200    50690772.00000000 31934398.00000000 80464232.00000000 23852.11523438  2181177.50000000 1729763.00000000 
0.08300    49668040.00000000 31294816.00000000 78846968.00000000 23257.95507812  2131357.00000000 1690324.50000000 
0.08400    48673300.00000000 30672932.00000000 77273472.00000000 22682.16992188  2083002.12500000 1652055.87500000 
0.08500    47707012.00000000 30068662.00000000 75744536.00000000 22124.33398438  2036052.12500000 1614904.75000000 
0.08600    46767664.00000000 29481272.00000000 74259392.00000000 21583.83593750  1990520.00000000 1578856.25000000 
0.08700    45855548.00000000 28910962.00000000 72816616.00000000 21060.36132812  1946321.37500000 1543878.75000000 
0.08800    44969732.00000000 28357168.00000000 71415696.00000000 20553.00585938  1903426.00000000 1509933.62500000 
0.08900    44109624.00000000 27819720.00000000 70055904.00000000 20061.58007812  1861844.37500000 1476998.25000000 
0.09000    43274916.00000000 27298244.00000000 68736320.00000000 19585.18164062  1821494.25000000 1445064.00000000 
0.09100    42465024.00000000 26792410.00000000 67456440.00000000 19123.56640625  1782347.50000000 1414084.12500000 
0.09200    41679564.00000000 26301760.00000000 66214204.00000000 18675.91601562  1744376.50000000 1384022.37500000 
0.09300    40917860.00000000 25826230.00000000 65010468.00000000 18242.03320312  1707527.75000000 1354862.25000000 
0.09400    40178796.00000000 25364912.00000000 63842816.00000000 17821.06640625  1671775.50000000 1326564.75000000 
0.09500    39461980.00000000 24917826.00000000 62710432.00000000 17412.58789062  1637057.87500000 1299085.25000000 
0.09600    38766872.00000000 24484430.00000000 61612384.00000000 17016.26367188  1603372.25000000 1272426.12500000 
0.09700    38092972.00000000 24064394.00000000 60548468.00000000 16631.28320312  1570652.75000000 1246526.12500000 
0.09800    37439664.00000000 23657244.00000000 59516784.00000000 16257.37597656  1538886.62500000 1221377.75000000 
0.09900    36806268.00000000 23262738.00000000 58516384.00000000 15894.05371094  1508008.87500000 1196942.12500000 
0.10000    36191588.00000000 22879990.00000000 57546308.00000000 15540.68066406  1477988.12500000 1173194.62500000 
0.10100    35595372.00000000 22509018.00000000 56605624.00000000 15196.94726562  1448802.00000000 1150093.62500000 
0.10200    35016552.00000000 22149396.00000000 55693324.00000000 14862.37207031  1420395.37500000 1127624.25000000 
0.10300    34455312.00000000 21800460.00000000 54807772.00000000 14536.58398438  1392755.25000000 1105749.62500000 
0.10400    33910336.00000000 21461986.00000000 53948780.00000000 14219.14550781  1365835.00000000 1084440.12500000 
0.10500    33381184.00000000 21133656.00000000 53114340.00000000 13909.75097656  1339597.62500000 1063689.87500000 
0.10600    32866934.00000000 20814586.00000000 52304684.00000000 13607.86718750  1314023.75000000 1043446.93750000 
0.10700    32367410.00000000 20504934.00000000 51517416.00000000 13313.34277344  1289068.00000000 1023711.62500000 
0.10800    31881464.00000000 20204044.00000000 50752632.00000000 13025.83300781  1264715.75000000 1004430.93750000 
0.10900    31408942.00000000 19911434.00000000 50008536.00000000 12744.78515625  1240915.12500000 985608.75000000 
0.11000    30948944.00000000 19626908.00000000 49284588.00000000 12470.10351562  1217668.50000000 967207.81250000 
0.11100    30500856.00000000 19349848.00000000 48579744.00000000 12201.44042969  1194917.62500000 949206.06250000 
0.11200    30064098.00000000 19080204.00000000 47893172.00000000 11938.74316406  1172654.62500000 931588.50000000 
0.11300    29638296.00000000 18817202.00000000 47223744.00000000 11681.44238281  1150855.00000000 914338.00000000 
0.11400    29222956.00000000 18561066.00000000 46570952.00000000 11429.68066406  1129489.50000000 897426.50000000 
0.11500    28817152.00000000 18310672.00000000 45933584.00000000 11182.91210938  1108546.12500000 880849.06250000 
0.11600    28420630.00000000 18066404.00000000 45310604.00000000 10941.04589844  1087985.75000000 864576.00000000 
0.11700    28032834.00000000 17827674.00000000 44701984.00000000 10703.99609375  1067813.87500000 848599.31250000 
0.11800    27653274.00000000 17593902.00000000 44106012.00000000 10471.47949219  1047980.68750000 832900.56250000 
0.11900    27281488.00000000 17365296.00000000 43522208.00000000 10243.40625000  1028496.37500000 817464.12500000 
0.12000    26916934.00000000 17141046.00000000 42950572.00000000 10019.55078125  1009323.68750000 802279.50000000 
0.12100    26559514.00000000 16921242.00000000 42389392.00000000 9799.99511719   990465.50000000 787345.31250000 
0.12200    26208570.00000000 16705465.00000000 41838596.00000000 9584.40136719   971889.68750000 772624.62500000 
0.12300    25863602.00000000 16493606.00000000 41297908.00000000 9372.83691406   953603.93750000 758128.25000000 
0.12400    25524252.00000000 16285125.00000000 40765508.00000000 9165.02734375   935583.18750000 743838.62500000 
0.12500    25190504.00000000 16079968.00000000 40241716.00000000 8961.00292969   917810.12500000 729744.62500000 
0.12600    24861496.00000000 15878006.00000000 39726136.00000000 8760.73632812   900284.50000000 715852.00000000 
0.12700    24537372.00000000 15678884.00000000 39217532.00000000 8564.01953125   882995.87500000 702131.00000000 
0.12800    24217590.00000000 15482388.00000000 38716172.00000000 8370.95898438   865929.81250000 688588.93750000 
0.12900    23901864.00000000 15288430.00000000 38220692.00000000 8181.24121094   849096.56250000 675219.12500000 
0.13000    23590066.00000000 15096790.00000000 37731748.00000000 7995.03564453   832465.50000000 662008.25000000 
0.13100    23281888.00000000 14907298.00000000 37247844.00000000 7812.23632812   816034.68750000 648967.75000000 
0.13200    22976838.00000000 14719812.00000000 36769408.00000000 7632.79882812   799818.00000000 636073.12500000 
0.13300    22675324.00000000 14534136.00000000 36295904.00000000 7456.65673828   783793.43750000 623337.50000000 
0.13400    22376608.00000000 14350178.00000000 35826796.00000000 7283.80712891   767954.75000000 610743.31250000 
0.13500    22080512.00000000 14167949.00000000 35361688.00000000 7114.23730469   752308.81250000 598300.81250000 
0.13600    21787176.00000000 13987126.00000000 34900916.00000000 6947.87158203   736852.18750000 585996.87500000 
0.13700    21496294.00000000 13807710.00000000 34443380.00000000 6784.69970703   721569.81250000 573836.81250000 
0.13800    21207572.00000000 13629467.00000000 33989660.00000000 6624.63525391   706473.87500000 561819.43750000 
0.13900    20921212.00000000 13452504.00000000 33539094.00000000 6467.75683594   691554.12500000 549931.50000000 
0.14000    20636716.00000000 13276702.00000000 33091786.00000000 6313.96972656   676813.56250000 538186.12500000 
0.14100    20354444.00000000 13102001.00000000 32647348.00000000 6163.27734375   662255.75000000 526583.25000000 
0.14200    20073802.00000000 12928237.00000000 32205610.00000000 6015.58300781   647862.25000000 515110.53125000 
0.14300    19795334.00000000 12755476.00000000 31766544.00000000 5870.96044922   633657.87500000 503773.18750000 
0.14400    19518252.00000000 12583558.00000000 31329872.00000000 5729.27685547   619616.25000000 492572.00000000 
0.14500    19243072.00000000 12412621.00000000 30895832.00000000 5590.56494141   605754.37500000 481509.84375000 
0.14600    18969552.00000000 12242392.00000000 30464072.00000000 5454.75146484   592070.31250000 470585.37500000 
0.14700    18697660.00000000 12073103.00000000 30034886.00000000 5321.89404297   578560.81250000 459798.93750000 
0.14800    18427282.00000000 11904596.00000000 29607750.00000000 5191.82324219   565227.25000000 449147.81250000 
0.14900    18158560.00000000 11736899.00000000 29182910.00000000 5064.59326172   552070.43750000 438635.46875000 
0.15000    17891358.00000000 11569935.00000000 28760490.00000000 4940.10791016   539095.87500000 428263.84375000 
0.15100    17625726.00000000 11403810.00000000 28340246.00000000 4818.38574219   526294.93750000 418033.37500000 
0.15200    17361750.00000000 11238575.00000000 27922196.00000000 4699.38623047   513680.31250000 407941.78125000 
0.15300    17099416.00000000 11074162.00000000 27506740.00000000 4583.03271484   501237.37500000 397992.06250000 
0.15400    16838508.00000000 10910371.00000000 27093162.00000000 4469.27636719   488979.68750000 388184.87500000 
0.15500    16579475.00000000 10747488.00000000 26682158.00000000 4358.12158203   476902.34375000 378522.84375000 
0.15600    16321791.00000000 10585492.00000000 26273474.00000000 4249.43945312   465005.15625000 369004.81250000 
0.15700    16066159.00000000 10424404.00000000 25867480.00000000 4143.32812500   453296.56250000 359631.21875000 
0.15800    15811928.00000000 10264109.00000000 25463754.00000000 4039.54199219   441767.46875000 350401.59375000 
0.15900    15559730.00000000 10104846.00000000 25062862.00000000 3938.20751953   430420.50000000 341318.34375000 
0.16000    15309106.00000000 9946476.00000000 24664342.00000000 3839.17944336   419263.15625000 332384.31250000 
0.16100    15060541.00000000 9789257.00000000 24268844.00000000 3742.47387695   408291.18750000 323599.21875000 
0.16200    14813788.00000000 9632812.00000000 23875962.00000000 3648.00024414   397502.25000000 314958.06250000 
0.16300    14568879.00000000 9477602.00000000 23485960.00000000 3555.74047852   386901.90625000 306467.18750000 
0.16400    14326169.00000000 9323536.00000000 23098964.00000000 3465.62255859   376485.50000000 298127.75000000 
0.16500    14085391.00000000 9170562.00000000 22715154.00000000 3377.60913086   366257.78125000 289932.78125000 
0.16600    13846780.00000000 9018687.00000000 22334452.00000000 3291.66137695   356216.78125000 281890.81250000 
0.16700    13610242.00000000 8868103.00000000 21956962.00000000 3207.72045898   346358.53125000 273997.43750000 
0.16800    13375879.00000000 8718766.00000000 21582772.00000000 3125.72167969   336688.40625000 266251.25000000 
0.16900    13143880.00000000 8570667.00000000 21212064.00000000 3045.71508789   327206.50000000 258656.46875000 
0.17000    12914193.00000000 8423888.00000000 20844730.00000000 2967.57666016   317907.18750000 251209.85937500 
