# SAXS profile: number of points = 501, q_min = 0, q_max = 0.5, delta_q = 0.001
#    q    intensity 
0.00000    162236656.00000000 101201752.00000000 256271360.00000000 99991.19531250  8055442.00000000 6362167.00000000 
0.00100    162197392.00000000 101175704.00000000 256207264.00000000 99962.10937500  8053270.50000000 6360410.00000000 
0.00200    162077024.00000000 101099488.00000000 256014400.00000000 99875.00781250  8046661.00000000 6355264.50000000 
0.00300    161873680.00000000 100972784.00000000 255691776.00000000 99729.62500000  8035734.50000000 6346622.00000000 
0.00400    161586256.00000000 100794672.00000000 255240448.00000000 99525.81250000  8020425.00000000 6334613.50000000 
0.00500    161218080.00000000 100566864.00000000 254661904.00000000 99265.86718750  8000830.50000000 6319128.00000000 
0.00600    160769232.00000000 100288568.00000000 253953248.00000000 98948.95312500  7976922.50000000 6300247.50000000 
0.00700    160242112.00000000 99961432.00000000 253123920.00000000 98574.90625000  7948746.50000000 6278079.50000000 
0.00800    159632752.00000000 99585000.00000000 252169584.00000000 98146.11718750  7916459.50000000 6252677.50000000 
0.00900    158950048.00000000 99161272.00000000 251091536.00000000 97662.23437500  7879970.00000000 6223901.00000000 
0.01000    158190832.00000000 98690424.00000000 249896224.00000000 97125.78125000  7839459.00000000 6191961.50000000 
0.01100    157357648.00000000 98172056.00000000 248579728.00000000 96535.44531250  7794933.50000000 6156884.00000000 
0.01200    156448768.00000000 97608344.00000000 247148176.00000000 95893.32812500  7746512.50000000 6118756.50000000 
0.01300    155466832.00000000 96999616.00000000 245602208.00000000 95201.57812500  7694312.50000000 6077585.50000000 
0.01400    154416080.00000000 96346656.00000000 243947088.00000000 94460.64062500  7638361.50000000 6033516.00000000 
0.01500    153296976.00000000 95652072.00000000 242183520.00000000 93672.79687500  7578755.50000000 5986554.50000000 
0.01600    152111136.00000000 94916296.00000000 240315408.00000000 92838.58593750  7515629.50000000 5936812.50000000 
0.01700    150860192.00000000 94139880.00000000 238342464.00000000 91959.09375000  7449192.50000000 5884425.50000000 
0.01800    149546960.00000000 93324528.00000000 236273968.00000000 91037.56250000  7379424.00000000 5829451.00000000 
0.01900    148173104.00000000 92471168.00000000 234109728.00000000 90074.88281250  7306485.50000000 5771955.50000000 
0.02000    146742560.00000000 91582488.00000000 231853968.00000000 89072.86718750  7230500.50000000 5712067.00000000 
0.02100    145254016.00000000 90659344.00000000 229509376.00000000 88033.17187500  7151640.00000000 5649907.50000000 
0.02200    143714512.00000000 89702712.00000000 227082560.00000000 86957.49218750  7069978.00000000 5585561.50000000 
0.02300    142123776.00000000 88715032.00000000 224575296.00000000 85847.59375000  6985702.00000000 5519138.50000000 
0.02400    140483152.00000000 87696848.00000000 221990880.00000000 84706.62500000  6898970.50000000 5450758.50000000 
0.02500    138798704.00000000 86651136.00000000 219334576.00000000 83536.07031250  6809873.00000000 5380519.50000000 
0.02600    137071152.00000000 85578512.00000000 216612656.00000000 82337.66406250  6718622.00000000 5308589.50000000 
0.02700    135303104.00000000 84480272.00000000 213827344.00000000 81113.66406250  6625315.00000000 5235047.00000000 
0.02800    133498000.00000000 83359568.00000000 210981280.00000000 79865.64843750  6530094.00000000 5159962.50000000 
0.02900    131659008.00000000 82217320.00000000 208080496.00000000 78596.70312500  6433166.50000000 5083567.50000000 
0.03000    129787136.00000000 81053960.00000000 205131792.00000000 77308.10156250  6334671.50000000 5005907.00000000 
0.03100    127886968.00000000 79873768.00000000 202136032.00000000 76001.94531250  6234686.50000000 4927124.00000000 
0.03200    125960824.00000000 78676976.00000000 199100080.00000000 74681.35156250  6133530.50000000 4847342.00000000 
0.03300    124011480.00000000 77465832.00000000 196027472.00000000 73346.96875000  6031242.50000000 4766654.00000000 
0.03400    122041648.00000000 76242104.00000000 192920384.00000000 72001.73437500  5927926.00000000 4685183.00000000 
0.03500    120054096.00000000 75006688.00000000 189787728.00000000 70647.37500000  5823809.50000000 4603088.50000000 
0.03600    118051536.00000000 73762528.00000000 186629792.00000000 69286.26562500  5719076.50000000 4520490.50000000 
0.03700    116037304.00000000 72510968.00000000 183454816.00000000 67919.96875000  5613811.50000000 4437492.00000000 
0.03800    114014104.00000000 71253816.00000000 180265040.00000000 66550.61718750  5508178.00000000 4354209.00000000 
0.03900    111983768.00000000 69992328.00000000 177063216.00000000 65180.31250000  5402328.50000000 4270738.00000000 
0.04000    109950160.00000000 68727824.00000000 173855472.00000000 63810.69531250  5296400.50000000 4187171.50000000 
0.04100    107914240.00000000 67462592.00000000 170645936.00000000 62443.52734375  5190514.00000000 4103676.00000000 
0.04200    105880544.00000000 66197864.00000000 167440176.00000000 61080.99609375  5084856.50000000 4020332.50000000 
0.04300    103849992.00000000 64935884.00000000 164237280.00000000 59724.36328125  4979461.00000000 3937224.75000000 
0.04400    101826016.00000000 63677648.00000000 161045920.00000000 58375.35156250  4874637.00000000 3854464.25000000 
0.04500    99811376.00000000 62424444.00000000 157868080.00000000 57035.89062500  4770267.00000000 3772214.75000000 
0.04600    97806624.00000000 61178344.00000000 154707104.00000000 55706.99609375  4666682.00000000 3690472.00000000 
0.04700    95816000.00000000 59940128.00000000 151566112.00000000 54390.19140625  4563907.50000000 3609364.25000000 
0.04800    93839536.00000000 58711632.00000000 148450192.00000000 53087.49609375  4461996.50000000 3528999.00000000 
0.04900    91881864.00000000 57493628.00000000 145361072.00000000 51799.42968750  4361154.00000000 3449420.75000000 
0.05000    89942856.00000000 56287560.00000000 142302784.00000000 50527.82421875  4261406.00000000 3370722.50000000 
0.05100    88024952.00000000 55094816.00000000 139276912.00000000 49273.50000000  4162911.50000000 3293001.00000000 
0.05200    86130240.00000000 53916156.00000000 136287824.00000000 48037.71875000  4065703.00000000 3216306.75000000 
0.05300    84260464.00000000 52753332.00000000 133340368.00000000 46821.17578125  3969897.75000000 3140694.75000000 
0.05400    82416880.00000000 51606656.00000000 130432264.00000000 45625.24218750  3875548.50000000 3066270.00000000 
0.05500    80600688.00000000 50477044.00000000 127567912.00000000 44450.67187500  3782738.25000000 2993034.00000000 
0.05600    78814728.00000000 49365684.00000000 124749776.00000000 43297.62890625  3691559.75000000 2921067.75000000 
0.05700    77058288.00000000 48273488.00000000 121979544.00000000 42167.71093750  3602027.25000000 2850402.00000000 
0.05800    75334080.00000000 47201256.00000000 119259472.00000000 41061.10156250  3514205.75000000 2781106.50000000 
0.05900    73642896.00000000 46148772.00000000 116591880.00000000 39978.18359375  3428183.50000000 2713211.00000000 
0.06000    71985464.00000000 45117828.00000000 113977560.00000000 38919.80859375  3343958.75000000 2646739.25000000 
0.06100    70362784.00000000 44108312.00000000 111417368.00000000 37885.97656250  3261605.25000000 2581736.00000000 
0.06200    68776216.00000000 43121468.00000000 108914536.00000000 36877.09375000  3181109.50000000 2518208.25000000 
0.06300    67225760.00000000 42156864.00000000 106468504.00000000 35893.46484375  3102535.00000000 2456194.75000000 
0.06400    65711200.00000000 41215320.00000000 104080096.00000000 34935.37500000  3025889.75000000 2395709.75000000 
0.06500    64234852.00000000 40296944.00000000 101751224.00000000 34002.36718750  2951201.75000000 2336765.00000000 
0.06600    62796300.00000000 39402232.00000000 99482704.00000000 33095.05078125  2878472.25000000 2279346.25000000 
0.06700    61395448.00000000 38531260.00000000 97273120.00000000 32213.55664062  2807715.00000000 2223521.50000000 
0.06800    60033092.00000000 37684132.00000000 95123968.00000000 31357.07812500  2738910.00000000 2169209.25000000 
0.06900    58709168.00000000 36860984.00000000 93036352.00000000 30526.17773438  2672081.75000000 2116473.75000000 
0.07000    57423488.00000000 36061632.00000000 91008960.00000000 29719.99804688  2607174.00000000 2065264.12500000 
0.07100    56176312.00000000 35286620.00000000 89042136.00000000 28938.56054688  2544252.75000000 2015584.12500000 
0.07200    54966996.00000000 34535204.00000000 87136280.00000000 28181.73242188  2483231.00000000 1967445.62500000 
0.07300    53796060.00000000 33807464.00000000 85290008.00000000 27448.82617188  2424123.50000000 1920823.62500000 
0.07400    52662856.00000000 33103524.00000000 83503048.00000000 26739.66601562  2366908.75000000 1875647.12500000 
0.07500    51566820.00000000 32422830.00000000 81775656.00000000 26053.82421875  2311549.00000000 1831970.12500000 
0.07600    50507424.00000000 31765162.00000000 80106272.00000000 25390.71289062  2257978.50000000 1789723.62500000 
0.07700    49485096.00000000 31130194.00000000 78494736.00000000 24749.70507812  2206234.25000000 1748900.25000000 
0.07800    48498124.00000000 30518200.00000000 76940504.00000000 24130.51562500  2156224.75000000 1709447.50000000 
0.07900    47546396.00000000 29927806.00000000 75440840.00000000 23532.18359375  2107937.00000000 1671361.00000000 
0.08000    46628900.00000000 29359112.00000000 73995912.00000000 22954.82812500  2061310.75000000 1634589.62500000 
0.08100    45745696.00000000 28811558.00000000 72605448.00000000 22397.13671875  2016329.00000000 1599112.37500000 
0.08200    44895232.00000000 28284718.00000000 71266352.00000000 21858.68750000  1972908.62500000 1564886.87500000 
0.08300    44076820.00000000 27778086.00000000 69978904.00000000 21338.88085938  1931055.37500000 1531872.50000000 
0.08400    43290184.00000000 27291020.00000000 68740752.00000000 20837.21679688  1890659.00000000 1500025.50000000 
0.08500    42533292.00000000 26823076.00000000 67549720.00000000 20352.56250000  1851706.75000000 1469325.37500000 
0.08600    41806296.00000000 26373666.00000000 66406744.00000000 19884.80078125  1814131.87500000 1439714.87500000 
0.08700    41107832.00000000 25942170.00000000 65308364.00000000 19432.86328125  1777900.62500000 1411163.12500000 
0.08800    40436604.00000000 25527860.00000000 64253720.00000000 18996.23828125  1742937.00000000 1383618.87500000 
0.08900    39792304.00000000 25130218.00000000 63241664.00000000 18574.19921875  1709205.62500000 1357055.12500000 
0.09000    39173360.00000000 24748646.00000000 62269408.00000000 18166.18164062  1676657.00000000 1331409.62500000 
0.09100    38579284.00000000 24382618.00000000 61336556.00000000 17771.39843750  1645219.12500000 1306651.50000000 
0.09200    38007828.00000000 24031180.00000000 60440252.00000000 17389.34375000  1614851.62500000 1282740.00000000 
0.09300    37459644.00000000 23693842.00000000 59580324.00000000 17019.31835938  1585509.75000000 1259636.62500000 
0.09400    36932044.00000000 23369992.00000000 58753704.00000000 16660.49804688  1557121.75000000 1237286.50000000 
0.09500    36425200.00000000 23058832.00000000 57959208.00000000 16312.55078125  1529657.12500000 1215661.50000000 
0.09600    35937740.00000000 22760034.00000000 57195640.00000000 15974.93457031  1503047.87500000 1194725.87500000 
0.09700    35468372.00000000 22472520.00000000 56460720.00000000 15646.76660156  1477250.25000000 1174422.37500000 
0.09800    35016648.00000000 22195778.00000000 55753816.00000000 15327.70703125  1452226.75000000 1154740.62500000 
0.09900    34581096.00000000 21929368.00000000 55071956.00000000 15017.26367188  1427923.75000000 1135618.62500000 
0.10000    34160488.00000000 21672478.00000000 54414396.00000000 14714.78222656  1404290.25000000 1117019.87500000 
0.10100    33754464.00000000 21424588.00000000 53779572.00000000 14419.96484375  1381294.25000000 1098922.87500000 
0.10200    33361768.00000000 21184926.00000000 53165892.00000000 14132.14746094  1358874.25000000 1081283.25000000 
0.10300    32981366.00000000 20953220.00000000 52571864.00000000 13851.08300781  1337005.87500000 1064076.50000000 
0.10400    32612628.00000000 20728574.00000000 51996312.00000000 13576.13183594  1315642.12500000 1047268.62500000 
0.10500    32254768.00000000 20510906.00000000 51437388.00000000 13307.20898438  1294754.50000000 1030845.25000000 
0.10600    31906224.00000000 20298922.00000000 50894216.00000000 13043.65625000  1274304.37500000 1014743.87500000 
0.10700    31567066.00000000 20092894.00000000 50364700.00000000 12785.40820312  1254243.25000000 998959.75000000 
0.10800    31235884.00000000 19891704.00000000 49848868.00000000 12532.03125000  1234572.75000000 983467.06250000 
0.10900    30912380.00000000 19695116.00000000 49344360.00000000 12283.11035156  1215228.12500000 968238.18750000 
0.11000    30595492.00000000 19502934.00000000 48850172.00000000 12038.55468750  1196186.25000000 953253.81250000 
0.11100    30284782.00000000 19314382.00000000 48365944.00000000 11798.07226562  1177450.50000000 938492.00000000 
0.11200    29979662.00000000 19128774.00000000 47889756.00000000 11561.43066406  1158969.12500000 923927.37500000 
0.11300    29679010.00000000 18946560.00000000 47421436.00000000 11328.39746094  1140721.37500000 909547.18750000 
0.11400    29382700.00000000 18766794.00000000 46959664.00000000 11098.95117188  1122710.75000000 895335.50000000 
0.11500    29090072.00000000 18589052.00000000 46503172.00000000 10872.78515625  1104885.62500000 881279.00000000 
0.11600    28800762.00000000 18413104.00000000 46051784.00000000 10649.89746094  1087255.00000000 867362.50000000 
0.11700    28513970.00000000 18238860.00000000 45604428.00000000 10430.05371094  1069779.75000000 853574.93750000 
0.11800    28229362.00000000 18065744.00000000 45160428.00000000 10213.24511719  1052469.87500000 839902.75000000 
0.11900    27946810.00000000 17893566.00000000 44718760.00000000 9999.26074219   1035308.75000000 826336.81250000 
0.12000    27665468.00000000 17722194.00000000 44279696.00000000 9788.18066406   1018271.43750000 812868.31250000 
0.12100    27385692.00000000 17551330.00000000 43842112.00000000 9579.98339844   1001368.68750000 799496.75000000 
0.12200    27106456.00000000 17380854.00000000 43405496.00000000 9374.49804688   984576.25000000 786212.25000000 
0.12300    26827820.00000000 17210598.00000000 42969708.00000000 9171.77832031   967907.93750000 773009.75000000 
0.12400    26549606.00000000 17040290.00000000 42534424.00000000 8971.78125000   951341.06250000 759885.25000000 
0.12500    26271426.00000000 16869764.00000000 42098528.00000000 8774.53222656   934884.06250000 746831.62500000 
0.12600    25993252.00000000 16698965.00000000 41662388.00000000 8580.05371094   918530.68750000 733860.81250000 
0.12700    25714858.00000000 16527786.00000000 41225492.00000000 8388.30957031   902278.00000000 720960.50000000 
0.12800    25436220.00000000 16356198.00000000 40788120.00000000 8199.36816406   886128.75000000 708137.81250000 
0.12900    25157208.00000000 16184128.00000000 40349548.00000000 8013.28466797   870086.93750000 695390.75000000 
0.13000    24877564.00000000 16011475.00000000 39909920.00000000 7829.97705078   854147.93750000 682713.81250000 
0.13100    24597278.00000000 15838046.00000000 39468880.00000000 7649.60205078   838315.37500000 670114.56250000 
0.13200    24316620.00000000 15664140.00000000 39026672.00000000 7472.08203125   822603.62500000 657600.68750000 
0.13300    24035264.00000000 15489534.00000000 38583168.00000000 7297.56347656   806999.75000000 645168.18750000 
0.13400    23753196.00000000 15314298.00000000 38138220.00000000 7126.05615234   791517.56250000 632827.75000000 
0.13500    23470756.00000000 15138446.00000000 37692284.00000000 6957.54052734   776162.00000000 620576.93750000 
0.13600    23187754.00000000 14961966.00000000 37245148.00000000 6792.08642578   760937.31250000 608419.93750000 
0.13700    22904206.00000000 14784879.00000000 36797144.00000000 6629.73046875   745844.37500000 596366.37500000 
0.13800    22620404.00000000 14607250.00000000 36347432.00000000 6470.54443359   730893.93750000 584417.81250000 
0.13900    22336186.00000000 14429257.00000000 35897660.00000000 6314.53857422   716089.87500000 572580.12500000 
0.14000    22052008.00000000 14250882.00000000 35446820.00000000 6161.69287109   701438.75000000 560855.87500000 
0.14100    21767512.00000000 14072086.00000000 34995940.00000000 6012.09033203   686947.62500000 549248.81250000 
0.14200    21483040.00000000 13893025.00000000 34544528.00000000 5865.68798828   672614.81250000 537768.00000000 
0.14300    21198840.00000000 13713865.00000000 34092816.00000000 5722.52636719   658454.37500000 526418.18750000 
0.14400    20914810.00000000 13534423.00000000 33640796.00000000 5582.60058594   644462.75000000 515199.31250000 
0.14500    20631146.00000000 13355064.00000000 33190106.00000000 5445.97363281   630655.62500000 504118.09375000 
0.14600    20348048.00000000 13175889.00000000 32739236.00000000 5312.58984375   617034.18750000 493182.31250000 
0.14700    20065622.00000000 12996773.00000000 32289418.00000000 5182.43115234   603610.25000000 482391.28125000 
0.14800    19783912.00000000 12817939.00000000 31840204.00000000 5055.47900391   590368.75000000 471750.75000000 
0.14900    19503312.00000000 12639407.00000000 31392386.00000000 4931.68115234   577330.31250000 461265.81250000 
0.15000    19223794.00000000 12461337.00000000 30945814.00000000 4811.14990234   564492.00000000 450933.75000000 
0.15100    18945216.00000000 12283854.00000000 30501272.00000000 4693.69433594   551857.87500000 440767.75000000 
0.15200    18668250.00000000 12106972.00000000 30058316.00000000 4579.34667969   539435.56250000 430764.25000000 
0.15300    18392738.00000000 11930736.00000000 29617680.00000000 4468.05761719   527222.56250000 420924.93750000 
0.15400    18118636.00000000 11755404.00000000 29179022.00000000 4359.74951172   515222.28125000 411252.46875000 
0.15500    17846526.00000000 11580980.00000000 28743094.00000000 4254.41064453   503440.31250000 401749.68750000 
0.15600    17576010.00000000 11407492.00000000 28309720.00000000 4151.96777344   491867.56250000 392414.15625000 
0.15700    17307620.00000000 11235093.00000000 27879478.00000000 4052.35107422   480514.62500000 383255.78125000 
0.15800    17041330.00000000 11063826.00000000 27452190.00000000 3955.44873047   469379.40625000 374263.90625000 
0.15900    16777270.00000000 10893744.00000000 27028036.00000000 3861.27319336   458459.68750000 365449.56250000 
0.16000    16515384.00000000 10725003.00000000 26607506.00000000 3769.69458008   447753.78125000 356802.31250000 
0.16100    16256005.00000000 10557657.00000000 26190554.00000000 3680.69409180   437269.62500000 348331.78125000 
0.16200    15998916.00000000 10391639.00000000 25777534.00000000 3594.11450195   426993.06250000 340030.28125000 
0.16300    15744374.00000000 10227103.00000000 25368086.00000000 3509.92041016   416933.34375000 331898.62500000 
0.16400    15492520.00000000 10064240.00000000 24962788.00000000 3428.00219727   407082.53125000 323937.90625000 
0.16500    15243259.00000000 9902822.00000000 24561680.00000000 3348.35156250   397439.25000000 316142.18750000 
0.16600    14996735.00000000 9743178.00000000 24164776.00000000 3270.80102539   388002.18750000 308513.84375000 
0.16700    14753021.00000000 9585067.00000000 23772032.00000000 3195.31005859   378764.75000000 301046.31250000 
0.16800    14512039.00000000 9428695.00000000 23383712.00000000 3121.75415039   369726.43750000 293738.12500000 
0.16900    14274039.00000000 9274102.00000000 23000022.00000000 3050.10766602   360887.15625000 286596.50000000 
0.17000    14038868.00000000 9121291.00000000 22620754.00000000 2980.26953125   352239.37500000 279601.78125000 
