# SAXS profile: number of points = 501, q_min = 0, q_max = 0.5, delta_q = 0.001
#    q    intensity 
0.00000    162237008.00000000 101201832.00000000 256271472.00000000 109317.29687500 8422708.00000000 6652222.50000000 
0.00100    162196720.00000000 101175736.00000000 256206752.00000000 109283.65625000 8420309.00000000 6650357.00000000 
0.00200    162073264.00000000 101097328.00000000 256009344.00000000 109184.20312500 8413188.00000000 6644729.50000000 
0.00300    161866448.00000000 100967888.00000000 255679504.00000000 109018.34375000 8401340.00000000 6635376.00000000 
0.00400    161572688.00000000 100786480.00000000 255219344.00000000 108786.47656250 8384782.00000000 6622316.00000000 
0.00500    161198144.00000000 100553256.00000000 254628736.00000000 108489.82812500 8363478.00000000 6605531.50000000 
0.00600    160741328.00000000 100269200.00000000 253905584.00000000 108127.72656250 8337614.50000000 6585124.00000000 
0.00700    160202800.00000000 99934880.00000000 253058672.00000000 107702.07812500 8307148.00000000 6561069.50000000 
0.00800    159581488.00000000 99550448.00000000 252085360.00000000 107213.50781250 8272092.00000000 6533429.00000000 
0.00900    158884400.00000000 99118088.00000000 250987584.00000000 106662.21875000 8232619.50000000 6502264.00000000 
0.01000    158110896.00000000 98637536.00000000 249765856.00000000 106050.20312500 8188740.00000000 6467695.50000000 
0.01100    157261888.00000000 98108592.00000000 248423376.00000000 105377.88281250 8140554.00000000 6429706.00000000 
0.01200    156337008.00000000 97533136.00000000 246963024.00000000 104646.86718750 8088143.00000000 6388296.00000000 
0.01300    155334768.00000000 96911752.00000000 245387968.00000000 103859.17187500 8031620.50000000 6343724.50000000 
0.01400    154264800.00000000 96245808.00000000 243699568.00000000 103016.05468750 7971076.50000000 6295951.00000000 
0.01500    153124416.00000000 95536808.00000000 241901424.00000000 102118.58593750 7906614.00000000 6245130.50000000 
0.01600    151916816.00000000 94787104.00000000 239997376.00000000 101169.71093750 7838367.50000000 6191321.50000000 
0.01700    150642272.00000000 93995320.00000000 237987728.00000000 100169.34375000 7766444.00000000 6134600.00000000 
0.01800    149305488.00000000 93164088.00000000 235879744.00000000 99120.98437500  7691014.50000000 6075105.50000000 
0.01900    147908160.00000000 92295560.00000000 233676256.00000000 98026.07031250  7612220.00000000 6012910.00000000 
0.02000    146450224.00000000 91389192.00000000 231378448.00000000 96887.32031250  7530125.50000000 5948156.50000000 
0.02100    144936304.00000000 90448696.00000000 228991456.00000000 95705.47656250  7444967.00000000 5880967.00000000 
0.02200    143370256.00000000 89475496.00000000 226521728.00000000 94484.34375000  7356815.00000000 5811461.50000000 
0.02300    141752752.00000000 88469392.00000000 223971312.00000000 93225.00000000  7265885.50000000 5739717.50000000 
0.02400    140085216.00000000 87433416.00000000 221342480.00000000 91930.25781250  7172290.50000000 5665908.50000000 
0.02500    138373504.00000000 86369352.00000000 218643152.00000000 90602.75000000  7076252.50000000 5590142.00000000 
0.02600    136618208.00000000 85278464.00000000 215875344.00000000 89243.57812500  6977875.50000000 5512519.50000000 
0.02700    134822880.00000000 84161944.00000000 213043968.00000000 87856.68750000  6877338.00000000 5433236.50000000 
0.02800    132990152.00000000 83023304.00000000 210154768.00000000 86444.27343750  6774817.00000000 5352393.00000000 
0.02900    131123584.00000000 81862656.00000000 207210944.00000000 85007.84375000  6670514.50000000 5270073.50000000 
0.03000    129225424.00000000 80682408.00000000 204216656.00000000 83550.39062500  6564553.00000000 5186477.00000000 
0.03100    127298664.00000000 79484560.00000000 201177456.00000000 82073.97656250  6457115.50000000 5101732.50000000 
0.03200    125345448.00000000 78270648.00000000 198098832.00000000 80581.73437500  6348419.00000000 5015979.50000000 
0.03300    123370680.00000000 77043232.00000000 194985312.00000000 79075.92187500  6238503.00000000 4929288.50000000 
0.03400    121375680.00000000 75802776.00000000 191837936.00000000 77558.17968750  6127702.50000000 4841875.50000000 
0.03500    119364176.00000000 74551456.00000000 188667184.00000000 76031.90625000  6016053.50000000 4753785.50000000 
0.03600    117338360.00000000 73292408.00000000 185472400.00000000 74499.12500000  5903808.00000000 4665269.00000000 
0.03700    115301520.00000000 72026520.00000000 182259888.00000000 72962.01562500  5791111.50000000 4576351.00000000 
0.03800    113256704.00000000 70755776.00000000 179036080.00000000 71422.88281250  5678122.50000000 4487194.50000000 
0.03900    111206472.00000000 69480984.00000000 175801344.00000000 69883.64843750  5564967.00000000 4397951.00000000 
0.04000    109153232.00000000 68204440.00000000 172562384.00000000 68347.61718750  5451832.50000000 4308704.50000000 
0.04100    107100032.00000000 66927312.00000000 169325664.00000000 66815.28125000  5338856.50000000 4219562.50000000 
0.04200    105049832.00000000 65652608.00000000 166092224.00000000 65289.85546875  5226227.00000000 4130694.75000000 
0.04300    103004072.00000000 64381000.00000000 162866704.00000000 63772.32812500  5114037.50000000 4042176.50000000 
0.04400    100966992.00000000 63114244.00000000 159654720.00000000 62265.64453125  5002431.50000000 3954131.00000000 
0.04500    98940336.00000000 61853616.00000000 156456368.00000000 60771.43750000  4891569.00000000 3866682.50000000 
0.04600    96925936.00000000 60600964.00000000 153280272.00000000 59290.92187500  4781542.00000000 3779907.75000000 
0.04700    94925904.00000000 59357628.00000000 150125424.00000000 57826.48046875  4672557.50000000 3693899.75000000 
0.04800    92943352.00000000 58124696.00000000 146999744.00000000 56379.35546875  4564682.00000000 3608785.75000000 
0.04900    90980208.00000000 56903864.00000000 143902240.00000000 54950.70703125  4457976.50000000 3524622.75000000 
0.05000    89037176.00000000 55695852.00000000 140837104.00000000 53542.39843750  4352629.00000000 3441517.75000000 
0.05100    87118536.00000000 54502676.00000000 137810320.00000000 52155.83203125  4248713.50000000 3359534.00000000 
0.05200    85223920.00000000 53324500.00000000 134823104.00000000 50792.13671875  4146301.00000000 3278751.00000000 
0.05300    83355904.00000000 52163452.00000000 131878824.00000000 49452.06250000  4045530.75000000 3199258.50000000 
0.05400    81516400.00000000 51019836.00000000 128977720.00000000 48137.23046875  3946455.00000000 3121092.75000000 
0.05500    79706456.00000000 49894520.00000000 126123880.00000000 46848.29687500  3849136.75000000 3044330.00000000 
0.05600    77927768.00000000 48788700.00000000 123318848.00000000 45586.14843750  3753692.00000000 2969044.00000000 
0.05700    76181280.00000000 47703128.00000000 120564512.00000000 44351.59765625  3660137.25000000 2895240.25000000 
0.05800    74468456.00000000 46638568.00000000 117863408.00000000 43145.12500000  3568578.25000000 2822988.00000000 
0.05900    72790496.00000000 45595432.00000000 115218200.00000000 41967.62500000  3479004.25000000 2752342.75000000 
0.06000    71148112.00000000 44575004.00000000 112628800.00000000 40819.34375000  3391512.00000000 2683328.75000000 
0.06100    69543032.00000000 43577180.00000000 110097216.00000000 39700.84375000  3306093.25000000 2615958.00000000 
0.06200    67974840.00000000 42602396.00000000 107625104.00000000 38612.24609375  3222828.75000000 2550288.75000000 
0.06300    66444756.00000000 41652036.00000000 105212528.00000000 37554.10937500  3141726.00000000 2486311.00000000 
0.06400    64952976.00000000 40725108.00000000 102861048.00000000 36526.47656250  3062787.25000000 2424052.75000000 
0.06500    63500308.00000000 39822580.00000000 100571432.00000000 35528.70703125  2986034.25000000 2363517.75000000 
0.06600    62087392.00000000 38945156.00000000 98343480.00000000 34561.39453125  2911497.00000000 2304739.75000000 
0.06700    60714004.00000000 38092016.00000000 96178744.00000000 33624.89843750  2839139.00000000 2247676.50000000 
0.06800    59380376.00000000 37263588.00000000 94077080.00000000 32718.00976562  2769002.75000000 2192348.75000000 
0.06900    58086484.00000000 36460204.00000000 92037712.00000000 31841.53515625  2701035.25000000 2138763.00000000 
0.07000    56832288.00000000 35681484.00000000 90061024.00000000 30994.29687500  2635254.50000000 2086887.00000000 
0.07100    55617560.00000000 34927800.00000000 88146848.00000000 30176.06640625  2571645.75000000 2036723.50000000 
0.07200    54442664.00000000 34198620.00000000 86295456.00000000 29386.74609375  2510128.00000000 1988225.12500000 
0.07300    53306556.00000000 33493538.00000000 84506280.00000000 28625.79492188  2450731.00000000 1941400.62500000 
0.07400    52209072.00000000 32813166.00000000 82777504.00000000 27892.31445312  2393419.00000000 1896211.37500000 
0.07500    51149968.00000000 32156436.00000000 81109952.00000000 27186.08789062  2338151.00000000 1852645.87500000 
0.07600    50128976.00000000 31523190.00000000 79501280.00000000 26506.35937500  2284861.50000000 1810630.37500000 
0.07700    49144860.00000000 30913418.00000000 77951400.00000000 25852.36718750  2233561.00000000 1770180.00000000 
0.07800    48197148.00000000 30326008.00000000 76459984.00000000 25223.26562500  2184135.00000000 1731232.62500000 
0.07900    47285384.00000000 29761224.00000000 75023552.00000000 24618.68945312  2136578.00000000 1693758.37500000 
0.08000    46408472.00000000 29218498.00000000 73644240.00000000 24037.75390625  2090820.50000000 1657709.37500000 
0.08100    45565360.00000000 28696850.00000000 72317864.00000000 23479.37304688  2046853.50000000 1623043.37500000 
0.08200    44755728.00000000 28196194.00000000 71044672.00000000 22942.95898438  2004563.87500000 1589716.87500000 
0.08300    43978492.00000000 27715590.00000000 69821984.00000000 22427.71679688  1963924.25000000 1557693.87500000 
0.08400    43232500.00000000 27254514.00000000 68648432.00000000 21932.72656250  1924857.62500000 1526924.50000000 
0.08500    42516704.00000000 26812614.00000000 67524040.00000000 21456.96679688  1887324.37500000 1497339.50000000 
0.08600    41830776.00000000 26388836.00000000 66445352.00000000 20999.84765625  1851239.75000000 1468932.50000000 
0.08700    41172544.00000000 25982768.00000000 65411396.00000000 20560.40429688  1816572.00000000 1441604.12500000 
0.08800    40541484.00000000 25593722.00000000 64420364.00000000 20137.59765625  1783220.00000000 1415332.75000000 
0.08900    39936488.00000000 25221190.00000000 63470580.00000000 19730.78906250  1751158.00000000 1390075.87500000 
0.09000    39356584.00000000 24863794.00000000 62560188.00000000 19339.09765625  1720302.87500000 1365774.50000000 
0.09100    38800108.00000000 24521562.00000000 61687468.00000000 18961.41601562  1690586.62500000 1342367.12500000 
0.09200    38266944.00000000 24193526.00000000 60850388.00000000 18597.14257812  1661951.50000000 1319811.62500000 
0.09300    37754876.00000000 23879026.00000000 60047456.00000000 18245.58593750  1634343.25000000 1298063.00000000 
0.09400    37263060.00000000 23576964.00000000 59276648.00000000 17905.72851562  1607689.62500000 1277065.75000000 
0.09500    36790868.00000000 23287204.00000000 58536492.00000000 17576.59570312  1581939.75000000 1256778.50000000 
0.09600    36336344.00000000 23008604.00000000 57824660.00000000 17257.93554688  1557012.75000000 1237144.50000000 
0.09700    35899016.00000000 22740840.00000000 57140036.00000000 16948.70703125  1532876.50000000 1218141.75000000 
0.09800    35477808.00000000 22482838.00000000 56480348.00000000 16648.18750000  1509473.87500000 1199692.00000000 
0.09900    35071160.00000000 22234220.00000000 55844104.00000000 16355.89550781  1486740.50000000 1181768.87500000 
0.10000    34678692.00000000 21994082.00000000 55230020.00000000 16070.94531250  1464607.37500000 1164336.50000000 
0.10100    34298620.00000000 21761944.00000000 54635644.00000000 15792.91015625  1443039.87500000 1147335.50000000 
0.10200    33930132.00000000 21537050.00000000 54059664.00000000 15521.01367188  1421997.00000000 1130746.37500000 
0.10300    33572652.00000000 21318856.00000000 53500848.00000000 15254.76269531  1401403.75000000 1114519.62500000 
0.10400    33224822.00000000 21106768.00000000 52957428.00000000 14993.69335938  1381244.87500000 1098608.25000000 
0.10500    32885914.00000000 20900020.00000000 52427712.00000000 14737.41308594  1361468.00000000 1083006.75000000 
0.10600    32554950.00000000 20698258.00000000 51910512.00000000 14485.16210938  1342018.75000000 1067655.62500000 
0.10700    32231076.00000000 20500784.00000000 51404592.00000000 14236.70312500  1322862.50000000 1052549.12500000 
0.10800    31913206.00000000 20307168.00000000 50908304.00000000 13991.64746094  1303977.50000000 1037636.43750000 
0.10900    31601074.00000000 20117022.00000000 50420972.00000000 13749.61425781  1285316.37500000 1022889.37500000 
0.11000    31293454.00000000 19929728.00000000 49940852.00000000 13510.10058594  1266859.87500000 1008306.93750000 
0.11100    30990296.00000000 19744708.00000000 49466732.00000000 13273.15039062  1248554.00000000 993843.06250000 
0.11200    30690024.00000000 19561880.00000000 48997904.00000000 13038.23437500  1230391.87500000 979489.43750000 
0.11300    30392738.00000000 19380776.00000000 48533680.00000000 12805.19335938  1212354.87500000 965216.56250000 
0.11400    30097488.00000000 19200556.00000000 48072272.00000000 12573.92578125  1194402.62500000 951009.50000000 
0.11500    29804010.00000000 19021402.00000000 47613204.00000000 12344.09667969  1176535.12500000 936857.37500000 
0.11600    29511688.00000000 18842828.00000000 47155800.00000000 12115.60058594  1158703.00000000 922749.81250000 
0.11700    29219746.00000000 18664428.00000000 46699200.00000000 11888.41308594  1140927.75000000 908667.25000000 
0.11800    28928156.00000000 18486012.00000000 46242780.00000000 11662.29101562  1123169.00000000 894590.81250000 
0.11900    28636240.00000000 18307412.00000000 45785988.00000000 11437.17382812  1105419.75000000 880530.62500000 
0.12000    28344130.00000000 18128324.00000000 45328024.00000000 11213.13964844  1087693.00000000 866464.06250000 
0.12100    28050844.00000000 17948588.00000000 44868936.00000000 10990.08789062  1069960.12500000 852388.25000000 
0.12200    27756832.00000000 17767934.00000000 44407344.00000000 10768.10644531  1052215.62500000 838307.68750000 
0.12300    27461170.00000000 17586306.00000000 43943828.00000000 10547.03320312  1034466.50000000 824213.93750000 
0.12400    27164056.00000000 17403526.00000000 43477400.00000000 10326.95019531  1016704.93750000 810103.06250000 
0.12500    26865350.00000000 17219502.00000000 43008276.00000000 10108.03710938  998929.93750000 795980.43750000 
0.12600    26564822.00000000 17034180.00000000 42536204.00000000 9890.21777344   981155.06250000 781842.62500000 
0.12700    26262262.00000000 16847508.00000000 42060956.00000000 9673.59570312   963358.37500000 767698.87500000 
0.12800    25957924.00000000 16659366.00000000 41582376.00000000 9458.27050781   945565.43750000 753542.62500000 
0.12900    25651710.00000000 16469798.00000000 41100352.00000000 9244.34179688   927779.56250000 739383.18750000 
0.13000    25343340.00000000 16278833.00000000 40614492.00000000 9031.94238281   909986.62500000 725224.50000000 
0.13100    25033038.00000000 16086358.00000000 40125492.00000000 8821.04589844   892221.75000000 711076.43750000 
0.13200    24720780.00000000 15892509.00000000 39633188.00000000 8611.98339844   874480.87500000 696939.87500000 
0.13300    24406700.00000000 15697313.00000000 39138064.00000000 8404.75488281   856766.00000000 682828.00000000 
0.13400    24090936.00000000 15500792.00000000 38639040.00000000 8199.44140625   839097.00000000 668743.68750000 
0.13500    23773458.00000000 15303110.00000000 38138020.00000000 7996.23095703   821477.37500000 654699.93750000 
0.13600    23454374.00000000 15104129.00000000 37633896.00000000 7795.25537109   803923.81250000 640697.68750000 
0.13700    23133902.00000000 14904148.00000000 37127456.00000000 7596.62939453   786447.31250000 626756.62500000 
0.13800    22812194.00000000 14703139.00000000 36618492.00000000 7400.51757812   769052.87500000 612874.68750000 
0.13900    22489678.00000000 14501180.00000000 36108204.00000000 7206.98583984   751759.68750000 599073.06250000 
0.14000    22166362.00000000 14298634.00000000 35596012.00000000 7016.14599609   734577.37500000 585352.00000000 
0.14100    21842150.00000000 14095463.00000000 35082584.00000000 6828.20751953   717518.81250000 571726.56250000 
0.14200    21517458.00000000 13891623.00000000 34568116.00000000 6643.18847656   700593.87500000 558205.93750000 
0.14300    21193002.00000000 13687710.00000000 34053264.00000000 6461.22070312   683811.62500000 544804.81250000 
0.14400    20868046.00000000 13483308.00000000 33537838.00000000 6282.40039062   667188.18750000 531516.12500000 
0.14500    20543438.00000000 13278974.00000000 33022648.00000000 6106.86621094   650739.87500000 518364.87500000 
0.14600    20219268.00000000 13074789.00000000 32507990.00000000 5934.66162109   634467.56250000 505353.75000000 
0.14700    19895890.00000000 12870720.00000000 31994106.00000000 5765.89208984   618394.56250000 492495.09375000 
0.14800    19573494.00000000 12667160.00000000 31481454.00000000 5600.62353516   602519.06250000 479795.34375000 
0.14900    19252108.00000000 12463996.00000000 30970264.00000000 5438.86083984   586851.25000000 467261.87500000 
0.15000    18931882.00000000 12261502.00000000 30461240.00000000 5280.74609375   571411.00000000 454902.28125000 
0.15100    18613674.00000000 12059794.00000000 29954232.00000000 5126.28662109   556199.37500000 442727.34375000 
0.15200    18297130.00000000 11859298.00000000 29450194.00000000 4975.54101562   541235.87500000 430746.25000000 
0.15300    17982614.00000000 11659659.00000000 28949076.00000000 4828.50390625   526512.50000000 418955.84375000 
0.15400    17670310.00000000 11461363.00000000 28451360.00000000 4685.23779297   512044.06250000 407367.25000000 
0.15500    17360468.00000000 11264416.00000000 27957360.00000000 4545.68554688   497841.00000000 395988.62500000 
0.15600    17053270.00000000 11068934.00000000 27467096.00000000 4409.94287109   483897.50000000 384823.87500000 
0.15700    16749087.00000000 10875180.00000000 26981152.00000000 4277.93994141   470237.65625000 373876.50000000 
0.15800    16447668.00000000 10683094.00000000 26499946.00000000 4149.69775391   456847.53125000 363146.25000000 
0.15900    16149541.00000000 10492917.00000000 26023704.00000000 4025.16479492   443744.21875000 352641.68750000 
0.16000    15854617.00000000 10304677.00000000 25552382.00000000 3904.37255859   430920.46875000 342366.03125000 
0.16100    15563384.00000000 10118496.00000000 25086760.00000000 3787.23413086   418390.31250000 332320.21875000 
0.16200    15275796.00000000 9934538.00000000 24626568.00000000 3673.69702148   406150.53125000 322504.06250000 
0.16300    14991853.00000000 9752829.00000000 24172404.00000000 3563.77978516   394202.25000000 312925.00000000 
0.16400    14711971.00000000 9573430.00000000 23724118.00000000 3457.39916992   382545.15625000 303575.81250000 
0.16500    14435930.00000000 9396526.00000000 23282156.00000000 3354.46582031   371180.31250000 294460.25000000 
0.16600    14164109.00000000 9222095.00000000 22846646.00000000 3254.95483398   360105.37500000 285580.43750000 
0.16700    13896419.00000000 9050173.00000000 22417520.00000000 3158.80004883   349321.90625000 276931.37500000 
0.16800    13633040.00000000 8880859.00000000 21995194.00000000 3065.88647461   338827.93750000 268514.93750000 
0.16900    13373930.00000000 8714323.00000000 21579716.00000000 2976.20532227   328627.37500000 260328.51562500 
0.17000    13119294.00000000 8550248.00000000 21170992.00000000 2889.64501953   318706.00000000 252369.96875000 
