# SAXS profile: number of points = 501, q_min = 0, q_max = 0.5, delta_q = 0.001
#    q    intensity 
0.00000    162237328.00000000 101201752.00000000 256271664.00000000 101133.20312500 8101330.50000000 6398408.50000000 
0.00100    162201888.00000000 101179200.00000000 256214336.00000000 101106.65625000 8099344.00000000 6396847.50000000 
0.00200    162095328.00000000 101112048.00000000 256044448.00000000 101026.66406250 8093396.00000000 6392171.00000000 
0.00300    161915008.00000000 101000136.00000000 255757616.00000000 100893.15625000 8083489.50000000 6384397.00000000 
0.00400    161661120.00000000 100843840.00000000 255360656.00000000 100706.57031250 8069639.00000000 6373514.50000000 
0.00500    161335920.00000000 100643184.00000000 254849824.00000000 100466.83593750 8051931.00000000 6359581.50000000 
0.00600    160937424.00000000 100398032.00000000 254225232.00000000 100174.98437500 8030284.00000000 6342555.50000000 
0.00700    160469968.00000000 100108704.00000000 253489696.00000000 99831.60937500  8004776.00000000 6322528.00000000 
0.00800    159930880.00000000 99777480.00000000 252646224.00000000 99436.67187500  7975467.00000000 6299540.50000000 
0.00900    159321744.00000000 99403288.00000000 251693008.00000000 98990.90625000  7942393.00000000 6273522.00000000 
0.01000    158646192.00000000 98987216.00000000 250631680.00000000 98494.96093750  7905631.50000000 6244614.00000000 
0.01100    157904016.00000000 98529184.00000000 249465312.00000000 97950.28125000  7865204.00000000 6212844.00000000 
0.01200    157096032.00000000 98030416.00000000 248194128.00000000 97357.97656250  7821154.50000000 6178219.50000000 
0.01300    156222992.00000000 97490872.00000000 246820240.00000000 96717.52343750  7773603.00000000 6140830.00000000 
0.01400    155283552.00000000 96912336.00000000 245346224.00000000 96031.64062500  7722613.00000000 6100734.00000000 
0.01500    154282256.00000000 96294512.00000000 243774560.00000000 95300.92187500  7668235.00000000 6058001.50000000 
0.01600    153220320.00000000 95639296.00000000 242107104.00000000 94525.39062500  7610554.00000000 6012694.50000000 
0.01700    152099184.00000000 94947728.00000000 240344976.00000000 93708.21093750  7549686.50000000 5964837.00000000 
0.01800    150920944.00000000 94220712.00000000 238493552.00000000 92849.18750000  7485732.00000000 5914544.50000000 
0.01900    149685792.00000000 93458384.00000000 236551792.00000000 91950.79687500  7418773.50000000 5861885.00000000 
0.02000    148396128.00000000 92662576.00000000 234526768.00000000 91013.64843750  7348882.50000000 5806953.00000000 
0.02100    147053824.00000000 91834464.00000000 232418336.00000000 90040.58593750  7276182.00000000 5749813.00000000 
0.02200    145661456.00000000 90975000.00000000 230229408.00000000 89030.92968750  7200815.50000000 5690510.50000000 
0.02300    144218944.00000000 90084992.00000000 227965152.00000000 87988.08593750  7122849.50000000 5629219.50000000 
0.02400    142731104.00000000 89166048.00000000 225625024.00000000 86913.10156250  7042427.50000000 5566000.00000000 
0.02500    141198400.00000000 88219616.00000000 223217088.00000000 85807.75781250  6959654.00000000 5500897.50000000 
0.02600    139622768.00000000 87247232.00000000 220739040.00000000 84673.25781250  6874650.00000000 5434065.50000000 
0.02700    138005808.00000000 86248848.00000000 218199536.00000000 83512.03125000  6787573.00000000 5365538.50000000 
0.02800    136352240.00000000 85227640.00000000 215599504.00000000 82325.14062500  6698503.50000000 5295474.00000000 
0.02900    134662080.00000000 84183288.00000000 212942976.00000000 81114.96093750  6607552.50000000 5223958.50000000 
0.03000    132938048.00000000 83117880.00000000 210232816.00000000 79883.11718750  6514884.00000000 5151041.50000000 
0.03100    131182960.00000000 82033328.00000000 207473120.00000000 78631.50781250  6420617.00000000 5076908.00000000 
0.03200    129398072.00000000 80930224.00000000 204667344.00000000 77361.50000000  6324881.00000000 5001581.50000000 
0.03300    127587456.00000000 79810672.00000000 201819280.00000000 76075.42968750  6227845.00000000 4925196.50000000 
0.03400    125750536.00000000 78675608.00000000 198931632.00000000 74774.53906250  6129538.00000000 4847872.50000000 
0.03500    123893224.00000000 77527192.00000000 196009392.00000000 73460.97656250  6030189.00000000 4769677.50000000 
0.03600    122014976.00000000 76365456.00000000 193056256.00000000 72136.31250000  5929902.50000000 4690705.50000000 
0.03700    120119280.00000000 75192848.00000000 190073184.00000000 70802.53906250  5828754.50000000 4611103.00000000 
0.03800    118208216.00000000 74010584.00000000 187067200.00000000 69461.66406250  5726934.00000000 4530952.00000000 
0.03900    116284472.00000000 72820328.00000000 184040672.00000000 68114.88281250  5624574.00000000 4450375.00000000 
0.04000    114349768.00000000 71623360.00000000 180996496.00000000 66764.78906250  5521756.50000000 4369425.50000000 
0.04100    112407320.00000000 70420864.00000000 177940320.00000000 65411.83984375  5418658.00000000 4288212.00000000 
0.04200    110457512.00000000 69214888.00000000 174872896.00000000 64058.73828125  5315355.50000000 4206880.50000000 
0.04300    108504464.00000000 68005448.00000000 171797824.00000000 62706.39062500  5211983.50000000 4125457.00000000 
0.04400    106549664.00000000 66793780.00000000 168720576.00000000 61356.96875000  5108632.00000000 4044076.50000000 
0.04500    104595016.00000000 65583140.00000000 165643872.00000000 60011.65234375  5005458.50000000 3962804.25000000 
0.04600    102643280.00000000 64373568.00000000 162571280.00000000 58672.19921875  4902602.50000000 3881734.25000000 
0.04700    100695240.00000000 63166284.00000000 159503632.00000000 57339.89453125  4800110.00000000 3800988.75000000 
0.04800    98753680.00000000 61962860.00000000 156446656.00000000 56016.41015625  4698119.00000000 3720605.75000000 
0.04900    96820984.00000000 60764428.00000000 153403216.00000000 54702.79296875  4596717.00000000 3640705.25000000 
0.05000    94899096.00000000 59572048.00000000 150374432.00000000 53399.88281250  4496032.00000000 3561331.25000000 
0.05100    92988520.00000000 58387168.00000000 147365712.00000000 52110.19531250  4396133.00000000 3482576.00000000 
0.05200    91092512.00000000 57210300.00000000 144377504.00000000 50834.16796875  4297120.00000000 3404522.00000000 
0.05300    89212160.00000000 56043084.00000000 141414160.00000000 49573.21484375  4199109.00000000 3327213.25000000 
0.05400    87348352.00000000 54886296.00000000 138477792.00000000 48328.08593750  4102160.25000000 3250747.25000000 
0.05500    85504432.00000000 53740928.00000000 135570720.00000000 47099.77343750  4006336.50000000 3175180.75000000 
0.05600    83679840.00000000 52608128.00000000 132696296.00000000 45889.53515625  3911740.50000000 3100561.25000000 
0.05700    81877768.00000000 51488144.00000000 129855048.00000000 44698.25390625  3818482.00000000 3026966.50000000 
0.05800    80099016.00000000 50382712.00000000 127049624.00000000 43526.73437500  3726531.00000000 2954422.25000000 
0.05900    78344760.00000000 49291884.00000000 124282800.00000000 42375.51562500  3636047.25000000 2883016.00000000 
0.06000    76615384.00000000 48217128.00000000 121556336.00000000 41245.78906250  3547043.00000000 2812748.75000000 
0.06100    74913760.00000000 47158560.00000000 118871952.00000000 40137.82812500  3459583.25000000 2743678.00000000 
0.06200    73240056.00000000 46116880.00000000 116231168.00000000 39052.09375000  3373710.25000000 2675885.25000000 
0.06300    71595408.00000000 45093544.00000000 113635984.00000000 37989.69140625  3289480.25000000 2609378.00000000 
0.06400    69980408.00000000 44087556.00000000 111086992.00000000 36950.10156250  3206927.00000000 2544166.00000000 
0.06500    68396216.00000000 43100860.00000000 108586160.00000000 35934.75390625  3126083.50000000 2480303.75000000 
0.06600    66843536.00000000 42133552.00000000 106135280.00000000 34943.41796875  3047026.50000000 2417837.75000000 
0.06700    65322616.00000000 41186248.00000000 103734752.00000000 33976.20703125  2969718.25000000 2356748.00000000 
0.06800    63834900.00000000 40258420.00000000 101384384.00000000 33033.46093750  2894207.75000000 2297064.00000000 
0.06900    62380328.00000000 39351756.00000000 99087416.00000000 32115.68359375  2820539.50000000 2238831.00000000 
0.07000    60959440.00000000 38465392.00000000 96842544.00000000 31222.92382812  2748701.25000000 2182035.75000000 
0.07100    59572604.00000000 37600228.00000000 94652280.00000000 30354.74218750  2678707.75000000 2126675.75000000 
0.07200    58220468.00000000 36755880.00000000 92515168.00000000 29511.40429688  2610575.25000000 2072776.87500000 
0.07300    56902932.00000000 35933392.00000000 90433096.00000000 28692.82031250  2544294.75000000 2020356.75000000 
0.07400    55619944.00000000 35132184.00000000 88405048.00000000 27898.96679688  2479872.50000000 1969381.75000000 
0.07500    54371876.00000000 34352380.00000000 86431864.00000000 27129.30273438  2417296.75000000 1919869.62500000 
0.07600    53158604.00000000 33594180.00000000 84513600.00000000 26384.07812500  2356581.50000000 1871802.75000000 
0.07700    51980284.00000000 32857310.00000000 82650088.00000000 25662.80664062  2297689.00000000 1825174.37500000 
0.07800    50836972.00000000 32142136.00000000 80841200.00000000 24965.25781250  2240594.25000000 1779988.50000000 
0.07900    49727704.00000000 31448404.00000000 79087064.00000000 24290.92773438  2185321.25000000 1736210.37500000 
0.08000    48653004.00000000 30775686.00000000 77386440.00000000 23639.69921875  2131812.50000000 1693820.12500000 
0.08100    47612152.00000000 30124466.00000000 75740240.00000000 23010.59765625  2080090.87500000 1652839.62500000 
0.08200    46605336.00000000 29493836.00000000 74145648.00000000 22404.01757812  2030051.37500000 1613203.75000000 
0.08300    45631536.00000000 28883848.00000000 72604192.00000000 21818.71875000  1981732.25000000 1574899.87500000 
0.08400    44690384.00000000 28294324.00000000 71114432.00000000 21254.66992188  1935070.50000000 1537924.75000000 
0.08500    43781684.00000000 27724944.00000000 69675880.00000000 20711.25195312  1890033.87500000 1502212.62500000 
0.08600    42904608.00000000 27175168.00000000 68286928.00000000 20187.69531250  1846606.62500000 1467780.37500000 
0.08700    42059184.00000000 26644910.00000000 66947896.00000000 19683.63085938  1804707.00000000 1434563.62500000 
0.08800    41243696.00000000 26133622.00000000 65656088.00000000 19198.35351562  1764339.87500000 1402538.37500000 
0.08900    40457984.00000000 25640910.00000000 64411520.00000000 18731.32812500  1725450.37500000 1371687.75000000 
0.09000    39702012.00000000 25166446.00000000 63213520.00000000 18281.97460938  1687979.87500000 1341959.12500000 
0.09100    38974084.00000000 24709702.00000000 62060748.00000000 17849.59179688  1651916.25000000 1313338.12500000 
0.09200    38273692.00000000 24270154.00000000 60951252.00000000 17433.55468750  1617165.12500000 1285768.75000000 
0.09300    37600448.00000000 23847494.00000000 59883524.00000000 17033.16796875  1583725.87500000 1259222.75000000 
0.09400    36952908.00000000 23441118.00000000 58857972.00000000 16647.97851562  1551522.25000000 1233661.62500000 
0.09500    36330788.00000000 23050542.00000000 57872036.00000000 16277.06054688  1520529.12500000 1209057.62500000 
0.09600    35733128.00000000 22675192.00000000 56924448.00000000 15920.01074219  1490670.25000000 1185358.75000000 
0.09700    35158476.00000000 22314556.00000000 56014020.00000000 15576.15722656  1461937.62500000 1162538.50000000 
0.09800    34606832.00000000 21968344.00000000 55140216.00000000 15244.60449219  1434241.12500000 1140560.12500000 
0.09900    34076668.00000000 21635554.00000000 54300044.00000000 14925.01953125  1407553.75000000 1119361.12500000 
0.10000    33567628.00000000 21316018.00000000 53493164.00000000 14616.54394531  1381831.50000000 1098941.25000000 
0.10100    33077836.00000000 21009044.00000000 52717928.00000000 14318.90820312  1357012.50000000 1079237.75000000 
0.10200    32607940.00000000 20713736.00000000 51973024.00000000 14031.14550781  1333058.87500000 1060216.12500000 
0.10300    32155670.00000000 20430430.00000000 51256696.00000000 13752.83105469  1309916.75000000 1041836.56250000 
0.10400    31720602.00000000 20157600.00000000 50567856.00000000 13483.49804688  1287556.50000000 1024074.12500000 
0.10500    31302178.00000000 19895420.00000000 49905208.00000000 13222.47656250  1265912.87500000 1006894.00000000 
0.10600    30899102.00000000 19642870.00000000 49266740.00000000 12969.12890625  1244957.00000000 990255.25000000 
0.10700    30510756.00000000 19399518.00000000 48651596.00000000 12723.05175781  1224629.00000000 974113.43750000 
0.10800    30135618.00000000 19164848.00000000 48058604.00000000 12483.74804688  1204896.12500000 958449.25000000 
0.10900    29773696.00000000 18938444.00000000 47486024.00000000 12250.67480469  1185709.00000000 943225.18750000 
0.11000    29423854.00000000 18719648.00000000 46932700.00000000 12023.58789062  1167046.37500000 928407.75000000 
0.11100    29085042.00000000 18508158.00000000 46396976.00000000 11801.78417969  1148855.25000000 913972.87500000 
0.11200    28756728.00000000 18303170.00000000 45878112.00000000 11585.02441406  1131098.12500000 899887.81250000 
0.11300    28438024.00000000 18104392.00000000 45374740.00000000 11372.66992188  1113748.37500000 886114.87500000 
0.11400    28128276.00000000 17911344.00000000 44885612.00000000 11164.64843750  1096767.00000000 872648.56250000 
0.11500    27826756.00000000 17723694.00000000 44409556.00000000 10960.53613281  1080122.75000000 859443.68750000 
0.11600    27532552.00000000 17540592.00000000 43945652.00000000 10759.85546875  1063782.00000000 846481.50000000 
0.11700    27245374.00000000 17362088.00000000 43492360.00000000 10562.46972656  1047715.62500000 833744.81250000 
0.11800    26963988.00000000 17187364.00000000 43048904.00000000 10368.03906250  1031894.87500000 821198.62500000 
0.11900    26688128.00000000 17016132.00000000 42614060.00000000 10176.28125000  1016296.06250000 808829.50000000 
0.12000    26417398.00000000 16848194.00000000 42187476.00000000 9986.99804688   1000891.06250000 796615.06250000 
0.12100    26150876.00000000 16683022.00000000 41767652.00000000 9800.00683594   985665.87500000 784548.56250000 
0.12200    25887986.00000000 16520271.00000000 41354132.00000000 9615.04003906   970593.18750000 772600.37500000 
0.12300    25628626.00000000 16359695.00000000 40945696.00000000 9432.05371094   955650.12500000 760759.12500000 
0.12400    25371942.00000000 16201014.00000000 40541868.00000000 9250.77539062   940834.93750000 749010.93750000 
0.12500    25117416.00000000 16043722.00000000 40141692.00000000 9071.08007812   926114.75000000 737340.56250000 
0.12600    24864984.00000000 15887692.00000000 39744720.00000000 8893.04589844   911480.43750000 725749.68750000 
0.12700    24614004.00000000 15732807.00000000 39350068.00000000 8716.28417969   896930.43750000 714209.31250000 
0.12800    24363962.00000000 15578558.00000000 38957364.00000000 8541.02929688   882430.31250000 702716.87500000 
0.12900    24114890.00000000 15424887.00000000 38566056.00000000 8367.03613281   867995.31250000 691267.75000000 
0.13000    23866362.00000000 15271455.00000000 38175312.00000000 8194.30761719   853600.25000000 679852.37500000 
0.13100    23617900.00000000 15118136.00000000 37784948.00000000 8022.85156250   839238.50000000 668469.56250000 
0.13200    23369500.00000000 14964888.00000000 37394560.00000000 7852.65039062   824917.68750000 657104.81250000 
0.13300    23120828.00000000 14811498.00000000 37003628.00000000 7683.69140625   810626.06250000 645771.56250000 
0.13400    22871688.00000000 14657700.00000000 36612092.00000000 7516.02050781   796355.37500000 634448.18750000 
0.13500    22622012.00000000 14503493.00000000 36219580.00000000 7349.65722656   782116.87500000 623143.31250000 
0.13600    22371344.00000000 14348803.00000000 35825412.00000000 7184.58789062   767895.56250000 611860.18750000 
0.13700    22119870.00000000 14193483.00000000 35430056.00000000 7020.92626953   753703.75000000 600591.31250000 
0.13800    21867376.00000000 14037508.00000000 35032884.00000000 6858.76660156   739532.37500000 589335.12500000 
0.13900    21613858.00000000 13880829.00000000 34633928.00000000 6698.10498047   725397.68750000 578105.31250000 
0.14000    21359256.00000000 13723372.00000000 34233356.00000000 6539.02734375   711296.12500000 566898.25000000 
0.14100    21103466.00000000 13565039.00000000 33830788.00000000 6381.61230469   697234.25000000 555714.06250000 
0.14200    20846506.00000000 13405941.00000000 33426130.00000000 6225.96044922   683201.25000000 544558.62500000 
0.14300    20588402.00000000 13245996.00000000 33019768.00000000 6072.13769531   669227.56250000 533441.18750000 
0.14400    20329154.00000000 13085244.00000000 32611206.00000000 5920.18408203   655301.81250000 522357.96875000 
0.14500    20068944.00000000 12923703.00000000 32201038.00000000 5770.32763672   641441.12500000 511319.65625000 
0.14600    19807728.00000000 12761417.00000000 31789042.00000000 5622.52001953   627645.75000000 500334.65625000 
0.14700    19545608.00000000 12598467.00000000 31375536.00000000 5476.96972656   613932.06250000 489404.46875000 
0.14800    19282638.00000000 12434793.00000000 30960300.00000000 5333.62841797   600291.12500000 478533.37500000 
0.14900    19018950.00000000 12270522.00000000 30543786.00000000 5192.66943359   586748.06250000 467731.37500000 
0.15000    18754596.00000000 12105711.00000000 30126364.00000000 5054.15380859   573302.68750000 457004.06250000 
0.15100    18489824.00000000 11940376.00000000 29707528.00000000 4918.21630859   559967.12500000 446361.00000000 
0.15200    18224596.00000000 11774805.00000000 29288314.00000000 4784.89501953   546753.37500000 435805.46875000 
0.15300    17959278.00000000 11608785.00000000 28868548.00000000 4654.26855469   533661.87500000 425344.34375000 
0.15400    17693866.00000000 11442577.00000000 28448100.00000000 4526.35253906   520699.65625000 414985.78125000 
0.15500    17428524.00000000 11276288.00000000 28027852.00000000 4401.28320312   507890.53125000 404737.25000000 
0.15600    17163386.00000000 11109920.00000000 27607738.00000000 4279.10009766   495223.96875000 394604.18750000 
0.15700    16898886.00000000 10943685.00000000 27188092.00000000 4159.92382812   482721.78125000 384592.62500000 
0.15800    16634674.00000000 10777587.00000000 26769036.00000000 4043.64599609   470381.93750000 374709.06250000 
0.15900    16371416.00000000 10611792.00000000 26350988.00000000 3930.42846680   458220.90625000 364964.53125000 
0.16000    16108954.00000000 10446397.00000000 25934102.00000000 3820.27905273   446239.25000000 355356.65625000 
0.16100    15847797.00000000 10281462.00000000 25518730.00000000 3713.22460938   434451.56250000 345900.15625000 
0.16200    15587694.00000000 10117153.00000000 25105132.00000000 3609.30737305   422856.50000000 336592.84375000 
0.16300    15329158.00000000 9953528.00000000 24693670.00000000 3508.47460938   411461.96875000 327444.71875000 
0.16400    15072192.00000000 9790741.00000000 24284338.00000000 3410.79077148   400280.90625000 318454.43750000 
0.16500    14816953.00000000 9628851.00000000 23877704.00000000 3316.25415039   389308.96875000 309635.37500000 
0.16600    14563688.00000000 9468057.00000000 23473904.00000000 3224.80932617   378556.50000000 300984.46875000 
0.16700    14312419.00000000 9308297.00000000 23073018.00000000 3136.49536133   368024.71875000 292506.31250000 
0.16800    14063350.00000000 9149756.00000000 22675464.00000000 3051.24121094   357717.65625000 284205.87500000 
0.16900    13816738.00000000 8992576.00000000 22281488.00000000 2969.08886719   347642.68750000 276089.62500000 
0.17000    13572563.00000000 8836774.00000000 21891260.00000000 2889.90551758   337798.87500000 268151.81250000 
