# SAXS profile: number of points = 501, q_min = 0, q_max = 0.5, delta_q = 0.001
#    q    intensity 
0.00000    162232528.00000000 101202280.00000000 256270208.00000000 102057.17187500 8138233.00000000 6427553.50000000 
0.00100    162195680.00000000 101177568.00000000 256207536.00000000 102025.25781250 8135988.00000000 6425749.00000000 
0.00200    162081536.00000000 101102760.00000000 256020000.00000000 101930.48437500 8129112.50000000 6420391.50000000 
0.00300    161886160.00000000 100980024.00000000 255705824.00000000 101772.28125000 8117672.00000000 6411399.50000000 
0.00400    161606144.00000000 100807528.00000000 255267248.00000000 101550.59375000 8101731.00000000 6398888.00000000 
0.00500    161243440.00000000 100586072.00000000 254703056.00000000 101267.23437500 8081374.00000000 6382792.00000000 
0.00600    160805168.00000000 100315048.00000000 254015600.00000000 100922.40625000 8056408.50000000 6363252.00000000 
0.00700    160287408.00000000 99998896.00000000 253208464.00000000 100516.22656250 8027185.50000000 6340211.50000000 
0.00800    159691872.00000000 99634728.00000000 252280224.00000000 100050.29687500 7993537.50000000 6313802.50000000 
0.00900    159025216.00000000 99224640.00000000 251230768.00000000 99524.70312500  7955635.50000000 6284010.00000000 
0.01000    158285616.00000000 98768144.00000000 250067552.00000000 98941.99218750  7913528.50000000 6250951.50000000 
0.01100    157473808.00000000 98265376.00000000 248786592.00000000 98303.07031250  7867287.50000000 6214591.50000000 
0.01200    156584656.00000000 97718216.00000000 247394672.00000000 97608.01562500  7817089.50000000 6175072.50000000 
0.01300    155625216.00000000 97127896.00000000 245892560.00000000 96859.90625000  7762880.00000000 6132500.50000000 
0.01400    154600960.00000000 96495744.00000000 244282240.00000000 96060.24218750  7704911.50000000 6086924.50000000 
0.01500    153509200.00000000 95823312.00000000 242568080.00000000 95209.38281250  7643214.50000000 6038428.50000000 
0.01600    152351824.00000000 95110280.00000000 240749648.00000000 94310.32812500  7577928.50000000 5987123.50000000 
0.01700    151132256.00000000 94358752.00000000 238835680.00000000 93365.39843750  7509225.00000000 5933084.00000000 
0.01800    149852000.00000000 93569512.00000000 236824272.00000000 92375.40625000  7437189.50000000 5876454.00000000 
0.01900    148514352.00000000 92743736.00000000 234723360.00000000 91342.87500000  7361990.50000000 5817274.00000000 
0.02000    147117264.00000000 91883784.00000000 232531984.00000000 90269.91406250  7283686.00000000 5755718.50000000 
0.02100    145669424.00000000 90990544.00000000 230254192.00000000 89159.31250000  7202543.50000000 5691859.00000000 
0.02200    144170176.00000000 90064152.00000000 227898192.00000000 88012.89062500  7118623.50000000 5625850.00000000 
0.02300    142620320.00000000 89108960.00000000 225464880.00000000 86832.23437500  7032124.50000000 5557829.50000000 
0.02400    141025328.00000000 88124048.00000000 222957904.00000000 85620.08593750  6943194.00000000 5487828.50000000 
0.02500    139386896.00000000 87111480.00000000 220381824.00000000 84379.75000000  6851975.00000000 5416090.50000000 
0.02600    137705136.00000000 86073384.00000000 217741168.00000000 83111.79687500  6758666.50000000 5342648.50000000 
0.02700    135985488.00000000 85012168.00000000 215039952.00000000 81820.75781250  6663430.50000000 5267686.00000000 
0.02800    134231936.00000000 83927888.00000000 212280576.00000000 80507.17187500  6566330.00000000 5191295.00000000 
0.02900    132444384.00000000 82823384.00000000 209468864.00000000 79174.21093750  6467670.00000000 5113619.00000000 
0.03000    130626496.00000000 81698488.00000000 206610032.00000000 77824.30468750  6367553.00000000 5034798.50000000 
0.03100    128780592.00000000 80557528.00000000 203706400.00000000 76459.75000000  6266095.50000000 4954927.00000000 
0.03200    126908872.00000000 79400616.00000000 200763328.00000000 75082.79687500  6163526.00000000 4874155.00000000 
0.03300    125016584.00000000 78229936.00000000 197787056.00000000 73696.27343750  6060065.50000000 4792658.50000000 
0.03400    123103936.00000000 77047056.00000000 194778544.00000000 72301.32031250  5955732.00000000 4710579.50000000 
0.03500    121175160.00000000 75853832.00000000 191744272.00000000 70901.71093750  5850758.50000000 4627867.50000000 
0.03600    119232312.00000000 74650984.00000000 188685152.00000000 69498.40625000  5745302.50000000 4544825.00000000 
0.03700    117278464.00000000 73439888.00000000 185609424.00000000 68093.72656250  5639473.50000000 4461466.50000000 
0.03800    115315000.00000000 72223872.00000000 182518176.00000000 66690.10937500  5533486.00000000 4377945.50000000 
0.03900    113346216.00000000 71003608.00000000 179418592.00000000 65288.93359375  5427487.50000000 4294408.50000000 
0.04000    111372624.00000000 69780128.00000000 176311488.00000000 63892.71093750  5321543.50000000 4210863.00000000 
0.04100    109398560.00000000 68556440.00000000 173201408.00000000 62503.03906250  5215826.50000000 4127557.75000000 
0.04200    107425880.00000000 67332080.00000000 170094096.00000000 61122.00390625  5110583.50000000 4044531.50000000 
0.04300    105457376.00000000 66110376.00000000 166991600.00000000 59751.02343750  5005701.00000000 3961882.50000000 
0.04400    103493600.00000000 64890952.00000000 163896800.00000000 58391.59765625  4901532.00000000 3879706.50000000 
0.04500    101538312.00000000 63677164.00000000 160814480.00000000 57045.73437500  4798031.50000000 3798114.50000000 
0.04600    99593536.00000000 62468760.00000000 157748800.00000000 55714.40625000  4695459.00000000 3717182.25000000 
0.04700    97660272.00000000 61268076.00000000 154701600.00000000 54399.45312500  4593811.00000000 3636982.25000000 
0.04800    95741208.00000000 60075620.00000000 151676048.00000000 53101.41796875  4493256.00000000 3557652.25000000 
0.04900    93839072.00000000 58892540.00000000 148675712.00000000 51821.90234375  4393828.00000000 3479201.75000000 
0.05000    91954200.00000000 57720484.00000000 145704512.00000000 50562.10156250  4295619.50000000 3401710.25000000 
0.05100    90089728.00000000 56560032.00000000 142761728.00000000 49323.08593750  4198830.00000000 3325279.25000000 
0.05200    88245672.00000000 55412212.00000000 139852000.00000000 48104.92187500  4103368.00000000 3249943.75000000 
0.05300    86425216.00000000 54278820.00000000 136979152.00000000 46909.15234375  4009432.25000000 3175773.75000000 
0.05400    84629152.00000000 53159716.00000000 134144304.00000000 45736.57812500  3917037.25000000 3102796.50000000 
0.05500    82857432.00000000 52055948.00000000 131348392.00000000 44587.32031250  3826209.00000000 3031093.25000000 
0.05600    81113960.00000000 50969528.00000000 128594728.00000000 43461.96093750  3737073.75000000 2960666.75000000 
0.05700    79397704.00000000 49899496.00000000 125884304.00000000 42361.10156250  3649650.75000000 2891598.75000000 
0.05800    77711560.00000000 48847408.00000000 123219776.00000000 41285.41406250  3563945.50000000 2823878.75000000 
0.05900    76053824.00000000 47814020.00000000 120602424.00000000 40234.53906250  3480055.50000000 2757566.50000000 
0.06000    74427360.00000000 46798936.00000000 118033600.00000000 39209.11328125  3397926.25000000 2692694.25000000 
0.06100    72832752.00000000 45803420.00000000 115513736.00000000 38208.96875000  3317651.00000000 2629257.25000000 
0.06200    71271000.00000000 44828232.00000000 113045136.00000000 37234.08203125  3239254.50000000 2567259.75000000 
0.06300    69742112.00000000 43872884.00000000 110627896.00000000 36285.03125000  3162709.75000000 2506773.00000000 
0.06400    68245704.00000000 42938732.00000000 108263056.00000000 35361.03906250  3088027.25000000 2447705.00000000 
0.06500    66783952.00000000 42024716.00000000 105951896.00000000 34462.10156250  3015215.25000000 2390138.50000000 
0.06600    65356760.00000000 41132200.00000000 103693376.00000000 33588.42187500  2944281.25000000 2334044.75000000 
0.06700    63962976.00000000 40261000.00000000 101490536.00000000 32739.01562500  2875246.50000000 2279451.00000000 
0.06800    62604224.00000000 39411184.00000000 99341600.00000000 31914.15429688  2808041.25000000 2226287.50000000 
0.06900    61279712.00000000 38582796.00000000 97246512.00000000 31113.36523438  2742679.25000000 2174600.25000000 
0.07000    59990256.00000000 37775864.00000000 95206168.00000000 30335.71093750  2679155.25000000 2124353.75000000 
0.07100    58735432.00000000 36990988.00000000 93220904.00000000 29581.56640625  2617433.25000000 2075501.50000000 
0.07200    57514580.00000000 36226784.00000000 91289168.00000000 28850.11718750  2557483.00000000 2028104.87500000 
0.07300    56328280.00000000 35484424.00000000 89412840.00000000 28140.72265625  2499308.25000000 1982075.37500000 
0.07400    55175640.00000000 34762444.00000000 87588944.00000000 27452.89062500  2442855.00000000 1937400.12500000 
0.07500    54056756.00000000 34062176.00000000 85818184.00000000 26786.21875000  2388079.75000000 1894063.50000000 
0.07600    52970880.00000000 33383090.00000000 84099776.00000000 26139.70898438  2334962.00000000 1852037.75000000 
0.07700    51917772.00000000 32723940.00000000 82434128.00000000 25513.32031250  2283483.00000000 1811290.37500000 
0.07800    50897456.00000000 32085024.00000000 80818728.00000000 24906.08984375  2233548.50000000 1771802.12500000 
0.07900    49908340.00000000 31466018.00000000 79253544.00000000 24317.37695312  2185154.25000000 1733510.25000000 
0.08000    48950500.00000000 30866598.00000000 77738608.00000000 23746.83984375  2138264.75000000 1696403.12500000 
0.08100    48023204.00000000 30286314.00000000 76271088.00000000 23193.45312500  2092810.75000000 1660462.12500000 
0.08200    47125640.00000000 29724586.00000000 74851256.00000000 22657.00195312  2048773.50000000 1625614.62500000 
0.08300    46257140.00000000 29181362.00000000 73476920.00000000 22136.62890625  2006091.25000000 1591845.50000000 
0.08400    45417168.00000000 28656222.00000000 72148912.00000000 21631.73437500  1964720.25000000 1559133.25000000 
0.08500    44605092.00000000 28148194.00000000 70863880.00000000 21141.75781250  1924627.87500000 1527417.00000000 
0.08600    43819320.00000000 27657684.00000000 69622136.00000000 20666.00390625  1885756.37500000 1496677.00000000 
0.08700    43060080.00000000 27183272.00000000 68422984.00000000 20204.06835938  1848054.62500000 1466865.75000000 
0.08800    42325712.00000000 26725090.00000000 67261704.00000000 19755.12890625  1811488.62500000 1437948.50000000 
0.08900    41616344.00000000 26282096.00000000 66141472.00000000 19319.04492188  1776005.87500000 1409901.00000000 
0.09000    40930332.00000000 25854172.00000000 65057432.00000000 18894.85351562  1741563.12500000 1382661.00000000 
0.09100    40266948.00000000 25440820.00000000 64009764.00000000 18482.08984375  1708106.50000000 1356207.75000000 
0.09200    39625816.00000000 25041306.00000000 62997856.00000000 18080.46679688  1675604.87500000 1330526.37500000 
0.09300    39005832.00000000 24655262.00000000 62019444.00000000 17689.26953125  1644020.87500000 1305557.62500000 
0.09400    38405724.00000000 24281866.00000000 61072676.00000000 17308.17187500  1613291.62500000 1281273.00000000 
0.09500    37824988.00000000 23920986.00000000 60156892.00000000 16936.79296875  1583386.25000000 1257645.37500000 
0.09600    37263528.00000000 23571992.00000000 59271460.00000000 16574.46484375  1554275.12500000 1234635.37500000 
0.09700    36719376.00000000 23234034.00000000 58413428.00000000 16220.89941406  1525904.25000000 1212218.25000000 
0.09800    36192052.00000000 22907072.00000000 57582484.00000000 15875.73535156  1498254.37500000 1190367.50000000 
0.09900    35680736.00000000 22590148.00000000 56777884.00000000 15538.86230469  1471265.62500000 1169045.37500000 
0.10000    35185072.00000000 22283192.00000000 55997192.00000000 15209.42675781  1444924.50000000 1148241.50000000 
0.10100    34703412.00000000 21985244.00000000 55240024.00000000 14887.46777344  1419184.75000000 1127899.00000000 
0.10200    34235728.00000000 21696182.00000000 54504040.00000000 14572.55957031  1394014.25000000 1108019.62500000 
0.10300    33781124.00000000 21415328.00000000 53788800.00000000 14264.49707031  1369400.50000000 1088578.87500000 
0.10400    33338452.00000000 21142252.00000000 53093284.00000000 13962.82519531  1345297.75000000 1069533.25000000 
0.10500    32907678.00000000 20876580.00000000 52416572.00000000 13667.69042969  1321675.62500000 1050871.62500000 
0.10600    32487470.00000000 20617564.00000000 51756992.00000000 13378.43457031  1298521.62500000 1032567.18750000 
0.10700    32077546.00000000 20364960.00000000 51113556.00000000 13095.06347656  1275808.62500000 1014613.31250000 
0.10800    31677070.00000000 20118664.00000000 50485008.00000000 12817.38281250  1253505.62500000 996982.43750000 
0.10900    31285512.00000000 19877868.00000000 49870560.00000000 12545.16015625  1231594.62500000 979666.87500000 
0.11000    30902414.00000000 19642432.00000000 49269852.00000000 12278.21875000  1210048.50000000 962636.31250000 
0.11100    30526628.00000000 19411544.00000000 48680600.00000000 12016.48339844  1188872.62500000 945880.37500000 
0.11200    30158096.00000000 19185590.00000000 48103224.00000000 11759.65722656  1168007.87500000 929392.93750000 
0.11300    29796278.00000000 18963492.00000000 47535788.00000000 11507.69238281  1147481.50000000 913149.93750000 
0.11400    29440650.00000000 18745210.00000000 46978400.00000000 11260.54492188  1127253.50000000 897141.50000000 
0.11500    29090660.00000000 18530660.00000000 46429796.00000000 11018.00683594  1107307.00000000 881363.87500000 
0.11600    28745628.00000000 18319284.00000000 45889328.00000000 10779.98437500  1087646.37500000 865797.56250000 
0.11700    28405446.00000000 18110758.00000000 45356768.00000000 10546.41894531  1068252.75000000 850433.93750000 
0.11800    28069836.00000000 17904898.00000000 44830820.00000000 10317.10449219  1049104.75000000 835266.75000000 
0.11900    27737848.00000000 17701558.00000000 44311004.00000000 10092.08105469  1030201.81250000 820294.75000000 
0.12000    27409742.00000000 17500358.00000000 43796304.00000000 9871.19824219   1011532.06250000 805495.00000000 
0.12100    27084884.00000000 17300914.00000000 43287316.00000000 9654.41992188   993098.81250000 790877.93750000 
0.12200    26762930.00000000 17103392.00000000 42782804.00000000 9441.59375000   974872.75000000 776425.56250000 
0.12300    26443800.00000000 16907540.00000000 42281924.00000000 9232.70410156   956873.56250000 762143.93750000 
0.12400    26126834.00000000 16712777.00000000 41784840.00000000 9027.74218750   939065.62500000 748008.37500000 
0.12500    25812284.00000000 16519617.00000000 41291720.00000000 8826.42675781   921474.50000000 734042.50000000 
0.12600    25499644.00000000 16327505.00000000 40801328.00000000 8629.06054688   904084.62500000 720222.37500000 
0.12700    25189002.00000000 16136204.00000000 40313640.00000000 8435.30664062   886882.50000000 706559.06250000 
0.12800    24879606.00000000 15945718.00000000 39827844.00000000 8245.10839844   869870.93750000 693037.62500000 
0.12900    24571970.00000000 15756010.00000000 39344328.00000000 8058.43505859   853042.06250000 679654.87500000 
0.13000    24265512.00000000 15567070.00000000 38862916.00000000 7875.37597656   836409.87500000 666430.56250000 
0.13100    23960298.00000000 15378646.00000000 38383060.00000000 7695.59228516   819957.00000000 653334.00000000 
0.13200    23656098.00000000 15190641.00000000 37904400.00000000 7519.25292969   803683.81250000 640378.06250000 
0.13300    23352988.00000000 15003186.00000000 37427312.00000000 7346.30761719   787594.06250000 627571.93750000 
0.13400    23051044.00000000 14816006.00000000 36951928.00000000 7176.56005859   771689.75000000 614901.31250000 
0.13500    22749516.00000000 14629175.00000000 36476956.00000000 7010.03027344   755967.50000000 602370.81250000 
0.13600    22449086.00000000 14442704.00000000 36003444.00000000 6846.62597656   740417.00000000 589983.50000000 
0.13700    22149496.00000000 14256735.00000000 35530964.00000000 6686.36474609   725052.75000000 577732.75000000 
0.13800    21850916.00000000 14070995.00000000 35059684.00000000 6529.10351562   709868.87500000 565620.31250000 
0.13900    21552942.00000000 13885396.00000000 34589572.00000000 6374.86767578   694862.18750000 553649.18750000 
0.14000    21255846.00000000 13700143.00000000 34119804.00000000 6223.58447266   680041.62500000 541819.12500000 
0.14100    20959740.00000000 13515356.00000000 33651476.00000000 6075.14794922   665407.25000000 530138.37500000 
0.14200    20664514.00000000 13330805.00000000 33184684.00000000 5929.57666016   650944.31250000 518597.90625000 
0.14300    20370190.00000000 13146674.00000000 32718994.00000000 5786.83496094   636673.37500000 507200.31250000 
0.14400    20076814.00000000 12962868.00000000 32254296.00000000 5646.74316406   622585.93750000 495945.31250000 
0.14500    19784416.00000000 12779731.00000000 31791354.00000000 5509.45214844   608689.43750000 484842.68750000 
0.14600    19493364.00000000 12596931.00000000 31329814.00000000 5374.81005859   594979.68750000 473884.15625000 
0.14700    19203338.00000000 12414725.00000000 30870016.00000000 5242.84179688   581451.81250000 463078.03125000 
0.14800    18914678.00000000 12233102.00000000 30411936.00000000 5113.36376953   568123.62500000 452418.09375000 
0.14900    18627402.00000000 12052174.00000000 29955634.00000000 4986.46289062   554984.06250000 441914.50000000 
0.15000    18341412.00000000 11871861.00000000 29501596.00000000 4862.11914062   542033.87500000 431558.65625000 
0.15100    18057188.00000000 11692365.00000000 29049634.00000000 4740.25488281   529282.25000000 421357.34375000 
0.15200    17774690.00000000 11513778.00000000 28600308.00000000 4620.89599609   516721.50000000 411314.37500000 
0.15300    17493706.00000000 11336160.00000000 28153328.00000000 4503.94873047   504366.78125000 401425.34375000 
0.15400    17214372.00000000 11159329.00000000 27708942.00000000 4389.36035156   492200.87500000 391692.78125000 
0.15500    16937590.00000000 10983735.00000000 27267534.00000000 4277.18945312   480241.43750000 382121.81250000 
0.15600    16662456.00000000 10809059.00000000 26829374.00000000 4167.45263672   468482.81250000 372710.65625000 
0.15700    16389783.00000000 10635755.00000000 26394326.00000000 4060.06469727   456924.18750000 363456.84375000 
0.15800    16119039.00000000 10463647.00000000 25962416.00000000 3954.99047852   445567.43750000 354365.40625000 
0.15900    15850697.00000000 10292850.00000000 25534258.00000000 3852.25976562   434420.56250000 345437.31250000 
0.16000    15584879.00000000 10123449.00000000 25109910.00000000 3751.81933594   423474.40625000 336672.84375000 
0.16100    15321714.00000000 9955575.00000000 24689222.00000000 3653.76904297   412735.90625000 328073.00000000 
0.16200    15061017.00000000 9789190.00000000 24272670.00000000 3557.96362305   402205.75000000 319640.28125000 
0.16300    14803293.00000000 9624485.00000000 23860444.00000000 3464.47412109   391884.00000000 311369.68750000 
0.16400    14548153.00000000 9461376.00000000 23452388.00000000 3373.28564453   381768.68750000 303268.50000000 
0.16500    14296185.00000000 9299937.00000000 23049132.00000000 3284.42041016   371862.40625000 295331.56250000 
0.16600    14047130.00000000 9140364.00000000 22650326.00000000 3197.78100586   362166.43750000 287561.00000000 
0.16700    13801241.00000000 8982650.00000000 22256380.00000000 3113.41577148   352677.15625000 279954.50000000 
0.16800    13558397.00000000 8826717.00000000 21867340.00000000 3031.34301758   343398.96875000 272515.71875000 
0.16900    13318996.00000000 8672833.00000000 21483332.00000000 2951.56103516   334331.31250000 265246.34375000 
0.17000    13082881.00000000 8521010.00000000 21104488.00000000 2874.00512695   325471.06250000 258141.35937500 
