# SAXS profile: number of points = 501, q_min = 0, q_max = 0.5, delta_q = 0.001
#    q    intensity 
0.00000    162238224.00000000 101201608.00000000 256272064.00000000 118593.40625000 8772804.00000000 6928745.50000000 
0.00100    162201024.00000000 101178440.00000000 256212720.00000000 118560.14062500 8770543.00000000 6926966.00000000 
0.00200    162088720.00000000 101108128.00000000 256034736.00000000 118459.47656250 8763761.00000000 6921603.00000000 
0.00300    161901376.00000000 100992248.00000000 255738432.00000000 118292.18750000 8752345.00000000 6912666.50000000 
0.00400    161637408.00000000 100829256.00000000 255324192.00000000 118058.83593750 8736513.00000000 6900259.00000000 
0.00500    161299024.00000000 100620080.00000000 254791808.00000000 117758.80468750 8716240.00000000 6884238.00000000 
0.00600    160886576.00000000 100366056.00000000 254144144.00000000 117393.32031250 8691416.00000000 6864748.00000000 
0.00700    160399904.00000000 100065416.00000000 253380496.00000000 116962.85156250 8662229.00000000 6841810.50000000 
0.00800    159841040.00000000 99720432.00000000 252502224.00000000 116468.32031250 8628677.00000000 6815412.50000000 
0.00900    159208048.00000000 99331600.00000000 251511456.00000000 115910.12500000 8590779.00000000 6785618.50000000 
0.01000    158505968.00000000 98898736.00000000 250408624.00000000 115289.99218750 8548663.00000000 6752493.00000000 
0.01100    157734752.00000000 98422416.00000000 249196976.00000000 114608.30468750 8502332.00000000 6716096.50000000 
0.01200    156894528.00000000 97903992.00000000 247874912.00000000 113866.35937500 8451941.00000000 6676461.00000000 
0.01300    155986688.00000000 97343408.00000000 246448416.00000000 113065.59375000 8397542.00000000 6633641.50000000 
0.01400    155012464.00000000 96741688.00000000 244916784.00000000 112207.50000000 8339119.00000000 6587738.00000000 
0.01500    153973184.00000000 96099952.00000000 243283920.00000000 111293.28125000 8276896.50000000 6538785.00000000 
0.01600    152869664.00000000 95418920.00000000 241551216.00000000 110323.96093750 8210926.00000000 6486895.00000000 
0.01700    151706128.00000000 94700344.00000000 239721216.00000000 109302.46093750 8141317.00000000 6432159.00000000 
0.01800    150481568.00000000 93945224.00000000 237797824.00000000 108229.32812500 8068101.00000000 6374578.00000000 
0.01900    149199152.00000000 93153376.00000000 235782128.00000000 107106.97656250 7991534.00000000 6314352.50000000 
0.02000    147860560.00000000 92326360.00000000 233678128.00000000 105936.51562500 7911627.50000000 6251500.00000000 
0.02100    146467408.00000000 91466000.00000000 231489088.00000000 104720.75000000 7828553.00000000 6186139.00000000 
0.02200    145021904.00000000 90573448.00000000 229216912.00000000 103461.28125000 7742379.50000000 6118394.00000000 
0.02300    143525648.00000000 89649984.00000000 226865088.00000000 102159.88281250 7653295.50000000 6048299.50000000 
0.02400    141982064.00000000 88695960.00000000 224439648.00000000 100818.92187500 7561457.50000000 5976040.50000000 
0.02500    140391616.00000000 87713768.00000000 221939184.00000000 99440.86718750  7466939.50000000 5901656.50000000 
0.02600    138757536.00000000 86704264.00000000 219370000.00000000 98027.42187500  7369916.00000000 5825326.00000000 
0.02700    137081296.00000000 85668856.00000000 216734464.00000000 96580.78125000  7270488.50000000 5747108.50000000 
0.02800    135366992.00000000 84609448.00000000 214038992.00000000 95103.50000000  7168837.00000000 5667146.50000000 
0.02900    133614328.00000000 83526440.00000000 211285056.00000000 93597.71093750  7065129.00000000 5585503.50000000 
0.03000    131828008.00000000 82422424.00000000 208475328.00000000 92065.00000000  6959455.00000000 5502394.00000000 
0.03100    130009784.00000000 81298280.00000000 205615872.00000000 90508.73437500  6852070.00000000 5417825.50000000 
0.03200    128161064.00000000 80155528.00000000 202708672.00000000 88931.28125000  6743013.00000000 5331979.50000000 
0.03300    126285440.00000000 78995776.00000000 199760016.00000000 87334.14843750  6632462.50000000 5244995.00000000 
0.03400    124384520.00000000 77820088.00000000 196768912.00000000 85719.89062500  6520578.00000000 5156921.00000000 
0.03500    122461392.00000000 76630920.00000000 193744192.00000000 84091.25781250  6407544.50000000 5067966.00000000 
0.03600    120517968.00000000 75428976.00000000 190688064.00000000 82450.42968750  6293513.00000000 4978171.00000000 
0.03700    118557344.00000000 74215848.00000000 187603392.00000000 80799.07031250  6178567.00000000 4887694.50000000 
0.03800    116581232.00000000 72993296.00000000 184493824.00000000 79140.10156250  6062906.50000000 4796619.50000000 
0.03900    114592680.00000000 71762648.00000000 181365168.00000000 77475.63281250  5946729.00000000 4705114.50000000 
0.04000    112593368.00000000 70525568.00000000 178220448.00000000 75807.57031250  5830033.50000000 4613246.50000000 
0.04100    110586824.00000000 69283536.00000000 175061712.00000000 74137.93750000  5713103.00000000 4521130.00000000 
0.04200    108574624.00000000 68038072.00000000 171896032.00000000 72469.89062500  5596067.00000000 4428955.00000000 
0.04300    106558160.00000000 66789804.00000000 168723408.00000000 70804.78125000  5479006.50000000 4336762.50000000 
0.04400    104541728.00000000 65540892.00000000 165548368.00000000 69144.48437500  5362101.50000000 4244647.50000000 
0.04500    102526680.00000000 64292720.00000000 162376208.00000000 67491.25781250  5245466.50000000 4152719.75000000 
0.04600    100514424.00000000 63046184.00000000 159209072.00000000 65846.93750000  5129226.00000000 4061142.75000000 
0.04700    98508440.00000000 61803220.00000000 156051504.00000000 64213.43359375  5013522.50000000 3969977.50000000 
0.04800    96509608.00000000 60564460.00000000 152903840.00000000 62592.73046875  4898507.50000000 3879326.25000000 
0.04900    94521704.00000000 59332084.00000000 149772992.00000000 60986.34765625  4784278.50000000 3789269.50000000 
0.05000    92544488.00000000 58106200.00000000 146659392.00000000 59395.77734375  4670912.00000000 3699922.50000000 
0.05100    90581712.00000000 56889116.00000000 143568800.00000000 57823.05859375  4558606.00000000 3611373.50000000 
0.05200    88634640.00000000 55681208.00000000 140500688.00000000 56269.52734375  4447385.00000000 3523691.75000000 
0.05300    86704616.00000000 54483792.00000000 137460464.00000000 54736.55859375  4337388.00000000 3436968.00000000 
0.05400    84794104.00000000 53298232.00000000 134450384.00000000 53225.64453125  4228764.50000000 3351268.25000000 
0.05500    82904104.00000000 52125444.00000000 131473320.00000000 51737.74609375  4121497.25000000 3266673.50000000 
0.05600    81036824.00000000 50966548.00000000 128530816.00000000 50274.36328125  4015753.00000000 3183285.75000000 
0.05700    79193640.00000000 49821736.00000000 125625312.00000000 48837.17968750  3911632.00000000 3101111.25000000 
0.05800    77375664.00000000 48692600.00000000 122759968.00000000 47426.27343750  3809133.00000000 3020265.50000000 
0.05900    75585176.00000000 47579808.00000000 119936432.00000000 46043.01562500  3708404.00000000 2940762.25000000 
0.06000    73821656.00000000 46484528.00000000 117157048.00000000 44688.00781250  3609495.00000000 2862695.25000000 
0.06100    72087824.00000000 45406840.00000000 114422912.00000000 43362.64062500  3512460.75000000 2786098.75000000 
0.06200    70384576.00000000 44347932.00000000 111736528.00000000 42067.04687500  3417348.75000000 2710991.50000000 
0.06300    68712528.00000000 43308164.00000000 109099784.00000000 40802.12109375  3324215.50000000 2637471.50000000 
0.06400    67072840.00000000 42288592.00000000 106512800.00000000 39568.19140625  3233115.00000000 2565540.00000000 
0.06500    65466180.00000000 41289080.00000000 103978936.00000000 38366.34375000  3144107.25000000 2495226.50000000 
0.06600    63894300.00000000 40311004.00000000 101498264.00000000 37196.31250000  3057198.00000000 2426601.25000000 
0.06700    62356592.00000000 39353748.00000000 99072728.00000000 36058.50000000  2972415.00000000 2359602.25000000 
0.06800    60854380.00000000 38418548.00000000 96701488.00000000 34953.21875000  2889812.00000000 2294330.25000000 
0.06900    59388364.00000000 37505560.00000000 94387584.00000000 33880.80078125  2809410.25000000 2230782.75000000 
0.07000    57958696.00000000 36615104.00000000 92130216.00000000 32840.92578125  2731203.25000000 2168974.00000000 
0.07100    56565704.00000000 35746904.00000000 89931288.00000000 31833.37109375  2655202.75000000 2108886.00000000 
0.07200    55209904.00000000 34901984.00000000 87790528.00000000 30858.87695312  2581422.25000000 2050552.62500000 
0.07300    53891236.00000000 34079868.00000000 85707984.00000000 29916.94140625  2509876.75000000 1993967.50000000 
0.07400    52610396.00000000 33281030.00000000 83684736.00000000 29007.29882812  2440543.25000000 1939115.62500000 
0.07500    51366480.00000000 32504962.00000000 81720144.00000000 28129.26171875  2373427.50000000 1886016.00000000 
0.07600    50160660.00000000 31752750.00000000 79814352.00000000 27283.27929688  2308490.00000000 1834640.87500000 
0.07700    48991824.00000000 31023392.00000000 77968008.00000000 26468.30859375  2245743.50000000 1784987.37500000 
0.07800    47860492.00000000 30317116.00000000 76180400.00000000 25684.30273438  2185162.25000000 1737033.00000000 
0.07900    46766236.00000000 29633806.00000000 74451424.00000000 24930.60351562  2126718.00000000 1690764.25000000 
0.08000    45708872.00000000 28973270.00000000 72779520.00000000 24206.73632812  2070365.62500000 1646155.37500000 
0.08100    44687976.00000000 28335680.00000000 71165504.00000000 23511.91406250  2016102.25000000 1603182.00000000 
0.08200    43703116.00000000 27720066.00000000 69607896.00000000 22845.47460938  1963896.00000000 1561811.00000000 
0.08300    42753988.00000000 27126736.00000000 68107040.00000000 22206.87109375  1913664.37500000 1522022.75000000 
0.08400    41839664.00000000 26555176.00000000 66661300.00000000 21595.47656250  1865420.50000000 1483785.87500000 
0.08500    40960112.00000000 26005226.00000000 65270412.00000000 21010.23632812  1819095.50000000 1447068.00000000 
0.08600    40114600.00000000 25476332.00000000 63933100.00000000 20450.69921875  1774635.25000000 1411828.00000000 
0.08700    39302356.00000000 24968070.00000000 62647672.00000000 19915.93164062  1732007.12500000 1378025.50000000 
0.08800    38522908.00000000 24480162.00000000 61413744.00000000 19405.10937500  1691147.12500000 1345627.25000000 
0.08900    37774740.00000000 24012060.00000000 60230252.00000000 18917.38476562  1652012.50000000 1314596.62500000 
0.09000    37057648.00000000 23563272.00000000 59095820.00000000 18451.61132812  1614543.87500000 1284875.87500000 
0.09100    36370980.00000000 23133408.00000000 58009320.00000000 18007.46875000  1578694.62500000 1256437.37500000 
0.09200    35713836.00000000 22721906.00000000 56968904.00000000 17583.58984375  1544412.25000000 1229216.62500000 
0.09300    35084912.00000000 22328338.00000000 55973916.00000000 17179.31250000  1511620.37500000 1203195.75000000 
0.09400    34483608.00000000 21951830.00000000 55022308.00000000 16793.64453125  1480263.00000000 1178313.87500000 
0.09500    33909492.00000000 21592056.00000000 54113340.00000000 16425.79296875  1450297.50000000 1154514.50000000 
0.09600    33360556.00000000 21248444.00000000 53244496.00000000 16074.54980469  1421645.87500000 1131769.62500000 
0.09700    32836666.00000000 20920428.00000000 52415112.00000000 15739.56738281  1394263.12500000 1110020.37500000 
0.09800    32336350.00000000 20607216.00000000 51623412.00000000 15419.52050781  1368073.62500000 1089218.37500000 
0.09900    31859116.00000000 20308502.00000000 50868288.00000000 15113.77539062  1343031.62500000 1069328.87500000 
0.10000    31403504.00000000 20023200.00000000 50147368.00000000 14821.18359375  1319069.00000000 1050295.37500000 
0.10100    30969048.00000000 19751252.00000000 49459548.00000000 14541.22070312  1296132.62500000 1032070.18750000 
0.10200    30554360.00000000 19491916.00000000 48803416.00000000 14272.79003906  1274139.50000000 1014609.18750000 
0.10300    30158548.00000000 19244232.00000000 48177296.00000000 14015.34863281  1253067.00000000 997863.56250000 
0.10400    29780446.00000000 19007832.00000000 47579264.00000000 13767.88476562  1232843.00000000 981788.81250000 
0.10500    29419346.00000000 18782336.00000000 47008336.00000000 13529.75292969  1213411.75000000 966348.31250000 
0.10600    29073870.00000000 18566580.00000000 46462040.00000000 13300.10742188  1194710.50000000 951484.68750000 
0.10700    28743852.00000000 18360294.00000000 45940256.00000000 13078.45996094  1176681.12500000 937166.62500000 
0.10800    28427306.00000000 18162988.00000000 45440064.00000000 12863.76074219  1159297.75000000 923348.31250000 
0.10900    28124022.00000000 17973870.00000000 44961016.00000000 12655.76074219  1142483.87500000 909980.37500000 
0.11000    27832720.00000000 17792520.00000000 44501352.00000000 12453.52246094  1126189.50000000 897047.06250000 
0.11100    27552772.00000000 17618152.00000000 44059276.00000000 12256.55468750  1110393.00000000 884493.75000000 
0.11200    27282988.00000000 17450362.00000000 43633736.00000000 12064.23144531  1095021.50000000 872285.06250000 
0.11300    27022906.00000000 17288652.00000000 43223196.00000000 11876.18164062  1080032.62500000 860382.37500000 
0.11400    26771222.00000000 17132362.00000000 42826600.00000000 11691.75195312  1065410.00000000 848767.87500000 
0.11500    26527440.00000000 16981038.00000000 42442324.00000000 11510.56347656  1051080.62500000 837395.43750000 
0.11600    26290466.00000000 16834384.00000000 42069284.00000000 11332.04687500  1037032.43750000 826234.18750000 
0.11700    26059986.00000000 16691588.00000000 41706328.00000000 11155.85449219  1023214.00000000 815266.93750000 
0.11800    25834922.00000000 16552305.00000000 41351988.00000000 10981.69921875  1009588.93750000 804449.25000000 
0.11900    25614606.00000000 16416125.00000000 41005752.00000000 10809.15527344  996137.56250000 793769.62500000 
0.12000    25398404.00000000 16282687.00000000 40665968.00000000 10637.96093750  982818.68750000 783199.75000000 
0.12100    25185722.00000000 16151588.00000000 40331892.00000000 10467.74316406  969613.18750000 772719.25000000 
0.12200    24976060.00000000 16022260.00000000 40002184.00000000 10298.37011719  956493.12500000 762307.06250000 
0.12300    24768622.00000000 15894452.00000000 39676576.00000000 10129.73144531  943430.06250000 751944.25000000 
0.12400    24563084.00000000 15767878.00000000 39353704.00000000 9961.32031250   930411.62500000 741611.00000000 
0.12500    24358688.00000000 15642065.00000000 39032992.00000000 9793.16308594   917406.56250000 731290.25000000 
0.12600    24155326.00000000 15516887.00000000 38713232.00000000 9625.16601562   904414.18750000 720976.43750000 
0.12700    23951954.00000000 15391814.00000000 38394252.00000000 9457.24707031   891403.93750000 710654.25000000 
0.12800    23748724.00000000 15266718.00000000 38075316.00000000 9289.26660156   878363.93750000 700305.93750000 
0.12900    23545072.00000000 15141461.00000000 37755632.00000000 9121.16796875   865297.31250000 689930.31250000 
0.13000    23340310.00000000 15015671.00000000 37434568.00000000 8952.94628906   852178.12500000 679519.31250000 
0.13100    23134894.00000000 14889126.00000000 37111900.00000000 8784.58398438   839009.56250000 669058.37500000 
0.13200    22927860.00000000 14761752.00000000 36786988.00000000 8616.06835938   825778.56250000 658549.68750000 
0.13300    22719206.00000000 14633342.00000000 36459420.00000000 8447.55078125   812485.56250000 647993.62500000 
0.13400    22508734.00000000 14503619.00000000 36128920.00000000 8278.97460938   799129.93750000 637382.25000000 
0.13500    22296270.00000000 14372649.00000000 35794956.00000000 8110.44726562   785706.37500000 626710.87500000 
0.13600    22081558.00000000 14240315.00000000 35457444.00000000 7942.06738281   772217.87500000 615989.68750000 
0.13700    21864462.00000000 14106325.00000000 35116496.00000000 7773.93945312   758662.93750000 605215.75000000 
0.13800    21645064.00000000 13970739.00000000 34771324.00000000 7606.10009766   745047.06250000 594386.37500000 
0.13900    21422982.00000000 13833529.00000000 34422136.00000000 7438.74755859   731377.87500000 583508.93750000 
0.14000    21198294.00000000 13694605.00000000 34068652.00000000 7272.02783203   717655.06250000 572592.81250000 
0.14100    20971304.00000000 13553919.00000000 33711052.00000000 7106.05712891   703889.93750000 561637.50000000 
0.14200    20741466.00000000 13411575.00000000 33348880.00000000 6940.99414062   690089.06250000 550648.81250000 
0.14300    20509162.00000000 13267373.00000000 32982692.00000000 6776.93603516   676266.00000000 539631.18750000 
0.14400    20274284.00000000 13121500.00000000 32612230.00000000 6614.11669922   662416.12500000 528592.87500000 
0.14500    20036832.00000000 12973897.00000000 32237846.00000000 6452.61621094   648563.87500000 517549.12500000 
0.14600    19797120.00000000 12824670.00000000 31859392.00000000 6292.72558594   634714.50000000 506507.50000000 
0.14700    19555210.00000000 12673830.00000000 31477036.00000000 6134.50390625   620881.06250000 495471.68750000 
0.14800    19310664.00000000 12521381.00000000 31090996.00000000 5978.11279297   607066.75000000 484446.18750000 
0.14900    19064470.00000000 12367540.00000000 30701402.00000000 5823.73388672   593297.87500000 473447.62500000 
0.15000    18816116.00000000 12212219.00000000 30308570.00000000 5671.52246094   579575.62500000 462485.71875000 
0.15100    18566126.00000000 12055707.00000000 29912610.00000000 5521.66503906   565916.00000000 451570.06250000 
0.15200    18314444.00000000 11898000.00000000 29513992.00000000 5374.21582031   552334.31250000 440707.53125000 
0.15300    18061408.00000000 11739105.00000000 29112964.00000000 5229.37011719   538836.81250000 429910.96875000 
0.15400    17806910.00000000 11579202.00000000 28709286.00000000 5087.30712891   525438.68750000 419190.71875000 
0.15500    17551556.00000000 11418496.00000000 28303962.00000000 4948.08642578   512156.37500000 408555.06250000 
0.15600    17295168.00000000 11257005.00000000 27896758.00000000 4811.88330078   498998.15625000 398014.65625000 
0.15700    17038242.00000000 11094906.00000000 27488580.00000000 4678.75927734   485979.50000000 387582.78125000 
0.15800    16780572.00000000 10932262.00000000 27078944.00000000 4548.80859375   473108.31250000 377258.84375000 
0.15900    16522820.00000000 10769254.00000000 26668914.00000000 4422.17333984   460400.84375000 367063.90625000 
0.16000    16265043.00000000 10606043.00000000 26258508.00000000 4298.89941406   447862.87500000 356999.21875000 
0.16100    16007430.00000000 10442705.00000000 25847962.00000000 4179.04736328   435507.03125000 347078.87500000 
0.16200    15750138.00000000 10279305.00000000 25437822.00000000 4062.71264648   423346.81250000 337306.46875000 
0.16300    15493394.00000000 10116154.00000000 25028606.00000000 3949.93359375   411387.00000000 327690.90625000 
0.16400    15237468.00000000 9953251.00000000 24620114.00000000 3840.70068359   399639.34375000 318242.28125000 
0.16500    14982548.00000000 9790854.00000000 24212884.00000000 3735.13208008   388114.37500000 308964.65625000 
0.16600    14728842.00000000 9628835.00000000 23807290.00000000 3633.19653320   376816.21875000 299868.59375000 
0.16700    14476421.00000000 9467606.00000000 23403692.00000000 3534.81274414   365750.09375000 290954.96875000 
0.16800    14225524.00000000 9307115.00000000 23002232.00000000 3440.08764648   354925.53125000 282229.31250000 
0.16900    13976568.00000000 9147579.00000000 22603638.00000000 3349.02856445   344353.90625000 273702.84375000 
0.17000    13729482.00000000 8989047.00000000 22207586.00000000 3261.51416016   334028.59375000 265372.31250000 
