# SAXS profile: number of points = 501, q_min = 0, q_max = 0.5, delta_q = 0.001
#    q    intensity 
0.00000    162232928.00000000 101202152.00000000 256270848.00000000 102924.21093750 8172746.00000000 6454820.50000000 
0.00100    162198544.00000000 101178544.00000000 256211200.00000000 102893.24218750 8170507.50000000 6453066.00000000 
0.00200    162093056.00000000 101109352.00000000 256036240.00000000 102798.65625000 8163938.50000000 6447929.00000000 
0.00300    161908384.00000000 100994904.00000000 255744976.00000000 102641.90625000 8152913.50000000 6439245.50000000 
0.00400    161647424.00000000 100834056.00000000 255333760.00000000 102422.62500000 8137574.50000000 6427195.00000000 
0.00500    161310080.00000000 100627176.00000000 254808960.00000000 102141.76562500 8117893.00000000 6411720.00000000 
0.00600    160900512.00000000 100375000.00000000 254165680.00000000 101799.74218750 8093879.50000000 6392857.50000000 
0.00700    160416672.00000000 100079024.00000000 253412096.00000000 101397.99218750 8065639.00000000 6370643.50000000 
0.00800    159860448.00000000 99739240.00000000 252545008.00000000 100936.59375000 8033212.00000000 6345176.00000000 
0.00900    159237488.00000000 99355976.00000000 251566432.00000000 100415.82812500 7996649.00000000 6316425.00000000 
0.01000    158546720.00000000 98930240.00000000 250480048.00000000 99838.94531250  7956056.50000000 6284583.50000000 
0.01100    157787904.00000000 98460912.00000000 249285072.00000000 99205.20312500  7911456.50000000 6249483.50000000 
0.01200    156957936.00000000 97950080.00000000 247983824.00000000 98518.54687500  7863026.00000000 6211402.00000000 
0.01300    156063152.00000000 97398976.00000000 246580192.00000000 97777.48437500  7810797.50000000 6170340.00000000 
0.01400    155103664.00000000 96808656.00000000 245074944.00000000 96984.88281250  7754828.00000000 6126363.00000000 
0.01500    154084256.00000000 96179616.00000000 243473392.00000000 96142.85937500  7695287.50000000 6079572.00000000 
0.01600    153002272.00000000 95513944.00000000 241774784.00000000 95252.95312500  7632337.50000000 6030066.00000000 
0.01700    151860528.00000000 94811384.00000000 239984592.00000000 94316.92187500  7565992.00000000 5977907.00000000 
0.01800    150664720.00000000 94072512.00000000 238104288.00000000 93336.60156250  7496423.50000000 5923183.00000000 
0.01900    149411360.00000000 93300920.00000000 236136464.00000000 92315.31250000  7423811.50000000 5866079.00000000 
0.02000    148105616.00000000 92496448.00000000 234086800.00000000 91253.24218750  7348216.00000000 5806670.50000000 
0.02100    146750352.00000000 91659744.00000000 231956640.00000000 90153.28125000  7269855.50000000 5744996.50000000 
0.02200    145344272.00000000 90793672.00000000 229749328.00000000 89018.49218750  7188757.00000000 5681256.50000000 
0.02300    143893808.00000000 89898304.00000000 227469744.00000000 87850.07812500  7105177.00000000 5615480.50000000 
0.02400    142398080.00000000 88975784.00000000 225121776.00000000 86650.44531250  7019228.00000000 5547878.50000000 
0.02500    140861072.00000000 88027032.00000000 222706304.00000000 85422.31250000  6931051.00000000 5478509.00000000 
0.02600    139286256.00000000 87054320.00000000 220228944.00000000 84168.42187500  6840799.00000000 5407502.00000000 
0.02700    137672240.00000000 86058016.00000000 217693952.00000000 82890.56250000  6748665.50000000 5334973.00000000 
0.02800    136024624.00000000 85040736.00000000 215106208.00000000 81591.23437500  6654789.00000000 5261071.00000000 
0.02900    134345952.00000000 84003456.00000000 212465888.00000000 80272.79687500  6559282.00000000 5185859.50000000 
0.03000    132637448.00000000 82947624.00000000 209779280.00000000 78937.18750000  6462316.50000000 5109595.00000000 
0.03100    130902072.00000000 81874912.00000000 207051136.00000000 77587.92187500  6364097.00000000 5032289.50000000 
0.03200    129142608.00000000 80786120.00000000 204282272.00000000 76225.41406250  6264786.50000000 4954008.00000000 
0.03300    127360752.00000000 79684144.00000000 201481232.00000000 74854.61718750  6164457.00000000 4875023.00000000 
0.03400    125560288.00000000 78570528.00000000 198647824.00000000 73475.06250000  6063343.50000000 4795372.50000000 
0.03500    123741976.00000000 77446416.00000000 195788544.00000000 72091.43750000  5961575.00000000 4715209.00000000 
0.03600    121909392.00000000 76312112.00000000 192904432.00000000 70704.05468750  5859231.50000000 4634585.00000000 
0.03700    120064416.00000000 75170168.00000000 190000256.00000000 69315.31250000  5756525.50000000 4553720.00000000 
0.03800    118210960.00000000 74021232.00000000 187080832.00000000 67928.24218750  5653621.50000000 4472566.50000000 
0.03900    116348672.00000000 72867144.00000000 184150720.00000000 66543.73437500  5550620.00000000 4391409.00000000 
0.04000    114482416.00000000 71709584.00000000 181211120.00000000 65164.23828125  5447686.00000000 4310223.00000000 
0.04100    112612888.00000000 70550928.00000000 178267200.00000000 63791.19140625  5344891.50000000 4229191.00000000 
0.04200    110742936.00000000 69390760.00000000 175321520.00000000 62426.80468750  5242419.50000000 4148387.25000000 
0.04300    108874344.00000000 68232024.00000000 172379040.00000000 61072.43359375  5140384.00000000 4067915.25000000 
0.04400    107009760.00000000 67073792.00000000 169437632.00000000 59729.91406250  5038895.00000000 3987848.00000000 
0.04500    105151008.00000000 65919380.00000000 166508480.00000000 58400.86328125  4938036.50000000 3908299.75000000 
0.04600    103299256.00000000 64769352.00000000 163587888.00000000 57086.49218750  4837992.00000000 3829364.00000000 
0.04700    101457112.00000000 63624952.00000000 160684368.00000000 55787.72656250  4738807.50000000 3751089.50000000 
0.04800    99626248.00000000 62486256.00000000 157796512.00000000 54506.52734375  4640559.00000000 3673544.00000000 
0.04900    97808064.00000000 61355808.00000000 154929104.00000000 53243.41796875  4543427.00000000 3596863.50000000 
0.05000    96004840.00000000 60233988.00000000 152083872.00000000 51999.67968750  4447422.50000000 3521034.25000000 
0.05100    94216680.00000000 59121720.00000000 149265392.00000000 50776.39843750  4352611.50000000 3446171.00000000 
0.05200    92447432.00000000 58019912.00000000 146472496.00000000 49574.17578125  4259078.00000000 3372340.50000000 
0.05300    90696360.00000000 56929972.00000000 143709552.00000000 48393.86328125  4166933.50000000 3299582.75000000 
0.05400    88965968.00000000 55851548.00000000 140977296.00000000 47236.01953125  4076251.25000000 3227931.75000000 
0.05500    87256816.00000000 54787068.00000000 138280080.00000000 46101.36718750  3987025.00000000 3157424.00000000 
0.05600    85570656.00000000 53735864.00000000 135617712.00000000 44990.33593750  3899321.25000000 3088119.00000000 
0.05700    83907672.00000000 52699272.00000000 132991080.00000000 43903.13281250  3813196.50000000 3020084.50000000 
0.05800    82270408.00000000 51677796.00000000 130404416.00000000 42840.60546875  3728677.25000000 2953293.25000000 
0.05900    80657872.00000000 50671352.00000000 127856560.00000000 41802.50390625  3645854.50000000 2887802.50000000 
0.06000    79071016.00000000 49681160.00000000 125350336.00000000 40788.53515625  3564673.25000000 2823636.00000000 
0.06100    77512552.00000000 48708380.00000000 122887320.00000000 39799.65625000  3485193.00000000 2760791.50000000 
0.06200    75981456.00000000 47751940.00000000 120466576.00000000 38835.66015625  3407428.75000000 2699316.00000000 
0.06300    74477856.00000000 46812892.00000000 118090504.00000000 37896.05859375  3331412.00000000 2639190.00000000 
0.06400    73003712.00000000 45891532.00000000 115758816.00000000 36980.99218750  3257123.50000000 2580426.50000000 
0.06500    71558296.00000000 44988188.00000000 113473848.00000000 36090.12109375  3184544.00000000 2523032.00000000 
0.06600    70141640.00000000 44102772.00000000 111233896.00000000 35223.47265625  3113731.75000000 2467003.25000000 
0.06700    68755168.00000000 43235656.00000000 109040840.00000000 34380.29687500  3044623.50000000 2412343.00000000 
0.06800    67397104.00000000 42386792.00000000 106894456.00000000 33560.29687500  2977247.75000000 2359026.50000000 
0.06900    66071188.00000000 41556564.00000000 104795160.00000000 32763.40039062  2911561.75000000 2307077.75000000 
0.07000    64773552.00000000 40744740.00000000 102742720.00000000 31988.88085938  2847585.75000000 2256443.75000000 
0.07100    63506204.00000000 39951776.00000000 100737224.00000000 31236.22851562  2785245.25000000 2207139.50000000 
0.07200    62267656.00000000 39176984.00000000 98778064.00000000 30504.90234375  2724555.50000000 2159114.25000000 
0.07300    61059520.00000000 38420776.00000000 96866320.00000000 29794.66992188  2665483.50000000 2112378.75000000 
0.07400    59879768.00000000 37682928.00000000 95000448.00000000 29104.61718750  2607992.50000000 2066903.87500000 
0.07500    58729972.00000000 36962884.00000000 93180584.00000000 28434.33398438  2552056.00000000 2022654.12500000 
0.07600    57608100.00000000 36260908.00000000 91405504.00000000 27782.94531250  2497627.25000000 1979609.25000000 
0.07700    56514760.00000000 35576780.00000000 89675736.00000000 27149.98828125  2444681.00000000 1937723.12500000 
0.07800    55449036.00000000 34909832.00000000 87990624.00000000 26534.93750000  2393191.50000000 1896996.87500000 
0.07900    54411432.00000000 34260356.00000000 86347776.00000000 25936.84570312  2343115.25000000 1857366.87500000 
0.08000    53400444.00000000 33627984.00000000 84748480.00000000 25355.59570312  2294364.75000000 1818824.37500000 
0.08100    52415480.00000000 33012438.00000000 83190888.00000000 24789.87109375  2246933.50000000 1781331.62500000 
0.08200    51456836.00000000 32413086.00000000 81675136.00000000 24239.45117188  2200827.75000000 1744856.75000000 
0.08300    50523556.00000000 31829358.00000000 80198912.00000000 23703.92773438  2155906.00000000 1709363.50000000 
0.08400    49614584.00000000 31261466.00000000 78761312.00000000 23181.95703125  2112236.25000000 1674827.37500000 
0.08500    48730204.00000000 30708778.00000000 77363192.00000000 22673.63867188  2069684.00000000 1641180.75000000 
0.08600    47868700.00000000 30171112.00000000 76001792.00000000 22178.04101562  2028236.37500000 1608448.37500000 
0.08700    47030596.00000000 29647586.00000000 74677400.00000000 21694.48632812  1987871.25000000 1576554.62500000 
0.08800    46214300.00000000 29138434.00000000 73387072.00000000 21222.95507812  1948524.00000000 1545457.75000000 
0.08900    45419656.00000000 28642794.00000000 72132576.00000000 20762.14062500  1910156.00000000 1515153.25000000 
0.09000    44646148.00000000 28160442.00000000 70910904.00000000 20312.17578125  1872730.25000000 1485595.75000000 
0.09100    43891920.00000000 27690726.00000000 69720544.00000000 19872.32812500  1836212.37500000 1456752.00000000 
0.09200    43157616.00000000 27233536.00000000 68561432.00000000 19442.02929688  1800537.62500000 1428592.62500000 
0.09300    42442360.00000000 26788236.00000000 67432272.00000000 19020.91015625  1765697.25000000 1401093.12500000 
0.09400    41744704.00000000 26354520.00000000 66332476.00000000 18608.80859375  1731644.87500000 1374217.12500000 
0.09500    41064844.00000000 25932022.00000000 65260396.00000000 18204.98632812  1698332.25000000 1347923.37500000 
0.09600    40402020.00000000 25520098.00000000 64214988.00000000 17809.13671875  1665750.87500000 1322203.62500000 
0.09700    39754880.00000000 25118636.00000000 63195760.00000000 17421.27148438  1633856.50000000 1297030.25000000 
0.09800    39123784.00000000 24727026.00000000 62201120.00000000 17040.69531250  1602612.37500000 1272377.75000000 
0.09900    38507112.00000000 24344822.00000000 61230364.00000000 16667.17187500  1571981.62500000 1248217.00000000 
0.10000    37905112.00000000 23971796.00000000 60282268.00000000 16300.57617188  1541959.62500000 1224520.62500000 
0.10100    37316556.00000000 23607350.00000000 59355508.00000000 15940.80078125  1512492.25000000 1201272.00000000 
0.10200    36741108.00000000 23251520.00000000 58449948.00000000 15587.22558594  1483572.50000000 1178455.87500000 
0.10300    36178136.00000000 22903392.00000000 57564496.00000000 15239.91992188  1455177.75000000 1156043.62500000 
0.10400    35627300.00000000 22562910.00000000 56698312.00000000 14898.91113281  1427262.37500000 1134020.62500000 
0.10500    35087776.00000000 22230002.00000000 55850488.00000000 14563.65917969  1399836.75000000 1112377.75000000 
0.10600    34558932.00000000 21903620.00000000 55019860.00000000 14234.20605469  1372849.37500000 1091077.62500000 
0.10700    34041160.00000000 21583978.00000000 54205752.00000000 13910.49511719  1346312.75000000 1070140.87500000 
0.10800    33533020.00000000 21270840.00000000 53407584.00000000 13592.29785156  1320208.00000000 1049509.50000000 
0.10900    33034386.00000000 20963538.00000000 52624880.00000000 13279.69531250  1294486.75000000 1029209.31250000 
0.11000    32544992.00000000 20662124.00000000 51855936.00000000 12972.57812500  1269165.37500000 1009222.06250000 
0.11100    32064420.00000000 20366004.00000000 51101116.00000000 12670.73730469  1244241.12500000 989517.68750000 
0.11200    31592036.00000000 20075164.00000000 50359428.00000000 12374.48144531  1219672.25000000 970103.81250000 
0.11300    31127204.00000000 19789286.00000000 49630468.00000000 12083.27050781  1195466.00000000 950960.93750000 
0.11400    30670298.00000000 19508206.00000000 48913372.00000000 11797.68652344  1171614.00000000 932106.62500000 
0.11500    30220674.00000000 19231512.00000000 48207408.00000000 11517.18164062  1148102.12500000 913504.75000000 
0.11600    29777940.00000000 18959092.00000000 47512484.00000000 11242.03710938  1124932.50000000 895172.18750000 
0.11700    29341940.00000000 18690674.00000000 46828348.00000000 10972.17773438  1102093.12500000 877087.37500000 
0.11800    28912070.00000000 18426330.00000000 46154056.00000000 10707.49121094  1079573.37500000 859251.06250000 
0.11900    28488340.00000000 18165814.00000000 45488900.00000000 10448.18164062  1057376.50000000 841663.93750000 
0.12000    28070636.00000000 17908632.00000000 44832984.00000000 10194.07324219  1035502.68750000 824321.93750000 
0.12100    27658480.00000000 17654982.00000000 44186236.00000000 9945.28417969   1013939.93750000 807221.37500000 
0.12200    27252068.00000000 17404622.00000000 43547660.00000000 9701.67089844   992694.62500000 790362.43750000 
0.12300    26850790.00000000 17157362.00000000 42917348.00000000 9463.33984375   971754.37500000 773740.56250000 
0.12400    26454448.00000000 16913014.00000000 42294984.00000000 9230.25292969   951126.68750000 757357.43750000 
0.12500    26063128.00000000 16671736.00000000 41680164.00000000 9002.33984375   930804.12500000 741203.75000000 
0.12600    25676836.00000000 16433284.00000000 41072692.00000000 8779.74023438   910787.68750000 725296.43750000 
0.12700    25294876.00000000 16197561.00000000 40472000.00000000 8562.18359375   891081.43750000 709619.93750000 
0.12800    24917518.00000000 15964396.00000000 39878788.00000000 8349.78027344   871681.12500000 694175.37500000 
0.12900    24544722.00000000 15733778.00000000 39292224.00000000 8142.55859375   852582.87500000 678971.81250000 
0.13000    24176230.00000000 15505861.00000000 38711984.00000000 7940.40136719   833802.18750000 663996.56250000 
0.13100    23811844.00000000 15280103.00000000 38138212.00000000 7743.17871094   815305.93750000 649259.50000000 
0.13200    23451840.00000000 15056845.00000000 37571016.00000000 7550.92871094   797122.43750000 634763.81250000 
0.13300    23095526.00000000 14835998.00000000 37009536.00000000 7363.62744141   779251.18750000 620496.37500000 
0.13400    22743720.00000000 14617343.00000000 36454052.00000000 7181.12500000   761679.62500000 606469.00000000 
0.13500    22395430.00000000 14400923.00000000 35905196.00000000 7003.41162109   744408.43750000 592672.18750000 
0.13600    22051248.00000000 14186718.00000000 35361692.00000000 6830.33154297   727440.62500000 579114.37500000 
0.13700    21710732.00000000 13974705.00000000 34824624.00000000 6661.83007812   710773.12500000 565785.43750000 
0.13800    21374386.00000000 13764855.00000000 34292536.00000000 6497.80078125   694403.93750000 552697.25000000 
0.13900    21041666.00000000 13557195.00000000 33766384.00000000 6338.19287109   678335.37500000 539840.31250000 
0.14000    20712600.00000000 13351592.00000000 33246196.00000000 6182.89062500   662568.43750000 527217.25000000 
0.14100    20387236.00000000 13148147.00000000 32731446.00000000 6031.73779297   647094.50000000 514827.81250000 
0.14200    20065516.00000000 12946669.00000000 32222172.00000000 5884.64355469   631910.12500000 502667.62500000 
0.14300    19747988.00000000 12747411.00000000 31718794.00000000 5741.49072266   617021.68750000 490737.65625000 
0.14400    19433484.00000000 12550086.00000000 31220448.00000000 5602.21191406   602419.12500000 479032.75000000 
0.14500    19122956.00000000 12355004.00000000 30727806.00000000 5466.65087891   588105.12500000 467557.62500000 
0.14600    18815830.00000000 12161916.00000000 30240710.00000000 5334.65722656   574072.12500000 456305.78125000 
0.14700    18512464.00000000 11970882.00000000 29759014.00000000 5206.17626953   560323.93750000 445279.50000000 
0.14800    18212720.00000000 11781973.00000000 29283026.00000000 5080.99121094   546849.93750000 434468.50000000 
0.14900    17916440.00000000 11594919.00000000 28812068.00000000 4959.06787109   533642.31250000 423878.62500000 
0.15000    17623856.00000000 11410140.00000000 28346886.00000000 4840.26318359   520712.71875000 413498.62500000 
0.15100    17334830.00000000 11227300.00000000 27886850.00000000 4724.44580078   508043.65625000 403332.56250000 
0.15200    17049188.00000000 11046620.00000000 27432568.00000000 4611.52734375   495638.31250000 393380.78125000 
0.15300    16767290.00000000 10867956.00000000 26983684.00000000 4501.30957031   483494.40625000 383632.00000000 
0.15400    16488941.00000000 10691233.00000000 26539886.00000000 4393.71826172   471593.31250000 374086.31250000 
0.15500    16214035.00000000 10516825.00000000 26101782.00000000 4288.74218750   459949.15625000 364740.56250000 
0.15600    15942481.00000000 10344307.00000000 25668930.00000000 4186.13134766   448536.84375000 355590.28125000 
0.15700    15674639.00000000 10173904.00000000 25241546.00000000 4085.90771484   437373.78125000 346638.84375000 
0.15800    15410082.00000000 10005607.00000000 24819492.00000000 3987.86499023   426439.65625000 337873.06250000 
0.15900    15149078.00000000 9839268.00000000 24402754.00000000 3891.96948242   415741.56250000 329293.12500000 
0.16000    14891468.00000000 9675000.00000000 23991262.00000000 3798.12426758   405265.34375000 320896.09375000 
0.16100    14637429.00000000 9512898.00000000 23585614.00000000 3706.27856445   395009.84375000 312676.43750000 
0.16200    14386696.00000000 9352835.00000000 23184752.00000000 3616.33911133   384969.43750000 304634.62500000 
0.16300    14139348.00000000 9194872.00000000 22789504.00000000 3528.18994141   375143.59375000 296767.87500000 
0.16400    13895582.00000000 9038873.00000000 22399428.00000000 3441.83789062   365520.46875000 289064.96875000 
0.16500    13655073.00000000 8884969.00000000 22014682.00000000 3357.17578125   356105.15625000 281529.84375000 
0.16600    13417905.00000000 8733209.00000000 21635330.00000000 3274.15014648   346884.46875000 274155.25000000 
0.16700    13184021.00000000 8583350.00000000 21261156.00000000 3192.74194336   337857.34375000 266940.78125000 
0.16800    12953556.00000000 8435518.00000000 20891730.00000000 3112.87988281   329019.06250000 259878.70312500 
0.16900    12726393.00000000 8289856.50000000 20527974.00000000 3034.55200195   320370.25000000 252968.73437500 
0.17000    12502463.00000000 8146160.50000000 20169304.00000000 2957.72412109   311900.37500000 246209.43750000 
