# SAXS profile: number of points = 501, q_min = 0, q_max = 0.5, delta_q = 0.001
#    q    intensity 
0.00000    162234992.00000000 101202128.00000000 256270128.00000000 106370.01562500 8308394.50000000 6561977.00000000 
0.00100    162202656.00000000 101180856.00000000 256217296.00000000 106341.61718750 8306386.00000000 6560387.50000000 
0.00200    162101600.00000000 101116432.00000000 256053984.00000000 106257.17187500 8300412.00000000 6555654.00000000 
0.00300    161931712.00000000 101010232.00000000 255783792.00000000 106115.36718750 8290401.50000000 6547792.50000000 
0.00400    161692240.00000000 100862072.00000000 255404768.00000000 105918.21875000 8276423.50000000 6536813.50000000 
0.00500    161381600.00000000 100670080.00000000 254919040.00000000 105664.69531250 8258512.00000000 6522730.00000000 
0.00600    161003504.00000000 100436784.00000000 254326528.00000000 105355.92968750 8236704.50000000 6505539.00000000 
0.00700    160560288.00000000 100162096.00000000 253627408.00000000 104991.97656250 8210974.00000000 6485279.00000000 
0.00800    160045488.00000000 99846608.00000000 252825376.00000000 104574.38281250 8181373.00000000 6462004.50000000 
0.00900    159466432.00000000 99490560.00000000 251918784.00000000 104103.21875000 8147975.50000000 6435751.50000000 
0.01000    158824544.00000000 99094424.00000000 250908512.00000000 103579.04687500 8110867.50000000 6406517.50000000 
0.01100    158119936.00000000 98658544.00000000 249799344.00000000 103002.52343750 8070064.50000000 6374392.50000000 
0.01200    157351152.00000000 98182656.00000000 248590112.00000000 102375.76562500 8025624.00000000 6339442.00000000 
0.01300    156521088.00000000 97669416.00000000 247279568.00000000 101699.58593750 7977633.50000000 6301653.50000000 
0.01400    155626096.00000000 97117352.00000000 245878064.00000000 100974.44531250 7926156.50000000 6261127.00000000 
0.01500    154673296.00000000 96528280.00000000 244380320.00000000 100202.40625000 7871291.00000000 6217948.50000000 
0.01600    153663392.00000000 95903424.00000000 242791488.00000000 99383.20312500  7813078.00000000 6172135.00000000 
0.01700    152596736.00000000 95244448.00000000 241113296.00000000 98520.25781250  7751656.00000000 6123797.50000000 
0.01800    151473920.00000000 94550744.00000000 239347488.00000000 97613.21875000  7687096.00000000 6072976.00000000 
0.01900    150295648.00000000 93823080.00000000 237496176.00000000 96665.17187500  7619536.00000000 6019801.00000000 
0.02000    149066752.00000000 93062760.00000000 235563344.00000000 95676.47656250  7549006.00000000 5964275.50000000 
0.02100    147786928.00000000 92271504.00000000 233550384.00000000 94649.10937500  7475644.00000000 5906521.00000000 
0.02200    146457808.00000000 91449776.00000000 231459936.00000000 93584.75000000  7399594.00000000 5846663.00000000 
0.02300    145080896.00000000 90599192.00000000 229295952.00000000 92485.17187500  7320925.00000000 5784731.00000000 
0.02400    143659616.00000000 89720096.00000000 227058480.00000000 91352.09375000  7239749.00000000 5720844.00000000 
0.02500    142195200.00000000 88813776.00000000 224754320.00000000 90187.39843750  7156226.00000000 5655064.50000000 
0.02600    140687440.00000000 87881712.00000000 222384416.00000000 88992.65625000  7070471.00000000 5587525.00000000 
0.02700    139141376.00000000 86925560.00000000 219953408.00000000 87770.00000000  6982560.00000000 5518318.50000000 
0.02800    137557616.00000000 85945184.00000000 217461488.00000000 86520.67187500  6892641.00000000 5447509.00000000 
0.02900    135939312.00000000 84942944.00000000 214913168.00000000 85247.03125000  6800882.00000000 5375249.50000000 
0.03000    134286416.00000000 83920048.00000000 212313248.00000000 83951.31250000  6707307.00000000 5301572.50000000 
0.03100    132601848.00000000 82877464.00000000 209663136.00000000 82635.98437500  6612193.00000000 5226615.50000000 
0.03200    130888392.00000000 81816904.00000000 206966432.00000000 81300.58593750  6515543.50000000 5150554.50000000 
0.03300    129147624.00000000 80739368.00000000 204226864.00000000 79949.22656250  6417522.00000000 5073315.50000000 
0.03400    127381872.00000000 79644792.00000000 201447392.00000000 78583.00781250  6318301.50000000 4995149.50000000 
0.03500    125593056.00000000 78537392.00000000 198632192.00000000 77203.45312500  6217947.50000000 4916087.00000000 
0.03600    123783936.00000000 77416104.00000000 195782976.00000000 75813.24218750  6116676.50000000 4836294.50000000 
0.03700    121956080.00000000 76283488.00000000 192905040.00000000 74413.75781250  6014496.50000000 4755798.00000000 
0.03800    120111232.00000000 75140256.00000000 190001696.00000000 73007.29687500  5911625.00000000 4674739.50000000 
0.03900    118252056.00000000 73988448.00000000 187073584.00000000 71595.42968750  5808177.00000000 4593225.00000000 
0.04000    116380856.00000000 72828360.00000000 184126544.00000000 70180.31250000  5704233.50000000 4511350.00000000 
0.04100    114498344.00000000 71661616.00000000 181163008.00000000 68762.39062500  5599975.00000000 4429151.00000000 
0.04200    112609080.00000000 70489448.00000000 178185840.00000000 67345.31250000  5495477.00000000 4346789.00000000 
0.04300    110712128.00000000 69313184.00000000 175198112.00000000 65928.89062500  5390874.50000000 4264347.50000000 
0.04400    108812152.00000000 68133832.00000000 172203984.00000000 64515.74609375  5286300.50000000 4181872.50000000 
0.04500    106909744.00000000 66952440.00000000 169206368.00000000 63107.80859375  5181856.50000000 4099518.25000000 
0.04600    105006160.00000000 65771764.00000000 166207504.00000000 61705.83984375  5077637.50000000 4017369.00000000 
0.04700    103105136.00000000 64591036.00000000 163211840.00000000 60311.92187500  4973759.50000000 3935447.25000000 
0.04800    101207328.00000000 63412596.00000000 160220448.00000000 58927.29687500  4870310.00000000 3853888.25000000 
0.04900    99314888.00000000 62237284.00000000 157236992.00000000 57553.27734375  4767472.00000000 3772770.50000000 
0.05000    97429656.00000000 61065620.00000000 154265312.00000000 56190.93359375  4665254.00000000 3692152.25000000 
0.05100    95553176.00000000 59899696.00000000 151306256.00000000 54842.21484375  4563739.50000000 3612115.00000000 
0.05200    93687368.00000000 58739640.00000000 148363600.00000000 53507.77343750  4463116.00000000 3532730.50000000 
0.05300    91833072.00000000 57587044.00000000 145439552.00000000 52188.94531250  4363398.50000000 3454050.75000000 
0.05400    89991912.00000000 56442576.00000000 142536992.00000000 50886.95703125  4264684.00000000 3376176.25000000 
0.05500    88166592.00000000 55307296.00000000 139657184.00000000 49602.72656250  4167063.75000000 3299152.00000000 
0.05600    86357632.00000000 54181812.00000000 136804384.00000000 48337.04296875  4070600.75000000 3222998.75000000 
0.05700    84566592.00000000 53067432.00000000 133979000.00000000 47090.96484375  3975360.00000000 3147822.75000000 
0.05800    82794424.00000000 51964560.00000000 131183664.00000000 45865.10937500  3881422.75000000 3073678.50000000 
0.05900    81042880.00000000 50874160.00000000 128419120.00000000 44660.52343750  3788834.50000000 3000587.25000000 
0.06000    79313368.00000000 49797240.00000000 125688960.00000000 43477.50390625  3697657.50000000 2928612.75000000 
0.06100    77605656.00000000 48733984.00000000 122994416.00000000 42316.64843750  3607963.25000000 2857800.75000000 
0.06200    75923160.00000000 47685504.00000000 120337040.00000000 41179.28515625  3519776.25000000 2788158.75000000 
0.06300    74264344.00000000 46652304.00000000 117718944.00000000 40065.26171875  3433154.25000000 2719742.25000000 
0.06400    72631072.00000000 45634780.00000000 115140912.00000000 38975.02343750  3348135.50000000 2652592.00000000 
0.06500    71025352.00000000 44633348.00000000 112604392.00000000 37908.92578125  3264749.50000000 2586729.50000000 
0.06600    69446584.00000000 43649284.00000000 110111496.00000000 36867.38281250  3183042.75000000 2522176.00000000 
0.06700    67895032.00000000 42682016.00000000 107661688.00000000 35850.69921875  3103022.50000000 2458946.50000000 
0.06800    66373732.00000000 41732756.00000000 105257816.00000000 34858.57421875  3024706.00000000 2397075.50000000 
0.06900    64880444.00000000 40801564.00000000 102899592.00000000 33891.78515625  2948137.50000000 2336552.50000000 
0.07000    63417452.00000000 39888428.00000000 100587352.00000000 32949.75000000  2873340.00000000 2277444.25000000 
0.07100    61984820.00000000 38994168.00000000 98324128.00000000 32033.24218750  2800313.50000000 2219711.00000000 
0.07200    60582592.00000000 38118844.00000000 96108736.00000000 31141.42968750  2729027.25000000 2163363.75000000 
0.07300    59211496.00000000 37262932.00000000 93941520.00000000 30274.71093750  2659561.25000000 2108439.50000000 
0.07400    57871312.00000000 36426296.00000000 91823688.00000000 29432.83984375  2591827.75000000 2054884.37500000 
0.07500    56562772.00000000 35609220.00000000 89755552.00000000 28615.43359375  2525898.00000000 2002744.25000000 
0.07600    55285748.00000000 34811252.00000000 87736672.00000000 27822.47070312  2461721.25000000 1951994.37500000 
0.07700    54040080.00000000 34033444.00000000 85767504.00000000 27053.47070312  2399309.00000000 1902628.37500000 
0.07800    52826444.00000000 33274826.00000000 83848800.00000000 26308.22460938  2338647.00000000 1854629.37500000 
0.07900    51644460.00000000 32536084.00000000 81979528.00000000 25586.38085938  2279686.25000000 1808011.87500000 
0.08000    50493904.00000000 31817234.00000000 80160696.00000000 24887.67968750  2222476.75000000 1762733.00000000 
0.08100    49374688.00000000 31117662.00000000 78391288.00000000 24211.58007812  2166955.25000000 1718795.50000000 
0.08200    48286764.00000000 30437876.00000000 76670928.00000000 23557.46289062  2113100.25000000 1676163.75000000 
0.08300    47229772.00000000 29777168.00000000 74999696.00000000 22925.19335938  2060871.75000000 1634847.12500000 
0.08400    46203360.00000000 29135860.00000000 73376640.00000000 22314.05078125  2010280.37500000 1594783.37500000 
0.08500    45207324.00000000 28513314.00000000 71802512.00000000 21723.61132812  1961258.37500000 1555990.75000000 
0.08600    44241732.00000000 27909690.00000000 70275040.00000000 21153.35742188  1913788.37500000 1518414.25000000 
0.08700    43305792.00000000 27324638.00000000 68794792.00000000 20602.65429688  1867868.75000000 1482048.12500000 
0.08800    42398780.00000000 26757768.00000000 67360816.00000000 20071.00781250  1823409.87500000 1446846.62500000 
0.08900    41520652.00000000 26209130.00000000 65971924.00000000 19557.71875000  1780411.50000000 1412800.00000000 
0.09000    40670712.00000000 25678068.00000000 64628940.00000000 19062.39843750  1738815.62500000 1379870.50000000 
0.09100    39848608.00000000 25164292.00000000 63328440.00000000 18584.47265625  1698602.00000000 1348018.37500000 
0.09200    39053312.00000000 24667688.00000000 62071584.00000000 18123.07421875  1659736.37500000 1317234.00000000 
0.09300    38285036.00000000 24187786.00000000 60857144.00000000 17677.68945312  1622161.50000000 1287478.75000000 
0.09400    37542200.00000000 23724080.00000000 59683528.00000000 17247.90625000  1585840.87500000 1258700.37500000 
0.09500    36824892.00000000 23276302.00000000 58549536.00000000 16832.89257812  1550740.12500000 1230904.25000000 
0.09600    36132460.00000000 22844170.00000000 57455568.00000000 16432.35937500  1516814.50000000 1204027.87500000 
0.09700    35463896.00000000 22427308.00000000 56399496.00000000 16045.48339844  1484022.25000000 1178045.12500000 
0.09800    34818816.00000000 22024962.00000000 55380316.00000000 15671.82128906  1452321.50000000 1152933.25000000 
0.09900    34196200.00000000 21637122.00000000 54397292.00000000 15310.62500000  1421674.50000000 1128652.62500000 
0.10000    33595576.00000000 21262934.00000000 53448828.00000000 14961.44042969  1392038.00000000 1105169.50000000 
0.10100    33016512.00000000 20902322.00000000 52534504.00000000 14623.70996094  1363361.37500000 1082457.62500000 
0.10200    32457358.00000000 20554638.00000000 51652812.00000000 14296.91992188  1335624.50000000 1060477.25000000 
0.10300    31918706.00000000 20219284.00000000 50802572.00000000 13980.51367188  1308769.37500000 1039203.12500000 
0.10400    31398992.00000000 19896228.00000000 49982680.00000000 13674.00488281  1282770.25000000 1018604.31250000 
0.10500    30897400.00000000 19585030.00000000 49192196.00000000 13376.90722656  1257590.62500000 998644.81250000 
0.10600    30413528.00000000 19284444.00000000 48429576.00000000 13088.72265625  1233173.12500000 979298.12500000 
0.10700    29946950.00000000 18994950.00000000 47694220.00000000 12809.00488281  1209489.50000000 960535.56250000 
0.10800    29496200.00000000 18715596.00000000 46984516.00000000 12537.21386719  1186508.50000000 942326.87500000 
0.10900    29061084.00000000 18446168.00000000 46299640.00000000 12273.09375000  1164187.00000000 924648.75000000 
0.11000    28641074.00000000 18186224.00000000 45638192.00000000 12016.07714844  1142504.37500000 907459.12500000 
0.11100    28234914.00000000 17935196.00000000 44999524.00000000 11765.92773438  1121414.00000000 890751.50000000 
0.11200    27842460.00000000 17692634.00000000 44382176.00000000 11522.13671875  1100891.62500000 874486.12500000 
0.11300    27462564.00000000 17458326.00000000 43784952.00000000 11284.54199219  1080891.62500000 858642.81250000 
0.11400    27094908.00000000 17231516.00000000 43207600.00000000 11052.63476562  1061404.75000000 843204.31250000 
0.11500    26738634.00000000 17012136.00000000 42648080.00000000 10826.16015625  1042390.25000000 828140.93750000 
0.11600    26393426.00000000 16799606.00000000 42106200.00000000 10604.75488281  1023826.81250000 813431.93750000 
0.11700    26058428.00000000 16593629.00000000 41580768.00000000 10388.36816406  1005687.43750000 799056.87500000 
0.11800    25733142.00000000 16393647.00000000 41069944.00000000 10176.51757812  987937.68750000 784995.25000000 
0.11900    25416614.00000000 16199495.00000000 40574200.00000000 9969.03808594   970564.56250000 771232.31250000 
0.12000    25108688.00000000 16010621.00000000 40091568.00000000 9765.70800781   953542.12500000 757739.18750000 
0.12100    24809040.00000000 15826987.00000000 39622032.00000000 9566.42578125   936857.25000000 744516.00000000 
0.12200    24516700.00000000 15647824.00000000 39163908.00000000 9370.85644531   920470.87500000 731532.31250000 
0.12300    24231216.00000000 15473069.00000000 38717040.00000000 9178.92285156   904383.18750000 718786.87500000 
0.12400    23952204.00000000 15302476.00000000 38280276.00000000 8990.35253906   888570.12500000 706248.06250000 
0.12500    23679226.00000000 15135462.00000000 37853356.00000000 8805.07910156   873008.50000000 693911.62500000 
0.12600    23411638.00000000 14972097.00000000 37434700.00000000 8623.12500000   857698.87500000 681774.93750000 
0.12700    23149274.00000000 14811745.00000000 37024436.00000000 8444.17187500   842611.18750000 669819.87500000 
0.12800    22891450.00000000 14654433.00000000 36621384.00000000 8268.19531250   827749.25000000 658025.68750000 
0.12900    22638008.00000000 14499713.00000000 36224880.00000000 8095.12695312   813085.68750000 646397.81250000 
0.13000    22388544.00000000 14347342.00000000 35834836.00000000 7924.86376953   798622.56250000 634919.43750000 
0.13100    22142554.00000000 14197183.00000000 35450088.00000000 7757.31591797   784332.81250000 623590.06250000 
0.13200    21899834.00000000 14049018.00000000 35070628.00000000 7592.45800781   770230.87500000 612397.25000000 
0.13300    21660192.00000000 13902552.00000000 34695544.00000000 7430.30371094   756293.87500000 601333.50000000 
0.13400    21423046.00000000 13757800.00000000 34324748.00000000 7270.67382812   742515.25000000 590400.62500000 
0.13500    21188332.00000000 13614338.00000000 33957536.00000000 7113.70068359   728895.37500000 579585.00000000 
0.13600    20955718.00000000 13472093.00000000 33593424.00000000 6959.15771484   715424.00000000 568889.93750000 
0.13700    20725012.00000000 13330879.00000000 33232318.00000000 6807.26757812   702100.25000000 558309.31250000 
0.13800    20495956.00000000 13190565.00000000 32873752.00000000 6657.75439453   688920.81250000 547830.68750000 
0.13900    20268384.00000000 13051199.00000000 32517100.00000000 6510.81982422   675877.06250000 537466.18750000 
0.14000    20042196.00000000 12912478.00000000 32162488.00000000 6366.37011719   662970.31250000 527207.00000000 
0.14100    19817018.00000000 12774229.00000000 31809604.00000000 6224.43798828   650199.87500000 517053.43750000 
0.14200    19593050.00000000 12636498.00000000 31457872.00000000 6084.92724609   637560.37500000 507003.96875000 
0.14300    19369696.00000000 12499126.00000000 31107480.00000000 5947.91748047   625061.00000000 497054.87500000 
0.14400    19146980.00000000 12361947.00000000 30757828.00000000 5813.38134766   612686.68750000 487207.37500000 
0.14500    18925284.00000000 12225205.00000000 30409172.00000000 5681.43261719   600448.37500000 477464.71875000 
0.14600    18703836.00000000 12088431.00000000 30060974.00000000 5551.92968750   588338.81250000 467819.78125000 
0.14700    18483006.00000000 11951820.00000000 29713642.00000000 5424.92089844   576365.62500000 458285.15625000 
0.14800    18262570.00000000 11815200.00000000 29366428.00000000 5300.40429688   564525.37500000 448846.96875000 
0.14900    18042302.00000000 11678713.00000000 29019404.00000000 5178.42187500   552819.37500000 439514.12500000 
0.15000    17822494.00000000 11542261.00000000 28672944.00000000 5058.92626953   541249.18750000 430290.18750000 
0.15100    17602976.00000000 11405657.00000000 28326426.00000000 4941.91357422   529811.81250000 421173.37500000 
0.15200    17383744.00000000 11269102.00000000 27980308.00000000 4827.45898438   518519.18750000 412163.84375000 
0.15300    17164854.00000000 11132523.00000000 27634098.00000000 4715.46142578   507369.06250000 403263.00000000 
0.15400    16945934.00000000 10995801.00000000 27288132.00000000 4605.92968750   496357.62500000 394469.65625000 
0.15500    16727440.00000000 10859072.00000000 26942640.00000000 4498.92626953   485490.31250000 385793.87500000 
0.15600    16509344.00000000 10722230.00000000 26596792.00000000 4394.29589844   474767.78125000 377227.09375000 
0.15700    16291459.00000000 10585522.00000000 26251510.00000000 4292.20117188   464195.59375000 368779.15625000 
0.15800    16073805.00000000 10448712.00000000 25906206.00000000 4192.47753906   453769.21875000 360444.37500000 
0.15900    15856712.00000000 10311989.00000000 25561664.00000000 4095.19189453   443495.37500000 352231.18750000 
0.16000    15639836.00000000 10175238.00000000 25217252.00000000 4000.26220703   433369.15625000 344131.50000000 
0.16100    15423613.00000000 10038657.00000000 24873322.00000000 3907.74267578   423402.56250000 336157.37500000 
0.16200    15207783.00000000 9902115.00000000 24530160.00000000 3817.54492188   413587.43750000 328302.06250000 
0.16300    14992617.00000000 9765845.00000000 24187518.00000000 3729.58154297   403930.00000000 320569.40625000 
0.16400    14777966.00000000 9629655.00000000 23845690.00000000 3643.93554688   394426.31250000 312959.81250000 
0.16500    14564109.00000000 9493786.00000000 23504482.00000000 3560.50610352   385084.15625000 305476.68750000 
0.16600    14350932.00000000 9358170.00000000 23164362.00000000 3479.25952148   375899.00000000 298117.71875000 
0.16700    14138663.00000000 9222892.00000000 22825400.00000000 3400.12304688   366874.56250000 290884.78125000 
0.16800    13927088.00000000 9087874.00000000 22487652.00000000 3323.10156250   358002.78125000 283774.12500000 
0.16900    13716697.00000000 8953439.00000000 22150892.00000000 3248.16015625   349298.21875000 276791.65625000 
0.17000    13507121.00000000 8819382.00000000 21815818.00000000 3175.19409180   340748.90625000 269938.21875000 
