# SAXS profile: number of points = 501, q_min = 0, q_max = 0.5, delta_q = 0.001
#    q    intensity 
0.00000    162237312.00000000 101201528.00000000 256272992.00000000 109275.86718750 8421153.00000000 6650948.00000000 
0.00100    162208768.00000000 101183448.00000000 256226304.00000000 109251.02343750 8419410.00000000 6649623.50000000 
0.00200    162123440.00000000 101129824.00000000 256089008.00000000 109175.97656250 8414211.00000000 6645523.50000000 
0.00300    161978944.00000000 101038976.00000000 255859904.00000000 109051.47656250 8405528.00000000 6638700.00000000 
0.00400    161775504.00000000 100913736.00000000 255540176.00000000 108877.20312500 8393414.00000000 6629195.00000000 
0.00500    161512848.00000000 100751960.00000000 255128544.00000000 108653.50000000 8377871.00000000 6616987.50000000 
0.00600    161193232.00000000 100554608.00000000 254626400.00000000 108380.88281250 8358948.00000000 6602058.50000000 
0.00700    160815360.00000000 100321392.00000000 254031312.00000000 108059.53906250 8336602.00000000 6584501.50000000 
0.00800    160382832.00000000 100054392.00000000 253350992.00000000 107690.12500000 8310888.00000000 6564271.00000000 
0.00900    159890544.00000000 99751240.00000000 252580752.00000000 107272.64843750 8281841.50000000 6541445.00000000 
0.01000    159342768.00000000 99414328.00000000 251723920.00000000 106807.89843750 8249538.00000000 6516008.00000000 
0.01100    158742272.00000000 99043512.00000000 250779184.00000000 106296.67187500 8213971.50000000 6487987.50000000 
0.01200    158087840.00000000 98639384.00000000 249749664.00000000 105739.57031250 8175143.50000000 6457473.50000000 
0.01300    157379264.00000000 98201688.00000000 248633600.00000000 105137.26562500 8133201.50000000 6424452.50000000 
0.01400    156618096.00000000 97730976.00000000 247437024.00000000 104490.46875000 8088123.00000000 6389008.00000000 
0.01500    155802896.00000000 97227792.00000000 246156320.00000000 103800.71093750 8039985.00000000 6351144.50000000 
0.01600    154936848.00000000 96693160.00000000 244796784.00000000 103068.07031250 7988894.50000000 6310939.50000000 
0.01700    154020944.00000000 96126896.00000000 243356496.00000000 102293.71093750 7934822.00000000 6268415.00000000 
0.01800    153055440.00000000 95531072.00000000 241838592.00000000 101479.54687500 7877877.50000000 6223585.00000000 
0.01900    152041632.00000000 94905472.00000000 240246272.00000000 100625.43750000 7818168.50000000 6176604.50000000 
0.02000    150981632.00000000 94250184.00000000 238578544.00000000 99732.83593750  7755719.50000000 6127463.50000000 
0.02100    149874784.00000000 93566560.00000000 236839504.00000000 98802.89843750  7690609.00000000 6076230.50000000 
0.02200    148723280.00000000 92854584.00000000 235029376.00000000 97837.25781250  7622889.00000000 6022971.00000000 
0.02300    147528448.00000000 92116784.00000000 233150032.00000000 96837.25000000  7552727.50000000 5967714.50000000 
0.02400    146289872.00000000 91351992.00000000 231204464.00000000 95802.94531250  7480092.00000000 5910583.00000000 
0.02500    145012096.00000000 90562472.00000000 229194720.00000000 94737.03906250  7405160.00000000 5851608.00000000 
0.02600    143694384.00000000 89748096.00000000 227123504.00000000 93640.23437500  7327951.50000000 5790846.00000000 
0.02700    142338064.00000000 88909952.00000000 224991088.00000000 92513.71875000  7248686.50000000 5728426.50000000 
0.02800    140944720.00000000 88049248.00000000 222799744.00000000 91359.62500000  7167265.00000000 5664356.50000000 
0.02900    139516208.00000000 87166048.00000000 220553168.00000000 90178.39062500  7083879.50000000 5598743.50000000 
0.03000    138054128.00000000 86262240.00000000 218254112.00000000 88972.77343750  6998653.50000000 5531668.50000000 
0.03100    136558512.00000000 85338408.00000000 215903840.00000000 87743.00000000  6911615.50000000 5463165.00000000 
0.03200    135033456.00000000 84394840.00000000 213504640.00000000 86491.05468750  6822901.00000000 5393325.50000000 
0.03300    133478560.00000000 83433728.00000000 211059328.00000000 85218.22656250  6732620.50000000 5322247.50000000 
0.03400    131895184.00000000 82454816.00000000 208570352.00000000 83926.65625000  6640850.50000000 5249964.50000000 
0.03500    130286400.00000000 81459920.00000000 206039520.00000000 82617.22656250  6547659.00000000 5176629.00000000 
0.03600    128652376.00000000 80449088.00000000 203469968.00000000 81291.60156250  6453226.00000000 5102254.50000000 
0.03700    126995944.00000000 79424408.00000000 200863184.00000000 79951.71875000  6357567.00000000 5026951.00000000 
0.03800    125317816.00000000 78386552.00000000 198223328.00000000 78598.06250000  6260824.00000000 4950772.50000000 
0.03900    123620032.00000000 77336328.00000000 195552832.00000000 77233.28906250  6163168.50000000 4873840.00000000 
0.04000    121903592.00000000 76273768.00000000 192852320.00000000 75858.22656250  6064533.50000000 4796201.50000000 
0.04100    120170536.00000000 75201712.00000000 190127520.00000000 74474.61718750  5965171.00000000 4717920.50000000 
0.04200    118422824.00000000 74120096.00000000 187376400.00000000 73083.59375000  5865119.00000000 4639120.00000000 
0.04300    116661712.00000000 73029848.00000000 184604816.00000000 71687.47656250  5764493.00000000 4559867.50000000 
0.04400    114888944.00000000 71932552.00000000 181814848.00000000 70286.79687500  5663341.00000000 4480201.50000000 
0.04500    113106208.00000000 70829384.00000000 179009312.00000000 68883.92968750  5561834.50000000 4400243.00000000 
0.04600    111314424.00000000 69720232.00000000 176189712.00000000 67479.07031250  5460052.00000000 4320035.00000000 
0.04700    109515696.00000000 68606224.00000000 173358224.00000000 66075.07031250  5358035.50000000 4239661.50000000 
0.04800    107711608.00000000 67488936.00000000 170517696.00000000 64671.98828125  5255930.50000000 4159203.75000000 
0.04900    105903640.00000000 66368284.00000000 167672928.00000000 63271.73437500  5153843.00000000 4078763.75000000 
0.05000    104093176.00000000 65246604.00000000 164822000.00000000 61875.41406250  5051806.00000000 3998349.00000000 
0.05100    102281720.00000000 64124196.00000000 161970608.00000000 60484.82031250  4949955.00000000 3918076.50000000 
0.05200    100471656.00000000 63001904.00000000 159118752.00000000 59100.67187500  4848361.50000000 3837996.00000000 
0.05300    98662488.00000000 61880736.00000000 156271568.00000000 57724.43750000  4747102.50000000 3758202.00000000 
0.05400    96856704.00000000 60761436.00000000 153429184.00000000 56357.06640625  4646273.00000000 3678717.50000000 
0.05500    95056704.00000000 59645024.00000000 150593232.00000000 55000.08203125  4545910.00000000 3599628.50000000 
0.05600    93262368.00000000 58532400.00000000 147766608.00000000 53654.27343750  4446220.00000000 3521002.00000000 
0.05700    91475480.00000000 57424228.00000000 144952000.00000000 52320.82031250  4347180.00000000 3442899.00000000 
0.05800    89697112.00000000 56321140.00000000 142150800.00000000 51000.63671875  4248832.00000000 3365369.25000000 
0.05900    87929576.00000000 55224152.00000000 139364640.00000000 49694.61328125  4151319.25000000 3288444.25000000 
0.06000    86172800.00000000 54133956.00000000 136596768.00000000 48404.02734375  4054662.50000000 3212226.75000000 
0.06100    84428216.00000000 53051200.00000000 133849928.00000000 47129.35546875  3958992.00000000 3136738.50000000 
0.06200    82697360.00000000 51977056.00000000 131122064.00000000 45871.51171875  3864282.25000000 3062043.75000000 
0.06300    80981424.00000000 50911656.00000000 128417816.00000000 44631.44921875  3770685.75000000 2988204.25000000 
0.06400    79281304.00000000 49855696.00000000 125738272.00000000 43409.66796875  3678179.50000000 2915218.25000000 
0.06500    77597896.00000000 48810452.00000000 123084712.00000000 42207.28515625  3586860.75000000 2843163.75000000 
0.06600    75932264.00000000 47775488.00000000 120458384.00000000 41024.74609375  3496772.25000000 2772077.25000000 
0.06700    74285232.00000000 46752264.00000000 117861944.00000000 39862.36718750  3407980.50000000 2701986.50000000 
0.06800    72658296.00000000 45740872.00000000 115296560.00000000 38721.16406250  3320494.00000000 2632927.50000000 
0.06900    71051560.00000000 44742100.00000000 112762504.00000000 37601.28125000  3234398.00000000 2564956.50000000 
0.07000    69465920.00000000 43756336.00000000 110262048.00000000 36503.23828125  3149696.75000000 2498090.00000000 
0.07100    67902536.00000000 42784116.00000000 107796248.00000000 35427.63671875  3066433.00000000 2432356.75000000 
0.07200    66361552.00000000 41825668.00000000 105365416.00000000 34374.71093750  2984652.00000000 2367770.00000000 
0.07300    64844400.00000000 40882084.00000000 102972856.00000000 33344.57031250  2904405.00000000 2304399.50000000 
0.07400    63351296.00000000 39952832.00000000 100616248.00000000 32337.92578125  2825682.25000000 2242198.75000000 
0.07500    61882588.00000000 39038832.00000000 98299472.00000000 31354.67773438  2748529.25000000 2181246.50000000 
0.07600    60439064.00000000 38140084.00000000 96021280.00000000 30394.95898438  2672933.50000000 2121545.50000000 
0.07700    59021356.00000000 37257696.00000000 93784256.00000000 29459.34179688  2598974.50000000 2063094.00000000 
0.07800    57629424.00000000 36390648.00000000 91587352.00000000 28547.42382812  2526622.50000000 2005918.75000000 
0.07900    56264272.00000000 35540340.00000000 89431784.00000000 27659.64843750  2455882.75000000 1950011.12500000 
0.08000    54925908.00000000 34706560.00000000 87318640.00000000 26795.63867188  2386814.25000000 1895405.62500000 
0.08100    53614724.00000000 33889280.00000000 85248656.00000000 25955.73437500  2319393.00000000 1842102.25000000 
0.08200    52330844.00000000 33088940.00000000 83220952.00000000 25139.68359375  2253610.00000000 1790088.62500000 
0.08300    51074184.00000000 32305684.00000000 81236640.00000000 24347.33007812  2189508.75000000 1739388.37500000 
0.08400    49846024.00000000 31539592.00000000 79296456.00000000 23578.68750000  2127040.25000000 1689991.87500000 
0.08500    48645324.00000000 30790682.00000000 77400232.00000000 22833.50390625  2066258.25000000 1641907.25000000 
0.08600    47472644.00000000 30059152.00000000 75547600.00000000 22111.68750000  2007120.00000000 1595107.62500000 
0.08700    46328524.00000000 29344824.00000000 73739552.00000000 21412.84765625  1949600.00000000 1549604.00000000 
0.08800    45211952.00000000 28648130.00000000 71975472.00000000 20736.83007812  1893740.37500000 1505392.37500000 
0.08900    44124148.00000000 27968732.00000000 70255536.00000000 20083.13476562  1839494.00000000 1462439.62500000 
0.09000    43063640.00000000 27306532.00000000 68579768.00000000 19451.80468750  1786860.87500000 1420766.62500000 
0.09100    42031300.00000000 26661780.00000000 66947408.00000000 18842.11914062  1735814.25000000 1380355.00000000 
0.09200    41026336.00000000 26034198.00000000 65359644.00000000 18254.06054688  1686335.00000000 1341168.62500000 
0.09300    40049576.00000000 25423638.00000000 63814592.00000000 17686.93945312  1638432.37500000 1303222.87500000 
0.09400    39100120.00000000 24830106.00000000 62312976.00000000 17140.48242188  1592044.75000000 1266479.75000000 
0.09500    38177424.00000000 24253426.00000000 60854352.00000000 16614.30859375  1547169.12500000 1230926.25000000 
0.09600    37282344.00000000 23693602.00000000 59438176.00000000 16107.74121094  1503796.50000000 1196545.50000000 
0.09700    36413256.00000000 23150196.00000000 58063664.00000000 15620.70800781  1461869.00000000 1163315.00000000 
0.09800    35571144.00000000 22623268.00000000 56731420.00000000 15152.39843750  1421387.62500000 1131225.50000000 
0.09900    34754788.00000000 22112546.00000000 55439356.00000000 14702.51953125  1382319.12500000 1100231.00000000 
0.10000    33963672.00000000 21617488.00000000 54188112.00000000 14270.45507812  1344612.50000000 1070323.75000000 
0.10100    33198118.00000000 21138204.00000000 52976652.00000000 13855.66503906  1308255.50000000 1041492.31250000 
0.10200    32457480.00000000 20674418.00000000 51803856.00000000 13457.76269531  1273220.62500000 1013684.31250000 
0.10300    31741178.00000000 20225894.00000000 50670332.00000000 13076.15722656  1239454.75000000 986893.43750000 
0.10400    31048800.00000000 19792074.00000000 49573988.00000000 12710.21875000  1206945.87500000 961090.37500000 
0.10500    30379834.00000000 19373028.00000000 48515116.00000000 12359.61816406  1175655.62500000 936250.87500000 
0.10600    29733924.00000000 18968278.00000000 47492012.00000000 12023.69824219  1145545.87500000 912339.68750000 
0.10700    29110522.00000000 18577574.00000000 46505100.00000000 11701.90332031  1116585.12500000 889333.62500000 
0.10800    28508860.00000000 18200534.00000000 45552588.00000000 11393.81933594  1088730.00000000 867204.87500000 
0.10900    27928800.00000000 17836890.00000000 44633916.00000000 11098.62402344  1061954.37500000 845925.18750000 
0.11000    27369660.00000000 17486254.00000000 43748228.00000000 10816.10351562  1036219.12500000 825473.43750000 
0.11100    26830936.00000000 17148392.00000000 42894712.00000000 10545.69628906  1011492.68750000 805813.31250000 
0.11200    26312000.00000000 16822952.00000000 42072376.00000000 10286.71191406  987731.56250000 786919.50000000 
0.11300    25812168.00000000 16509371.00000000 41280892.00000000 10038.80273438  964904.56250000 768764.75000000 
0.11400    25331252.00000000 16207649.00000000 40518244.00000000 9801.30957031   942975.50000000 751319.87500000 
0.11500    24868120.00000000 15917127.00000000 39785124.00000000 9573.81250000   921908.43750000 734550.56250000 
0.11600    24422594.00000000 15637601.00000000 39078920.00000000 9355.87988281   901670.93750000 718446.25000000 
0.11700    23994006.00000000 15368681.00000000 38399676.00000000 9146.98437500   882222.43750000 702965.43750000 
0.11800    23581774.00000000 15110061.00000000 37746540.00000000 8946.50390625   863530.50000000 688082.75000000 
0.11900    23185420.00000000 14861246.00000000 37118012.00000000 8754.19824219   845558.56250000 673774.31250000 
0.12000    22803996.00000000 14621804.00000000 36513704.00000000 8569.49609375   828281.06250000 660005.43750000 
0.12100    22437154.00000000 14391646.00000000 35932352.00000000 8392.08984375   811668.06250000 646764.62500000 
0.12200    22084438.00000000 14170329.00000000 35373624.00000000 8221.33203125   795663.31250000 634015.18750000 
0.12300    21745324.00000000 13957403.00000000 34835564.00000000 8057.05078125   780261.43750000 621734.37500000 
0.12400    21418698.00000000 13752581.00000000 34318668.00000000 7898.74218750   765416.25000000 609901.18750000 
0.12500    21104610.00000000 13555449.00000000 33820768.00000000 7745.99755859   751105.12500000 598480.06250000 
0.12600    20802444.00000000 13365739.00000000 33341806.00000000 7598.53759766   737295.62500000 587470.68750000 
0.12700    20511420.00000000 13183183.00000000 32880320.00000000 7455.91943359   723961.62500000 576829.62500000 
0.12800    20230996.00000000 13007261.00000000 32436076.00000000 7317.85058594   711064.12500000 566542.37500000 
0.12900    19960542.00000000 12837609.00000000 32007718.00000000 7184.05175781   698589.81250000 556586.93750000 
0.13000    19700014.00000000 12674216.00000000 31594910.00000000 7054.17041016   686503.62500000 546937.62500000 
0.13100    19448502.00000000 12516515.00000000 31196098.00000000 6927.85498047   674788.18750000 537581.81250000 
0.13200    19205438.00000000 12364117.00000000 30811236.00000000 6804.92724609   663408.81250000 528498.12500000 
0.13300    18970658.00000000 12216978.00000000 30439492.00000000 6685.15136719   652354.31250000 519669.43750000 
0.13400    18743582.00000000 12074592.00000000 30079714.00000000 6568.19970703   641594.25000000 511073.34375000 
0.13500    18523682.00000000 11936794.00000000 29731216.00000000 6453.84716797   631103.31250000 502693.56250000 
0.13600    18310452.00000000 11803175.00000000 29393532.00000000 6341.90917969   620875.00000000 494518.06250000 
0.13700    18103516.00000000 11673616.00000000 29065898.00000000 6232.24462891   610879.81250000 486531.90625000 
0.13800    17902516.00000000 11547646.00000000 28747612.00000000 6124.52734375   601088.68750000 478711.93750000 
0.13900    17707030.00000000 11425261.00000000 28437978.00000000 6018.67187500   591510.50000000 471053.78125000 
0.14000    17516498.00000000 11305898.00000000 28136368.00000000 5914.56054688   582112.81250000 463541.65625000 
0.14100    17330678.00000000 11189696.00000000 27842342.00000000 5811.98974609   572879.25000000 456161.56250000 
0.14200    17149338.00000000 11076101.00000000 27555144.00000000 5710.81494141   563799.12500000 448903.84375000 
0.14300    16971846.00000000 10965073.00000000 27274314.00000000 5610.92236328   554857.37500000 441750.43750000 
0.14400    16797940.00000000 10856249.00000000 26999034.00000000 5512.25195312   546039.31250000 434701.96875000 
0.14500    16627548.00000000 10749568.00000000 26729212.00000000 5414.64404297   537338.81250000 427741.18750000 
0.14600    16460040.00000000 10644828.00000000 26464130.00000000 5318.07324219   528743.87500000 420865.81250000 
0.14700    16295294.00000000 10541741.00000000 26203478.00000000 5222.45068359   520235.34375000 414066.12500000 
0.14800    16133069.00000000 10440169.00000000 25946608.00000000 5127.68994141   511813.15625000 407327.50000000 
0.14900    15972929.00000000 10339953.00000000 25693336.00000000 5033.71044922   503464.68750000 400650.90625000 
0.15000    15814742.00000000 10241043.00000000 25442858.00000000 4940.52929688   495186.93750000 394031.78125000 
0.15100    15658332.00000000 10143024.00000000 25195110.00000000 4848.11132812   486969.46875000 387455.96875000 
0.15200    15503388.00000000 10046060.00000000 24949860.00000000 4756.42236328   478813.62500000 380927.81250000 
0.15300    15349736.00000000 9949852.00000000 24706686.00000000 4665.37841797   470701.37500000 374438.87500000 
0.15400    15197162.00000000 9854166.00000000 24464800.00000000 4575.02343750   462632.15625000 367983.25000000 
0.15500    15045430.00000000 9759169.00000000 24224680.00000000 4485.36279297   454611.06250000 361564.12500000 
0.15600    14894527.00000000 9664531.00000000 23985596.00000000 4396.33251953   446622.81250000 355172.15625000 
0.15700    14744249.00000000 9570299.00000000 23747386.00000000 4308.02978516   438677.56250000 348812.34375000 
0.15800    14594381.00000000 9476241.00000000 23509804.00000000 4220.38085938   430757.75000000 342475.78125000 
0.15900    14444845.00000000 9382436.00000000 23272802.00000000 4133.46679688   422874.18750000 336166.37500000 
0.16000    14295535.00000000 9288646.00000000 23036132.00000000 4047.22485352   415021.78125000 329879.25000000 
0.16100    14146392.00000000 9194902.00000000 22799468.00000000 3961.79394531   407203.12500000 323619.40625000 
0.16200    13997262.00000000 9101116.00000000 22562926.00000000 3877.10253906   399412.62500000 317381.78125000 
0.16300    13848106.00000000 9007226.00000000 22326112.00000000 3793.21044922   391651.96875000 311167.71875000 
0.16400    13698738.00000000 8913255.00000000 22089058.00000000 3710.16113281   383927.09375000 304980.09375000 
0.16500    13549284.00000000 8819125.00000000 21851758.00000000 3627.97583008   376231.28125000 298818.59375000 
0.16600    13399664.00000000 8724746.00000000 21613994.00000000 3546.68237305   368573.25000000 292683.71875000 
0.16700    13249595.00000000 8630013.00000000 21375574.00000000 3466.32910156   360948.31250000 286575.31250000 
0.16800    13099334.00000000 8535101.00000000 21136548.00000000 3386.89941406   353364.12500000 280497.21875000 
0.16900    12948778.00000000 8439960.00000000 20897274.00000000 3308.56811523   345821.75000000 274455.40625000 
0.17000    12797826.00000000 8344553.00000000 20657208.00000000 3231.21069336   338320.93750000 268443.43750000 
