# SAXS profile: number of points = 501, q_min = 0, q_max = 0.5, delta_q = 0.001
#    q    intensity 
0.00000    162234512.00000000 101201848.00000000 256270224.00000000 108130.56250000 8376856.50000000 6616034.50000000 
0.00100    162196384.00000000 101176800.00000000 256207408.00000000 108096.78125000 8374510.50000000 6614153.50000000 
0.00200    162079904.00000000 101102584.00000000 256019600.00000000 107994.89062500 8367436.50000000 6608615.00000000 
0.00300    161882400.00000000 100979440.00000000 255704512.00000000 107825.87500000 8355614.50000000 6599311.00000000 
0.00400    161601632.00000000 100807080.00000000 255264352.00000000 107590.25000000 8339134.00000000 6586349.00000000 
0.00500    161240672.00000000 100585512.00000000 254700928.00000000 107287.78125000 8317991.00000000 6569755.00000000 
0.00600    160800352.00000000 100314544.00000000 254012064.00000000 106919.37500000 8292217.00000000 6549511.00000000 
0.00700    160284816.00000000 99996984.00000000 253202352.00000000 106485.95312500 8261895.00000000 6525633.50000000 
0.00800    159688832.00000000 99631920.00000000 252271808.00000000 105988.61718750 8227086.00000000 6498330.50000000 
0.00900    159019392.00000000 99220328.00000000 251221664.00000000 105427.34375000 8187801.00000000 6467446.00000000 
0.01000    158276240.00000000 98763088.00000000 250055744.00000000 104805.14843750 8144224.50000000 6433203.50000000 
0.01100    157461488.00000000 98260000.00000000 248772304.00000000 104122.13281250 8096294.50000000 6395529.50000000 
0.01200    156573392.00000000 97712112.00000000 247377392.00000000 103379.02343750 8044238.50000000 6354594.50000000 
0.01300    155610992.00000000 97121040.00000000 245870496.00000000 102578.92968750 7988078.50000000 6310466.00000000 
0.01400    154584160.00000000 96487120.00000000 244256768.00000000 101722.90625000 7927909.00000000 6263199.50000000 
0.01500    153488848.00000000 95812920.00000000 242536928.00000000 100812.56250000 7863956.50000000 6212945.50000000 
0.01600    152329792.00000000 95097976.00000000 240716000.00000000 99849.81250000  7796226.00000000 6159658.50000000 
0.01700    151104896.00000000 94344144.00000000 238795952.00000000 98837.40625000  7724874.00000000 6103567.00000000 
0.01800    149820928.00000000 93552584.00000000 236779872.00000000 97775.86718750  7650083.00000000 6044750.00000000 
0.01900    148478656.00000000 92724376.00000000 234669568.00000000 96669.36718750  7571892.00000000 5983284.00000000 
0.02000    147076192.00000000 91861512.00000000 232472624.00000000 95517.33593750  7490568.00000000 5919338.50000000 
0.02100    145622800.00000000 90964848.00000000 230187552.00000000 94324.91406250  7406136.50000000 5852957.00000000 
0.02200    144116960.00000000 90036624.00000000 227822320.00000000 93092.14062500  7318882.00000000 5784326.00000000 
0.02300    142562992.00000000 89076792.00000000 225378288.00000000 91823.14062500  7228833.00000000 5713525.50000000 
0.02400    140960400.00000000 88088488.00000000 222863056.00000000 90519.21093750  7136198.00000000 5640684.00000000 
0.02500    139313408.00000000 87072376.00000000 220275952.00000000 89183.40625000  7041225.00000000 5565942.00000000 
0.02600    137625584.00000000 86030192.00000000 217622192.00000000 87818.23437500  6943967.50000000 5489449.50000000 
0.02700    135898608.00000000 84964616.00000000 214908128.00000000 86425.74218750  6844622.50000000 5411277.50000000 
0.02800    134134504.00000000 83875048.00000000 212136800.00000000 85009.04687500  6743336.00000000 5331623.00000000 
0.02900    132337400.00000000 82765568.00000000 209312464.00000000 83570.26562500  6640395.00000000 5250570.00000000 
0.03000    130509224.00000000 81636536.00000000 206437648.00000000 82111.95312500  6535797.50000000 5168235.00000000 
0.03100    128653560.00000000 80489792.00000000 203521072.00000000 80636.75781250  6429822.00000000 5084848.50000000 
0.03200    126771128.00000000 79326544.00000000 200562432.00000000 79146.81250000  6322601.50000000 5000426.00000000 
0.03300    124867328.00000000 78149312.00000000 197566944.00000000 77645.84375000  6214311.00000000 4915207.50000000 
0.03400    122942952.00000000 76959768.00000000 194541680.00000000 76134.72656250  6105111.00000000 4829281.00000000 
0.03500    121002232.00000000 75759048.00000000 191487824.00000000 74618.00781250  5995225.00000000 4742724.50000000 
0.03600    119046360.00000000 74550240.00000000 188412688.00000000 73095.28906250  5884749.50000000 4655743.00000000 
0.03700    117078952.00000000 73332576.00000000 185317248.00000000 71571.20312500  5773896.00000000 4568424.00000000 
0.03800    115101856.00000000 72109592.00000000 182206048.00000000 70046.98437500  5662763.00000000 4480910.00000000 
0.03900    113119048.00000000 70881104.00000000 179085216.00000000 68525.14843750  5551569.00000000 4393305.00000000 
0.04000    111131816.00000000 69650240.00000000 175957328.00000000 67007.22656250  5440367.00000000 4305719.50000000 
0.04100    109143464.00000000 68417920.00000000 172826416.00000000 65495.94921875  5329432.00000000 4218300.50000000 
0.04200    107156072.00000000 67186296.00000000 169697632.00000000 63993.48828125  5218827.00000000 4131104.75000000 
0.04300    105171872.00000000 65956732.00000000 166572640.00000000 62501.40234375  5108705.50000000 4044300.75000000 
0.04400    103193400.00000000 64729552.00000000 163456800.00000000 61021.31250000  4999228.00000000 3958009.00000000 
0.04500    101222968.00000000 63507364.00000000 160353600.00000000 59555.55468750  4890471.00000000 3872300.25000000 
0.04600    99262912.00000000 62291004.00000000 157266864.00000000 58105.59375000  4782585.50000000 3787217.00000000 
0.04700    97314744.00000000 61081916.00000000 154195056.00000000 56672.91406250  4675725.00000000 3702956.25000000 
0.04800    95381144.00000000 59881180.00000000 151147552.00000000 55259.14062500  4569930.00000000 3619512.50000000 
0.04900    93463792.00000000 58690316.00000000 148124176.00000000 53865.59765625  4465398.50000000 3537029.00000000 
0.05000    91564504.00000000 57510036.00000000 145130112.00000000 52493.59375000  4362141.50000000 3455573.25000000 
0.05100    89684448.00000000 56342016.00000000 142167584.00000000 51144.07421875  4260296.00000000 3375206.75000000 
0.05200    87826760.00000000 55186724.00000000 139237104.00000000 49818.68359375  4159904.50000000 3295991.00000000 
0.05300    85991952.00000000 54045372.00000000 136341888.00000000 48517.82031250  4061135.50000000 3218045.50000000 
0.05400    84181504.00000000 52918864.00000000 133487288.00000000 47242.60937500  3963993.75000000 3141353.75000000 
0.05500    82397392.00000000 51808448.00000000 130671936.00000000 45993.92578125  3868574.50000000 3065988.75000000 
0.05600    80639824.00000000 50714708.00000000 127898656.00000000 44772.26562500  3774906.00000000 2992037.00000000 
0.05700    78912456.00000000 49638388.00000000 125171288.00000000 43578.64453125  3683112.00000000 2919526.50000000 
0.05800    77213288.00000000 48579688.00000000 122489160.00000000 42413.10937500  3593158.00000000 2848489.50000000 
0.05900    75545152.00000000 47539960.00000000 119855104.00000000 41276.36718750  3505157.00000000 2778954.75000000 
0.06000    73908248.00000000 46519660.00000000 117270504.00000000 40168.41796875  3419102.25000000 2710962.75000000 
0.06100    72304176.00000000 45519196.00000000 114736152.00000000 39090.03515625  3335047.00000000 2644526.75000000 
0.06200    70732792.00000000 44538824.00000000 112254392.00000000 38040.85546875  3252994.25000000 2579704.75000000 
0.06300    69195360.00000000 43579328.00000000 109824768.00000000 37020.76953125  3173017.75000000 2516431.50000000 
0.06400    67692256.00000000 42640984.00000000 107448920.00000000 36030.12890625  3095042.50000000 2454815.25000000 
0.06500    66222816.00000000 41723516.00000000 105127312.00000000 35068.74218750  3019134.25000000 2394793.25000000 
0.06600    64789228.00000000 40827808.00000000 102861240.00000000 34136.39843750  2945285.75000000 2336385.25000000 
0.06700    63390324.00000000 39954028.00000000 100649552.00000000 33232.72265625  2873498.75000000 2279637.25000000 
0.06800    62027000.00000000 39101672.00000000 98494168.00000000 32357.63867188  2803757.00000000 2224439.75000000 
0.06900    60698908.00000000 38271620.00000000 96394288.00000000 31510.81835938  2736049.25000000 2170881.50000000 
0.07000    59406656.00000000 37463072.00000000 94350080.00000000 30691.55664062  2670355.00000000 2118901.00000000 
0.07100    58149432.00000000 36676952.00000000 92361440.00000000 29899.50000000  2606647.00000000 2068482.50000000 
0.07200    56927696.00000000 35912828.00000000 90428472.00000000 29134.01757812  2544899.00000000 2019623.37500000 
0.07300    55740752.00000000 35169996.00000000 88551112.00000000 28394.46484375  2485119.25000000 1972304.50000000 
0.07400    54588748.00000000 34448796.00000000 86728136.00000000 27680.34765625  2427219.50000000 1926488.87500000 
0.07500    53471284.00000000 33749196.00000000 84959744.00000000 26990.88867188  2371216.50000000 1882142.87500000 
0.07600    52387396.00000000 33070972.00000000 83244424.00000000 26325.56054688  2317029.50000000 1839237.25000000 
0.07700    51337124.00000000 32413532.00000000 81582528.00000000 25683.43945312  2264648.00000000 1797762.87500000 
0.07800    50319664.00000000 31776422.00000000 79972240.00000000 25063.98828125  2213990.00000000 1757654.12500000 
0.07900    49334748.00000000 31159736.00000000 78413552.00000000 24466.14648438  2165036.25000000 1718898.75000000 
0.08000    48381636.00000000 30563072.00000000 76904152.00000000 23889.40429688  2117734.50000000 1681445.50000000 
0.08100    47459388.00000000 29985472.00000000 75445352.00000000 23332.84375000  2072029.75000000 1645250.87500000 
0.08200    46567824.00000000 29427220.00000000 74034048.00000000 22795.47656250  2027870.12500000 1610296.12500000 
0.08300    45705656.00000000 28887674.00000000 72669248.00000000 22276.89648438  1985213.37500000 1576508.25000000 
0.08400    44872404.00000000 28366084.00000000 71350888.00000000 21776.05664062  1943989.25000000 1543860.00000000 
0.08500    44067176.00000000 27862262.00000000 70077160.00000000 21292.08984375  1904168.87500000 1512324.37500000 
0.08600    43289148.00000000 27375602.00000000 68846912.00000000 20824.25390625  1865672.12500000 1481843.50000000 
0.08700    42537388.00000000 26905470.00000000 67657672.00000000 20371.88085938  1828461.12500000 1452368.00000000 
0.08800    41811420.00000000 26451610.00000000 66509136.00000000 19933.89453125  1792461.25000000 1423868.87500000 
0.08900    41110296.00000000 26013098.00000000 65399968.00000000 19509.96289062  1757624.25000000 1396290.25000000 
0.09000    40432396.00000000 25589928.00000000 64328916.00000000 19098.98828125  1723903.75000000 1369592.62500000 
0.09100    39777436.00000000 25181078.00000000 63293976.00000000 18700.24804688  1691255.62500000 1343746.00000000 
0.09200    39144732.00000000 24786210.00000000 62293644.00000000 18313.34570312  1659597.87500000 1318691.25000000 
0.09300    38532788.00000000 24404524.00000000 61327508.00000000 17937.24804688  1628898.62500000 1294397.75000000 
0.09400    37941232.00000000 24035738.00000000 60392848.00000000 17571.55273438  1599102.12500000 1270795.87500000 
0.09500    37368696.00000000 23679174.00000000 59489300.00000000 17215.52539062  1570161.75000000 1247888.87500000 
0.09600    36814772.00000000 23334208.00000000 58614988.00000000 16868.54687500  1542013.50000000 1225628.50000000 
0.09700    36278676.00000000 23000588.00000000 57768748.00000000 16530.22851562  1514635.87500000 1203968.75000000 
0.09800    35758428.00000000 22677316.00000000 56948488.00000000 16199.73437500  1487960.87500000 1182857.87500000 
0.09900    35254620.00000000 22364486.00000000 56153792.00000000 15876.62890625  1461972.50000000 1162295.00000000 
0.10000    34765224.00000000 22060802.00000000 55383064.00000000 15560.57714844  1436597.62500000 1142210.25000000 
0.10100    34290200.00000000 21766360.00000000 54634780.00000000 15251.12792969  1411804.37500000 1122598.12500000 
0.10200    33828896.00000000 21480228.00000000 53907640.00000000 14947.80957031  1387551.75000000 1103429.75000000 
0.10300    33379406.00000000 21202350.00000000 53200588.00000000 14650.13867188  1363820.62500000 1084639.87500000 
0.10400    32942096.00000000 20931764.00000000 52512720.00000000 14357.74414062  1340562.00000000 1066246.25000000 
0.10500    32515894.00000000 20668426.00000000 51842408.00000000 14070.62597656  1317762.00000000 1048203.25000000 
0.10600    32099862.00000000 20411608.00000000 51188376.00000000 13788.21191406  1295344.25000000 1030469.93750000 
0.10700    31693726.00000000 20161054.00000000 50550004.00000000 13510.19042969  1273319.62500000 1013060.37500000 
0.10800    31296382.00000000 19916202.00000000 49925832.00000000 13236.48730469  1251655.37500000 995915.62500000 
0.10900    30907564.00000000 19676806.00000000 49315432.00000000 12966.78613281  1230330.12500000 979035.43750000 
0.11000    30526604.00000000 19442176.00000000 48717144.00000000 12700.97265625  1209307.37500000 962400.43750000 
0.11100    30152708.00000000 19212082.00000000 48130776.00000000 12438.86425781  1188570.00000000 945992.87500000 
0.11200    29785756.00000000 18986578.00000000 47554864.00000000 12180.26953125  1168107.87500000 929792.31250000 
0.11300    29424696.00000000 18764764.00000000 46988312.00000000 11925.09375000  1147892.62500000 913787.75000000 
0.11400    29069474.00000000 18546434.00000000 46431216.00000000 11673.40234375  1127915.50000000 897966.06250000 
0.11500    28719676.00000000 18331710.00000000 45882452.00000000 11424.81933594  1108164.00000000 882326.56250000 
0.11600    28374364.00000000 18119718.00000000 45341520.00000000 11179.61230469  1088622.87500000 866841.37500000 
0.11700    28033850.00000000 17910640.00000000 44807600.00000000 10937.54980469  1069289.12500000 851514.75000000 
0.11800    27697146.00000000 17703954.00000000 44279620.00000000 10698.49316406  1050140.37500000 836330.43750000 
0.11900    27364248.00000000 17499576.00000000 43757368.00000000 10462.68261719  1031161.37500000 821290.56250000 
0.12000    27034724.00000000 17297514.00000000 43241004.00000000 10230.04687500  1012374.18750000 806383.93750000 
0.12100    26708232.00000000 17096984.00000000 42728988.00000000 10000.40136719  993753.00000000 791610.31250000 
0.12200    26384698.00000000 16898296.00000000 42221616.00000000 9774.04003906   975305.81250000 776970.06250000 
0.12300    26063770.00000000 16701115.00000000 41718076.00000000 9550.93750000   957018.18750000 762451.12500000 
0.12400    25745314.00000000 16505273.00000000 41218516.00000000 9330.89160156   938895.81250000 748055.25000000 
0.12500    25428770.00000000 16310730.00000000 40721692.00000000 9114.15917969   920939.25000000 733782.68750000 
0.12600    25114548.00000000 16117345.00000000 40228468.00000000 8900.75097656   903144.81250000 719641.18750000 
0.12700    24802098.00000000 15925026.00000000 39737956.00000000 8690.70800781   885517.18750000 705619.93750000 
0.12800    24491524.00000000 15733487.00000000 39249584.00000000 8483.97460938   868046.62500000 691724.31250000 
0.12900    24182586.00000000 15542997.00000000 38764272.00000000 8280.61621094   850749.87500000 677950.81250000 
0.13000    23875162.00000000 15353199.00000000 38280904.00000000 8080.81250000   833624.06250000 664320.37500000 
0.13100    23568994.00000000 15164192.00000000 37799312.00000000 7884.46386719   816666.56250000 650810.75000000 
0.13200    23264784.00000000 14975793.00000000 37320576.00000000 7691.67919922   799886.00000000 637440.50000000 
0.13300    22961536.00000000 14788113.00000000 36842976.00000000 7502.47656250   783285.75000000 624206.68750000 
0.13400    22659832.00000000 14601061.00000000 36367388.00000000 7316.87207031   766867.37500000 611115.12500000 
0.13500    22359320.00000000 14414627.00000000 35893896.00000000 7134.84228516   750637.75000000 598167.87500000 
0.13600    22060268.00000000 14228748.00000000 35422432.00000000 6956.51269531   734598.31250000 585371.31250000 
0.13700    21762626.00000000 14043675.00000000 34952416.00000000 6781.79931641   718748.56250000 572719.31250000 
0.13800    21466218.00000000 13859054.00000000 34484228.00000000 6610.78222656   703106.93750000 560224.06250000 
0.13900    21171238.00000000 13675078.00000000 34018176.00000000 6443.42333984   687662.43750000 547886.00000000 
0.14000    20877558.00000000 13491831.00000000 33554148.00000000 6279.74951172   672426.00000000 535709.93750000 
0.14100    20585428.00000000 13309158.00000000 33091860.00000000 6119.72216797   657402.56250000 523698.21875000 
0.14200    20294704.00000000 13127325.00000000 32631926.00000000 5963.34912109   642587.87500000 511855.50000000 
0.14300    20005542.00000000 12946130.00000000 32174040.00000000 5810.57031250   627996.37500000 500180.56250000 
0.14400    19718150.00000000 12765654.00000000 31718328.00000000 5661.39257812   613615.93750000 488679.31250000 
0.14500    19432222.00000000 12586140.00000000 31264900.00000000 5515.69726562   599465.50000000 477356.00000000 
0.14600    19148094.00000000 12407425.00000000 30814218.00000000 5373.56738281   585536.62500000 466207.96875000 
0.14700    18865812.00000000 12229664.00000000 30366040.00000000 5234.89794922   571833.81250000 455239.84375000 
0.14800    18585112.00000000 12052636.00000000 29920120.00000000 5099.60058594   558361.93750000 444451.87500000 
0.14900    18306668.00000000 11876717.00000000 29477240.00000000 4967.64746094   545120.18750000 433848.28125000 
0.15000    18029760.00000000 11701850.00000000 29037130.00000000 4838.96484375   532106.62500000 423428.31250000 
0.15100    17755234.00000000 11527989.00000000 28600310.00000000 4713.54443359   519327.43750000 413190.71875000 
0.15200    17482818.00000000 11355358.00000000 28166306.00000000 4591.25683594   506784.43750000 403142.40625000 
0.15300    17212456.00000000 11183813.00000000 27735690.00000000 4472.04394531   494464.81250000 393274.84375000 
0.15400    16944246.00000000 11013584.00000000 27308264.00000000 4355.77783203   482380.81250000 383596.15625000 
0.15500    16678500.00000000 10844595.00000000 26884216.00000000 4242.48486328   470527.18750000 374102.65625000 
0.15600    16415116.00000000 10676907.00000000 26463778.00000000 4131.97363281   458903.84375000 364791.15625000 
0.15700    16154026.00000000 10510640.00000000 26047126.00000000 4024.30273438   447510.50000000 355665.75000000 
0.15800    15895338.00000000 10345631.00000000 25633876.00000000 3919.22534180   436342.43750000 346723.37500000 
0.15900    15639385.00000000 10182081.00000000 25224708.00000000 3816.83203125   425401.18750000 337960.93750000 
0.16000    15385677.00000000 10020093.00000000 24819318.00000000 3716.88623047   414680.28125000 329380.50000000 
0.16100    15134910.00000000 9859634.00000000 24418178.00000000 3619.43896484   404186.93750000 320980.06250000 
0.16200    14886618.00000000 9700731.00000000 24020872.00000000 3524.33203125   393910.21875000 312752.90625000 
0.16300    14641117.00000000 9543398.00000000 23627792.00000000 3431.51464844   383847.59375000 304703.09375000 
0.16400    14398251.00000000 9387685.00000000 23239022.00000000 3340.94409180   373998.93750000 296827.31250000 
0.16500    14158220.00000000 9233627.00000000 22854468.00000000 3252.48779297   364358.87500000 289119.12500000 
0.16600    13921047.00000000 9081305.00000000 22474342.00000000 3166.14648438   354929.18750000 281581.78125000 
0.16700    13686498.00000000 8930601.00000000 22098500.00000000 3081.77783203   345701.53125000 274207.25000000 
0.16800    13454975.00000000 8781647.00000000 21726964.00000000 2999.39648438   336674.00000000 266992.78125000 
0.16900    13226325.00000000 8634562.00000000 21360310.00000000 2918.93188477   327849.46875000 259944.93750000 
0.17000    13000557.00000000 8489089.00000000 20998032.00000000 2840.32348633   319210.90625000 253052.21875000 
