# SAXS profile: number of points = 501, q_min = 0, q_max = 0.5, delta_q = 0.001
#    q    intensity 
0.00000    162237520.00000000 101201784.00000000 256272528.00000000 93305.22656250  7781466.50000000 6145775.00000000 
0.00100    162208592.00000000 101183456.00000000 256226096.00000000 93282.42968750  7779774.50000000 6144444.50000000 
0.00200    162121696.00000000 101128584.00000000 256087472.00000000 93213.47656250  7774709.00000000 6140468.00000000 
0.00300    161975712.00000000 101038272.00000000 255856480.00000000 93098.96093750  7766263.50000000 6133847.00000000 
0.00400    161769696.00000000 100911232.00000000 255533648.00000000 92938.29687500  7754490.00000000 6124577.00000000 
0.00500    161505072.00000000 100748192.00000000 255117280.00000000 92732.70312500  7739377.50000000 6112705.50000000 
0.00600    161182000.00000000 100549736.00000000 254612048.00000000 92481.73437500  7720955.00000000 6098214.50000000 
0.00700    160801680.00000000 100314784.00000000 254013376.00000000 92186.22656250  7699227.00000000 6081101.50000000 
0.00800    160364800.00000000 100045304.00000000 253326720.00000000 91846.08593750  7674237.00000000 6061466.50000000 
0.00900    159867584.00000000 99741128.00000000 252550304.00000000 91462.85937500  7646034.50000000 6039297.00000000 
0.01000    159316672.00000000 99401816.00000000 251686704.00000000 91036.37500000  7614645.00000000 6014570.00000000 
0.01100    158712384.00000000 99029032.00000000 250735680.00000000 90567.10937500  7580101.00000000 5987421.50000000 
0.01200    158052048.00000000 98622872.00000000 249699472.00000000 90056.09375000  7542488.00000000 5957826.50000000 
0.01300    157338720.00000000 98182480.00000000 248577328.00000000 89504.67968750  7501809.00000000 5925831.00000000 
0.01400    156571952.00000000 97709576.00000000 247374016.00000000 88912.76562500  7458170.00000000 5891506.50000000 
0.01500    155751984.00000000 97204648.00000000 246086368.00000000 88281.53906250  7411572.50000000 5854892.50000000 
0.01600    154881120.00000000 96668208.00000000 244720880.00000000 87612.29687500  7362145.00000000 5816008.50000000 
0.01700    153962304.00000000 96100296.00000000 243276416.00000000 86905.88281250  7309901.50000000 5774893.00000000 
0.01800    152993296.00000000 95503624.00000000 241753728.00000000 86162.66406250  7254943.50000000 5731686.00000000 
0.01900    151976704.00000000 94876928.00000000 240157296.00000000 85384.46093750  7197343.50000000 5686348.50000000 
0.02000    150913168.00000000 94221512.00000000 238488144.00000000 84572.85937500  7137161.50000000 5639017.00000000 
0.02100    149804880.00000000 93537568.00000000 236748304.00000000 83727.70312500  7074510.00000000 5589723.00000000 
0.02200    148652576.00000000 92827016.00000000 234938256.00000000 82851.67187500  7009455.00000000 5538552.50000000 
0.02300    147458064.00000000 92089584.00000000 233061408.00000000 81944.96093750  6942081.50000000 5485522.00000000 
0.02400    146220576.00000000 91327848.00000000 231119136.00000000 81009.84375000  6872456.50000000 5430758.50000000 
0.02500    144947072.00000000 90540344.00000000 229115808.00000000 80046.92187500  6800673.50000000 5374266.00000000 
0.02600    143632496.00000000 89729744.00000000 227051616.00000000 79058.05468750  6726912.50000000 5316210.50000000 
0.02700    142282240.00000000 88896936.00000000 224929888.00000000 78043.78906250  6651136.50000000 5256614.00000000 
0.02800    140895552.00000000 88041584.00000000 222751728.00000000 77006.38281250  6573555.50000000 5195537.00000000 
0.02900    139476832.00000000 87165056.00000000 220521584.00000000 75946.78125000  6494152.50000000 5133079.00000000 
0.03000    138026336.00000000 86268840.00000000 218241472.00000000 74867.31250000  6413156.00000000 5069347.00000000 
0.03100    136543840.00000000 85353968.00000000 215912416.00000000 73768.22656250  6330592.00000000 5004351.00000000 
0.03200    135033408.00000000 84421448.00000000 213538000.00000000 72651.62500000  6246563.50000000 4938200.00000000 
0.03300    133496352.00000000 83471768.00000000 211121632.00000000 71519.52343750  6161211.50000000 4871039.50000000 
0.03400    131933760.00000000 82505600.00000000 208664480.00000000 70371.67187500  6074580.50000000 4802809.50000000 
0.03500    130346648.00000000 81525168.00000000 206170112.00000000 69211.85156250  5986820.50000000 4733747.50000000 
0.03600    128737616.00000000 80531168.00000000 203640016.00000000 68039.39062500  5898040.00000000 4663822.00000000 
0.03700    127108416.00000000 79524576.00000000 201078512.00000000 66857.68750000  5808279.50000000 4593152.50000000 
0.03800    125460416.00000000 78505584.00000000 198486880.00000000 65667.19531250  5717755.00000000 4521840.50000000 
0.03900    123795168.00000000 77475512.00000000 195867824.00000000 64468.91796875  5626436.00000000 4449963.50000000 
0.04000    122114848.00000000 76436240.00000000 193224928.00000000 63265.55859375  5534519.50000000 4377579.00000000 
0.04100    120420912.00000000 75387816.00000000 190559936.00000000 62057.47656250  5442056.00000000 4304719.00000000 
0.04200    118714552.00000000 74333528.00000000 187875440.00000000 60846.85937500  5349208.50000000 4231570.00000000 
0.04300    116998512.00000000 73271448.00000000 185175728.00000000 59634.38671875  5255983.00000000 4158163.00000000 
0.04400    115273480.00000000 72203968.00000000 182462336.00000000 58422.23437500  5162574.00000000 4084551.75000000 
0.04500    113540976.00000000 71131864.00000000 179735728.00000000 57210.90234375  5069011.50000000 4010846.75000000 
0.04600    111803584.00000000 70055296.00000000 176999552.00000000 56002.34375000  4975412.00000000 3937106.75000000 
0.04700    110061888.00000000 68976792.00000000 174258784.00000000 54797.43359375  4881868.00000000 3863383.50000000 
0.04800    108318432.00000000 67895856.00000000 171514464.00000000 53597.50000000  4788456.00000000 3789790.25000000 
0.04900    106574200.00000000 66815004.00000000 168767328.00000000 52403.79687500  4695332.00000000 3716363.50000000 
0.05000    104830384.00000000 65734212.00000000 166022640.00000000 51217.64843750  4602491.50000000 3643182.00000000 
0.05100    103088384.00000000 64654428.00000000 163278752.00000000 50039.91015625  4510051.50000000 3570310.50000000 
0.05200    101350288.00000000 63576360.00000000 160541872.00000000 48871.86328125  4418134.50000000 3497832.00000000 
0.05300    99617640.00000000 62501556.00000000 157812896.00000000 47714.46484375  4326761.50000000 3425796.00000000 
0.05400    97891560.00000000 61430096.00000000 155093280.00000000 46568.86718750  4236017.00000000 3354242.75000000 
0.05500    96172752.00000000 60363456.00000000 152383760.00000000 45435.67968750  4146020.75000000 3283256.50000000 
0.05600    94462728.00000000 59301952.00000000 149689200.00000000 44316.06640625  4056793.25000000 3212901.00000000 
0.05700    92763400.00000000 58246840.00000000 147010272.00000000 43210.72265625  3968422.25000000 3143177.25000000 
0.05800    91075416.00000000 57197996.00000000 144349952.00000000 42120.90625000  3880978.25000000 3074193.00000000 
0.05900    89400040.00000000 56157148.00000000 141708624.00000000 41046.92968750  3794515.75000000 3005961.00000000 
0.06000    87737840.00000000 55124508.00000000 139088064.00000000 39989.55859375  3709088.25000000 2938550.00000000 
0.06100    86091176.00000000 54100424.00000000 136490864.00000000 38949.39062500  3624748.00000000 2872004.75000000 
0.06200    84459848.00000000 53086180.00000000 133919080.00000000 37927.63671875  3541560.50000000 2806328.75000000 
0.06300    82845424.00000000 52082008.00000000 131372280.00000000 36923.88281250  3459571.50000000 2741620.25000000 
0.06400    81248576.00000000 51088572.00000000 128852960.00000000 35939.26171875  3378833.50000000 2677863.25000000 
0.06500    79670824.00000000 50106260.00000000 126363392.00000000 34974.21093750  3299338.25000000 2615121.75000000 
0.06600    78111760.00000000 49135988.00000000 123903608.00000000 34029.23437500  3221201.75000000 2553409.25000000 
0.06700    76572696.00000000 48177820.00000000 121474840.00000000 33104.23046875  3144407.25000000 2492756.75000000 
0.06800    75055200.00000000 47232124.00000000 119078856.00000000 32199.75000000  3069002.75000000 2433186.50000000 
0.06900    73559104.00000000 46300048.00000000 116716720.00000000 31316.33593750  2994971.75000000 2374742.00000000 
0.07000    72084760.00000000 45381540.00000000 114388960.00000000 30453.61718750  2922432.25000000 2317413.00000000 
0.07100    70634184.00000000 44476468.00000000 112097160.00000000 29612.36914062  2851340.25000000 2261225.25000000 
0.07200    69205696.00000000 43585708.00000000 109841392.00000000 28792.24023438  2781728.00000000 2206193.75000000 
0.07300    67801280.00000000 42709680.00000000 107623192.00000000 27993.54492188  2713597.75000000 2152361.50000000 
0.07400    66421444.00000000 41848416.00000000 105442896.00000000 27216.43164062  2646992.25000000 2099698.00000000 
0.07500    65065796.00000000 41002080.00000000 103300552.00000000 26460.53710938  2581878.75000000 2048230.87500000 
0.07600    63734832.00000000 40171020.00000000 101197240.00000000 25725.96289062  2518323.75000000 1997959.62500000 
0.07700    62429680.00000000 39355500.00000000 99133024.00000000 25012.90429688  2456277.25000000 1948897.87500000 
0.07800    61148848.00000000 38555332.00000000 97108904.00000000 24320.63476562  2395762.75000000 1901028.12500000 
0.07900    59894304.00000000 37771220.00000000 95125008.00000000 23649.48632812  2336757.25000000 1854358.75000000 
0.08000    58665172.00000000 37003132.00000000 93180624.00000000 22999.00195312  2279291.50000000 1808892.62500000 
0.08100    57461720.00000000 36250392.00000000 91277864.00000000 22369.03125000  2223327.50000000 1764609.25000000 
0.08200    56284080.00000000 35513636.00000000 89414960.00000000 21759.41992188  2168873.50000000 1721503.62500000 
0.08300    55132252.00000000 34792912.00000000 87592160.00000000 21169.48828125  2115902.75000000 1679585.37500000 
0.08400    54005916.00000000 34087972.00000000 85810352.00000000 20599.31250000  2064416.87500000 1638822.87500000 
0.08500    52905680.00000000 33399216.00000000 84068672.00000000 20048.26757812  2014396.50000000 1599215.87500000 
0.08600    51830836.00000000 32726088.00000000 82368176.00000000 19516.24609375  1965811.25000000 1560743.87500000 
0.08700    50781380.00000000 32068840.00000000 80706568.00000000 19002.58984375  1918644.12500000 1523387.87500000 
0.08800    49757196.00000000 31427118.00000000 79085712.00000000 18506.90234375  1872877.12500000 1487130.37500000 
0.08900    48757924.00000000 30801076.00000000 77503056.00000000 18028.84375000  1828473.62500000 1451962.50000000 
0.09000    47783860.00000000 30190360.00000000 75960736.00000000 17567.94531250  1785428.62500000 1417860.62500000 
0.09100    46833804.00000000 29594964.00000000 74456680.00000000 17123.66406250  1743700.37500000 1384800.37500000 
0.09200    45908164.00000000 29014572.00000000 72990224.00000000 16695.36132812  1703267.00000000 1352759.25000000 
0.09300    45006688.00000000 28449200.00000000 71562344.00000000 16282.88281250  1664097.12500000 1321725.37500000 
0.09400    44128080.00000000 27897988.00000000 70170832.00000000 15885.54882812  1626154.75000000 1291647.25000000 
0.09500    43273124.00000000 27361824.00000000 68815896.00000000 15502.80078125  1589418.87500000 1262520.12500000 
0.09600    42440412.00000000 26839416.00000000 67497328.00000000 15134.15527344  1553839.00000000 1234329.50000000 
0.09700    41630592.00000000 26331268.00000000 66213632.00000000 14779.02539062  1519410.75000000 1207018.87500000 
0.09800    40841908.00000000 25836532.00000000 64965232.00000000 14436.98730469  1486074.75000000 1180588.25000000 
0.09900    40075336.00000000 25355366.00000000 63749820.00000000 14107.43261719  1453801.75000000 1154999.25000000 
0.10000    39329332.00000000 24887046.00000000 62567836.00000000 13789.80468750  1422565.25000000 1130229.12500000 
0.10100    38603608.00000000 24431780.00000000 61418116.00000000 13483.60058594  1392316.25000000 1106233.87500000 
0.10200    37898148.00000000 23989062.00000000 60300092.00000000 13188.42285156  1363025.37500000 1083008.00000000 
0.10300    37211788.00000000 23558400.00000000 59212708.00000000 12903.54980469  1334661.37500000 1060511.75000000 
0.10400    36544652.00000000 23139500.00000000 58155332.00000000 12628.53027344  1307188.75000000 1038719.43750000 
0.10500    35895912.00000000 22732476.00000000 57127104.00000000 12362.95117188  1280571.62500000 1017614.31250000 
0.10600    35264012.00000000 22336602.00000000 56126992.00000000 12106.16894531  1254759.62500000 997138.18750000 
0.10700    34650400.00000000 21951572.00000000 55154572.00000000 11857.79492188  1229745.12500000 977295.87500000 
0.10800    34053216.00000000 21577066.00000000 54208564.00000000 11617.32617188  1205465.12500000 958039.18750000 
0.10900    33471900.00000000 21212800.00000000 53288200.00000000 11384.34960938  1181903.87500000 939354.37500000 
0.11000    32906800.00000000 20858446.00000000 52393064.00000000 11158.29882812  1159037.50000000 921210.93750000 
0.11100    32356436.00000000 20513678.00000000 51521408.00000000 10938.88378906  1136800.37500000 903577.68750000 
0.11200    31820654.00000000 20178100.00000000 50673364.00000000 10725.51269531  1115181.87500000 886429.56250000 
0.11300    31299004.00000000 19851374.00000000 49847388.00000000 10517.83789062  1094151.37500000 869748.93750000 
0.11400    30790856.00000000 19533316.00000000 49042984.00000000 10315.60351562  1073664.62500000 853508.75000000 
0.11500    30295612.00000000 19223458.00000000 48259508.00000000 10118.29199219  1053704.00000000 837672.56250000 
0.11600    29812878.00000000 18921204.00000000 47495820.00000000 9925.59277344   1034241.75000000 822243.93750000 
0.11700    29342098.00000000 18626962.00000000 46750844.00000000 9737.18554688   1015234.75000000 807177.06250000 
0.11800    28882488.00000000 18339734.00000000 46024300.00000000 9552.66210938   996667.06250000 792458.37500000 
0.11900    28433990.00000000 18059592.00000000 45314844.00000000 9371.82421875   978516.00000000 778065.00000000 
0.12000    27995934.00000000 17785958.00000000 44622872.00000000 9194.25292969   960743.25000000 763978.00000000 
0.12100    27567964.00000000 17518884.00000000 43945960.00000000 9019.91992188   943338.50000000 750188.06250000 
0.12200    27149272.00000000 17257760.00000000 43284780.00000000 8848.33105469   926266.12500000 736661.75000000 
0.12300    26739812.00000000 17002462.00000000 42637996.00000000 8679.33007812   909519.56250000 723390.43750000 
0.12400    26338860.00000000 16752618.00000000 42005076.00000000 8512.79589844   893068.62500000 710354.87500000 
0.12500    25946100.00000000 16508106.00000000 41384904.00000000 8348.42089844   876887.81250000 697533.31250000 
0.12600    25561336.00000000 16268635.00000000 40777524.00000000 8186.11621094   860977.56250000 684926.18750000 
0.12700    25183874.00000000 16033751.00000000 40181724.00000000 8025.59716797   845301.75000000 672513.06250000 
0.12800    24813556.00000000 15803465.00000000 39597484.00000000 7866.83300781   829850.62500000 660268.18750000 
0.12900    24449702.00000000 15577416.00000000 39023968.00000000 7709.68847656   814613.18750000 648200.43750000 
0.13000    24092156.00000000 15355430.00000000 38460188.00000000 7554.04589844   799569.50000000 636288.00000000 
0.13100    23740816.00000000 15137112.00000000 37906360.00000000 7399.73046875   784704.43750000 624519.12500000 
0.13200    23395074.00000000 14922497.00000000 37360908.00000000 7246.79833984   770023.50000000 612881.56250000 
0.13300    23054660.00000000 14711387.00000000 36824800.00000000 7095.04785156   755498.75000000 601380.12500000 
0.13400    22719206.00000000 14503434.00000000 36296524.00000000 6944.53369141   741128.68750000 589997.68750000 
0.13500    22388716.00000000 14298594.00000000 35775872.00000000 6795.12548828   726897.18750000 578724.75000000 
0.13600    22062798.00000000 14096623.00000000 35262416.00000000 6646.84375000   712806.12500000 567560.43750000 
0.13700    21741232.00000000 13897355.00000000 34756076.00000000 6499.73779297   698843.87500000 556500.87500000 
0.13800    21423682.00000000 13700675.00000000 34256220.00000000 6353.66992188   685006.06250000 545536.25000000 
0.13900    21110094.00000000 13506472.00000000 33762484.00000000 6208.75830078   671287.81250000 534670.18750000 
0.14000    20800190.00000000 13314667.00000000 33274654.00000000 6065.02880859   657686.81250000 523891.78125000 
0.14100    20493872.00000000 13125052.00000000 32792178.00000000 5922.39550781   644201.06250000 513199.21875000 
0.14200    20191022.00000000 12937403.00000000 32315076.00000000 5780.94531250   630821.25000000 502596.81250000 
0.14300    19891244.00000000 12751848.00000000 31843394.00000000 5640.75146484   617554.75000000 492074.90625000 
0.14400    19594342.00000000 12568103.00000000 31376096.00000000 5501.86083984   604392.06250000 481640.06250000 
0.14500    19300714.00000000 12386244.00000000 30913702.00000000 5364.27929688   591342.12500000 471289.18750000 
0.14600    19009870.00000000 12206120.00000000 30455860.00000000 5228.13769531   578398.00000000 461020.96875000 
0.14700    18721806.00000000 12027693.00000000 30002138.00000000 5093.43847656   565569.81250000 450840.53125000 
0.14800    18436394.00000000 11850762.00000000 29552594.00000000 4960.25390625   552844.93750000 440742.40625000 
0.14900    18153468.00000000 11675445.00000000 29106912.00000000 4828.65380859   540236.56250000 430731.53125000 
0.15000    17873104.00000000 11501612.00000000 28665238.00000000 4698.73681641   527743.43750000 420812.46875000 
0.15100    17595292.00000000 11329276.00000000 28227376.00000000 4570.56787109   515372.65625000 410981.93750000 
0.15200    17319836.00000000 11158302.00000000 27793134.00000000 4444.21093750   503118.21875000 401247.68750000 
0.15300    17046752.00000000 10988804.00000000 27362930.00000000 4319.77343750   490996.15625000 391609.96875000 
0.15400    16776100.00000000 10820591.00000000 26935778.00000000 4197.26660156   478994.21875000 382069.34375000 
0.15500    16507777.00000000 10653851.00000000 26512668.00000000 4076.79370117   467134.28125000 372632.09375000 
0.15600    16241633.00000000 10488275.00000000 26092866.00000000 3958.43530273   455402.81250000 363301.03125000 
0.15700    15978096.00000000 10324218.00000000 25676818.00000000 3842.26025391   443818.18750000 354079.28125000 
0.15800    15716732.00000000 10161403.00000000 25264018.00000000 3728.33203125   432375.46875000 344966.25000000 
0.15900    15457712.00000000 9999904.00000000 24854858.00000000 3616.70629883   421083.59375000 335971.81250000 
0.16000    15201047.00000000 9839774.00000000 24449218.00000000 3507.43994141   409943.40625000 327095.34375000 
0.16100    14946863.00000000 9680953.00000000 24047210.00000000 3400.64819336   398967.34375000 318343.18750000 
0.16200    14694925.00000000 9523463.00000000 23648760.00000000 3296.32958984   388150.87500000 309714.06250000 
0.16300    14445531.00000000 9367413.00000000 23253942.00000000 3194.52270508   377499.09375000 301213.96875000 
0.16400    14198543.00000000 9212692.00000000 22862982.00000000 3095.30981445   367023.12500000 292849.34375000 
0.16500    13953985.00000000 9059390.00000000 22475708.00000000 2998.68969727   356716.62500000 284618.78125000 
0.16600    13712082.00000000 8907554.00000000 22092220.00000000 2904.75537109   346591.50000000 276524.46875000 
0.16700    13472586.00000000 8757024.00000000 21712454.00000000 2813.48413086   336645.78125000 268574.34375000 
0.16800    13235692.00000000 8607978.00000000 21336538.00000000 2724.88232422   326885.62500000 260766.21875000 
0.16900    13001529.00000000 8460533.00000000 20964746.00000000 2639.06347656   317316.28125000 253107.82812500 
0.17000    12770059.00000000 8314535.00000000 20597080.00000000 2555.94189453   307937.28125000 245594.96875000 
