# SAXS profile: number of points = 501, q_min = 0, q_max = 0.5, delta_q = 0.001
#    q    intensity 
0.00000    162235264.00000000 101201848.00000000 256271072.00000000 111205.25781250 8495156.00000000 6709427.50000000 
0.00100    162200320.00000000 101179648.00000000 256214928.00000000 111172.67968750 8492962.00000000 6707687.00000000 
0.00200    162095696.00000000 101113912.00000000 256046992.00000000 111074.62500000 8486328.00000000 6702511.50000000 
0.00300    161919776.00000000 101003872.00000000 255765328.00000000 110911.94531250 8475299.00000000 6693838.00000000 
0.00400    161669056.00000000 100850208.00000000 255372800.00000000 110684.10937500 8459870.00000000 6681761.50000000 
0.00500    161347552.00000000 100652544.00000000 254868512.00000000 110392.35937500 8440076.00000000 6666215.00000000 
0.00600    160953584.00000000 100410312.00000000 254253104.00000000 110036.73437500 8416040.00000000 6647324.00000000 
0.00700    160491344.00000000 100127048.00000000 253530144.00000000 109618.10937500 8387687.00000000 6625084.00000000 
0.00800    159956208.00000000 99800960.00000000 252697312.00000000 109137.78906250 8355022.50000000 6599463.00000000 
0.00900    159354672.00000000 99432920.00000000 251756576.00000000 108595.57031250 8318236.50000000 6570610.00000000 
0.01000    158687216.00000000 99023984.00000000 250709744.00000000 107993.00000000 8277355.50000000 6538523.00000000 
0.01100    157953456.00000000 98573208.00000000 249560368.00000000 107331.25781250 8232413.50000000 6503215.00000000 
0.01200    157155328.00000000 98081904.00000000 248306256.00000000 106611.27343750 8183463.00000000 6464778.50000000 
0.01300    156292240.00000000 97552336.00000000 246952032.00000000 105835.29687500 8130664.50000000 6423304.50000000 
0.01400    155362528.00000000 96982320.00000000 245498384.00000000 105003.11718750 8074045.50000000 6378866.00000000 
0.01500    154373648.00000000 96374512.00000000 243949552.00000000 104118.18750000 8013723.50000000 6331511.00000000 
0.01600    153324512.00000000 95730648.00000000 242304768.00000000 103180.35156250 7949765.50000000 6281316.50000000 
0.01700    152217824.00000000 95050480.00000000 240568864.00000000 102192.14062500 7882338.00000000 6228353.00000000 
0.01800    151051440.00000000 94335152.00000000 238741936.00000000 101155.54687500 7811477.00000000 6172721.00000000 
0.01900    149830464.00000000 93585568.00000000 236828000.00000000 100072.27343750 7737336.50000000 6114511.50000000 
0.02000    148556192.00000000 92802904.00000000 234831952.00000000 98943.98437500  7660042.50000000 6053784.00000000 
0.02100    147230672.00000000 91988152.00000000 232752112.00000000 97772.55468750  7579744.00000000 5990733.50000000 
0.02200    145853072.00000000 91142328.00000000 230594336.00000000 96560.64843750  7496475.50000000 5925307.00000000 
0.02300    144429344.00000000 90266872.00000000 228360576.00000000 95309.91406250  7410466.00000000 5857779.00000000 
0.02400    142958576.00000000 89362992.00000000 226055120.00000000 94022.14062500  7321834.00000000 5788106.50000000 
0.02500    141444000.00000000 88431320.00000000 223678608.00000000 92700.69531250  7230668.00000000 5716492.50000000 
0.02600    139887104.00000000 87474168.00000000 221237168.00000000 91346.58593750  7137091.50000000 5643025.00000000 
0.02700    138290304.00000000 86492352.00000000 218733168.00000000 89963.05468750  7041356.00000000 5567748.50000000 
0.02800    136656272.00000000 85486088.00000000 216169552.00000000 88551.45312500  6943538.50000000 5490852.00000000 
0.02900    134986016.00000000 84458864.00000000 213548176.00000000 87114.92968750  6843748.00000000 5412452.50000000 
0.03000    133282600.00000000 83410920.00000000 210875568.00000000 85655.48437500  6742181.50000000 5332635.00000000 
0.03100    131548272.00000000 82343264.00000000 208154032.00000000 84174.80468750  6639004.00000000 5251550.50000000 
0.03200    129784312.00000000 81257192.00000000 205385504.00000000 82675.82812500  6534343.00000000 5169226.50000000 
0.03300    127994680.00000000 80154928.00000000 202577040.00000000 81161.88281250  6428334.50000000 5085878.00000000 
0.03400    126180192.00000000 79037488.00000000 199727472.00000000 79633.64843750  6321123.00000000 5001588.00000000 
0.03500    124344336.00000000 77905424.00000000 196844800.00000000 78094.02343750  6212913.50000000 4916492.00000000 
0.03600    122488616.00000000 76761760.00000000 193930752.00000000 76545.09375000  6103779.00000000 4830684.50000000 
0.03700    120615056.00000000 75606392.00000000 190987920.00000000 74989.84375000  5993933.50000000 4744241.00000000 
0.03800    118725824.00000000 74442144.00000000 188022736.00000000 73429.90625000  5883466.00000000 4657362.50000000 
0.03900    116824544.00000000 73268832.00000000 185035776.00000000 71867.43750000  5772547.50000000 4570106.50000000 
0.04000    114912224.00000000 72089552.00000000 182029648.00000000 70304.44531250  5661352.50000000 4482588.50000000 
0.04100    112991096.00000000 70903640.00000000 179011824.00000000 68743.89062500  5549939.50000000 4394914.00000000 
0.04200    111064456.00000000 69713840.00000000 175981520.00000000 67187.11718750  5438558.50000000 4307203.50000000 
0.04300    109132512.00000000 68520528.00000000 172945744.00000000 65636.07031250  5327199.00000000 4219570.50000000 
0.04400    107198984.00000000 67325368.00000000 169906352.00000000 64092.43750000  5216112.50000000 4132084.25000000 
0.04500    105265832.00000000 66130220.00000000 166866224.00000000 62558.85156250  5105408.50000000 4044899.00000000 
0.04600    103334416.00000000 64936080.00000000 163827856.00000000 61036.61328125  4995168.50000000 3958046.75000000 
0.04700    101406928.00000000 63743660.00000000 160797248.00000000 59527.75390625  4885509.50000000 3871708.50000000 
0.04800    99485392.00000000 62554972.00000000 157774096.00000000 58033.48828125  4776624.00000000 3785900.75000000 
0.04900    97572224.00000000 61370580.00000000 154762960.00000000 56556.02734375  4668550.50000000 3700716.50000000 
0.05000    95668800.00000000 60191760.00000000 151767072.00000000 55096.59765625  4561417.50000000 3616290.25000000 
0.05100    93776704.00000000 59019464.00000000 148788496.00000000 53656.09375000  4455335.50000000 3532671.25000000 
0.05200    91897432.00000000 57854696.00000000 145828912.00000000 52236.51562500  4350402.00000000 3449948.25000000 
0.05300    90033968.00000000 56699268.00000000 142893600.00000000 50838.87500000  4246700.50000000 3368165.50000000 
0.05400    88186088.00000000 55553088.00000000 139981920.00000000 49464.55859375  4144322.75000000 3287432.00000000 
0.05500    86356416.00000000 54417940.00000000 137099712.00000000 48114.58593750  4043389.75000000 3207794.00000000 
0.05600    84546784.00000000 53294248.00000000 134248032.00000000 46789.49218750  3943941.50000000 3129308.50000000 
0.05700    82757280.00000000 52182908.00000000 131429176.00000000 45490.84765625  3846042.25000000 3052058.00000000 
0.05800    80990648.00000000 51085092.00000000 128642712.00000000 44219.37500000  3749788.25000000 2976068.25000000 
0.05900    79246832.00000000 50000928.00000000 125893368.00000000 42975.22656250  3655242.75000000 2901414.25000000 
0.06000    77527528.00000000 48931876.00000000 123181824.00000000 41759.70703125  3562453.00000000 2828107.25000000 
0.06100    75835032.00000000 47878252.00000000 120510432.00000000 40573.50390625  3471441.00000000 2756252.75000000 
0.06200    74168256.00000000 46840864.00000000 117880456.00000000 39416.49218750  3382318.00000000 2685820.25000000 
0.06300    72530168.00000000 45820544.00000000 115293904.00000000 38289.27734375  3295098.75000000 2616882.50000000 
0.06400    70920528.00000000 44816920.00000000 112751704.00000000 37192.29687500  3209799.25000000 2549469.25000000 
0.06500    69339160.00000000 43831824.00000000 110255488.00000000 36125.82812500  3126480.25000000 2483571.50000000 
0.06600    67788680.00000000 42864428.00000000 107806448.00000000 35089.72265625  3045153.75000000 2419239.75000000 
0.06700    66268992.00000000 41916232.00000000 105405232.00000000 34084.53125000  2965841.25000000 2356490.00000000 
0.06800    64780896.00000000 40986688.00000000 103052888.00000000 33109.83984375  2888569.00000000 2295343.00000000 
0.06900    63324360.00000000 40076788.00000000 100750704.00000000 32165.87890625  2813345.25000000 2235797.00000000 
0.07000    61900000.00000000 39186704.00000000 98498560.00000000 31252.29101562  2740163.50000000 2177862.00000000 
0.07100    60508896.00000000 38316392.00000000 96297792.00000000 30368.87695312  2669047.50000000 2121543.50000000 
0.07200    59150000.00000000 37466260.00000000 94148056.00000000 29515.52929688  2599956.25000000 2066801.50000000 
0.07300    57824852.00000000 36636616.00000000 92050720.00000000 28691.94726562  2532940.75000000 2013700.75000000 
0.07400    56533144.00000000 35827300.00000000 90005584.00000000 27897.44921875  2467950.75000000 1962186.75000000 
0.07500    55274572.00000000 35038116.00000000 88013224.00000000 27131.86718750  2404997.50000000 1912247.00000000 
0.07600    54049244.00000000 34270260.00000000 86072456.00000000 26394.79101562  2344027.75000000 1863911.12500000 
0.07700    52857720.00000000 33522484.00000000 84184784.00000000 25685.26953125  2285065.25000000 1817123.12500000 
0.07800    51699280.00000000 32795232.00000000 82348992.00000000 25003.08398438  2228049.50000000 1771883.62500000 
0.07900    50573932.00000000 32088716.00000000 80565584.00000000 24347.50000000  2172956.50000000 1728151.50000000 
0.08000    49481692.00000000 31402396.00000000 78833608.00000000 23717.68750000  2119760.75000000 1685915.62500000 
0.08100    48422244.00000000 30736322.00000000 77153520.00000000 23113.03125000  2068442.87500000 1645149.75000000 
0.08200    47395220.00000000 30090300.00000000 75524192.00000000 22533.04101562  2018936.12500000 1605825.37500000 
0.08300    46400128.00000000 29463964.00000000 73944712.00000000 21976.65820312  1971227.87500000 1567901.25000000 
0.08400    45436264.00000000 28857188.00000000 72415464.00000000 21443.34375000  1925269.12500000 1531351.37500000 
0.08500    44503836.00000000 28269848.00000000 70935064.00000000 20931.76171875  1880987.50000000 1496155.25000000 
0.08600    43601768.00000000 27701646.00000000 69502952.00000000 20441.84375000  1838374.37500000 1462263.00000000 
0.08700    42730208.00000000 27151918.00000000 68118456.00000000 19972.30664062  1797364.50000000 1429635.00000000 
0.08800    41887720.00000000 26620728.00000000 66780348.00000000 19522.40820312  1757919.62500000 1398233.62500000 
0.08900    41074240.00000000 26107504.00000000 65487912.00000000 19091.23437500  1719960.12500000 1368030.50000000 
0.09000    40289368.00000000 25611824.00000000 64240168.00000000 18678.02343750  1683470.12500000 1338983.87500000 
0.09100    39531596.00000000 25133522.00000000 63036360.00000000 18281.75781250  1648391.50000000 1311035.87500000 
0.09200    38800852.00000000 24671908.00000000 61874184.00000000 17901.76171875  1614651.00000000 1284167.12500000 
0.09300    38096340.00000000 24226788.00000000 60754120.00000000 17537.19726562  1582214.12500000 1258328.12500000 
0.09400    37416516.00000000 23797570.00000000 59674180.00000000 17187.08789062  1551016.25000000 1233463.87500000 
0.09500    36762208.00000000 23383698.00000000 58632948.00000000 16850.59765625  1520996.25000000 1209545.87500000 
0.09600    36131236.00000000 22985002.00000000 57629676.00000000 16527.20898438  1492115.25000000 1186531.37500000 
0.09700    35523496.00000000 22600730.00000000 56663256.00000000 16215.77539062  1464316.00000000 1164369.62500000 
0.09800    34938344.00000000 22230542.00000000 55732144.00000000 15915.49511719  1437532.12500000 1143027.50000000 
0.09900    34374188.00000000 21874130.00000000 54835520.00000000 15626.02246094  1411747.00000000 1122466.87500000 
0.10000    33830708.00000000 21530520.00000000 53971028.00000000 15346.09667969  1386866.62500000 1102630.25000000 
0.10100    33306972.00000000 21199646.00000000 53137864.00000000 15075.28027344  1362848.12500000 1083485.62500000 
0.10200    32802308.00000000 20880724.00000000 52335740.00000000 14812.87207031  1339651.37500000 1064994.37500000 
0.10300    32315916.00000000 20573362.00000000 51562300.00000000 14558.18554688  1317210.12500000 1047119.31250000 
0.10400    31846846.00000000 20277116.00000000 50816392.00000000 14310.44042969  1295504.75000000 1029816.50000000 
0.10500    31394402.00000000 19991428.00000000 50097524.00000000 14069.15722656  1274467.37500000 1013056.68750000 
0.10600    30957372.00000000 19715650.00000000 49402900.00000000 13833.74218750  1254046.12500000 996793.00000000 
0.10700    30535438.00000000 19449542.00000000 48732572.00000000 13603.58984375  1234208.37500000 980992.81250000 
0.10800    30127440.00000000 19192448.00000000 48084976.00000000 13378.12402344  1214904.25000000 965620.81250000 
0.10900    29733136.00000000 18944018.00000000 47458856.00000000 13157.08007812  1196093.87500000 950651.18750000 
0.11000    29350980.00000000 18703564.00000000 46852684.00000000 12939.69531250  1177736.00000000 936044.06250000 
0.11100    28981104.00000000 18470984.00000000 46265732.00000000 12725.73730469  1159801.62500000 921774.56250000 
0.11200    28622326.00000000 18245396.00000000 45696316.00000000 12514.86328125  1142239.87500000 907811.31250000 
0.11300    28273686.00000000 18026628.00000000 45143948.00000000 12306.49218750  1125024.00000000 894128.62500000 
0.11400    27934626.00000000 17814008.00000000 44607096.00000000 12100.41992188  1108120.25000000 880694.25000000 
0.11500    27604762.00000000 17607470.00000000 44084732.00000000 11896.20410156  1091498.25000000 867490.87500000 
0.11600    27283284.00000000 17406286.00000000 43576096.00000000 11693.72851562  1075123.37500000 854487.25000000 
0.11700    26969464.00000000 17210136.00000000 43079956.00000000 11492.70312500  1058969.12500000 841675.00000000 
0.11800    26662768.00000000 17018756.00000000 42594948.00000000 11292.87304688  1043014.18750000 829010.56250000 
0.11900    26362614.00000000 16831478.00000000 42120788.00000000 11094.05664062  1027230.31250000 816499.81250000 
0.12000    26068276.00000000 16648218.00000000 41656156.00000000 10896.08496094  1011596.81250000 804108.43750000 
0.12100    25779486.00000000 16468601.00000000 41200844.00000000 10698.86132812  996097.56250000 791823.50000000 
0.12200    25495572.00000000 16292115.00000000 40753140.00000000 10502.32226562  980708.75000000 779634.06250000 
0.12300    25216090.00000000 16118710.00000000 40312460.00000000 10306.24316406  965420.37500000 767523.87500000 
0.12400    24940490.00000000 15947815.00000000 39878060.00000000 10110.65136719  950209.18750000 755483.12500000 
0.12500    24668308.00000000 15779194.00000000 39449704.00000000 9915.47460938   935067.12500000 743498.43750000 
0.12600    24399444.00000000 15612783.00000000 39026416.00000000 9720.80664062   919980.37500000 731558.31250000 
0.12700    24133080.00000000 15448117.00000000 38607772.00000000 9526.51269531   904943.06250000 719663.81250000 
0.12800    23869078.00000000 15285009.00000000 38192668.00000000 9332.64843750   889943.31250000 707802.12500000 
0.12900    23607176.00000000 15123334.00000000 37780936.00000000 9139.31054688   874969.93750000 695958.93750000 
0.13000    23346630.00000000 14962745.00000000 37371796.00000000 8946.49121094   860033.50000000 684147.81250000 
0.13100    23087870.00000000 14803015.00000000 36965004.00000000 8754.25488281   845116.12500000 672346.50000000 
0.13200    22830048.00000000 14644203.00000000 36560032.00000000 8562.68164062   830216.68750000 660563.12500000 
0.13300    22573092.00000000 14485871.00000000 36156752.00000000 8372.03222656   815332.62500000 648801.93750000 
0.13400    22316774.00000000 14327992.00000000 35754356.00000000 8182.18945312   800471.62500000 637046.68750000 
0.13500    22060994.00000000 14170469.00000000 35352960.00000000 7993.36328125   785634.18750000 625311.87500000 
0.13600    21805532.00000000 14013164.00000000 34951676.00000000 7805.70117188   770809.93750000 613593.43750000 
0.13700    21550152.00000000 13855910.00000000 34551064.00000000 7619.23925781   756013.81250000 601884.50000000 
0.13800    21294868.00000000 13698646.00000000 34149956.00000000 7434.15380859   741241.25000000 590201.62500000 
0.13900    21039358.00000000 13541270.00000000 33749076.00000000 7250.70703125   726509.50000000 578543.43750000 
0.14000    20783880.00000000 13383830.00000000 33347536.00000000 7068.86865234   711811.62500000 566912.06250000 
0.14100    20528006.00000000 13226126.00000000 32945534.00000000 6888.87988281   697158.06250000 555311.87500000 
0.14200    20271856.00000000 13068009.00000000 32543214.00000000 6710.81347656   682552.00000000 543748.68750000 
0.14300    20015496.00000000 12909829.00000000 32140270.00000000 6534.87207031   668009.37500000 532234.25000000 
0.14400    19758844.00000000 12751185.00000000 31736436.00000000 6361.18164062   653525.68750000 520760.18750000 
0.14500    19501560.00000000 12592321.00000000 31332074.00000000 6189.89111328   639125.62500000 509340.21875000 
0.14600    19244088.00000000 12433073.00000000 30927184.00000000 6021.12060547   624798.93750000 497989.09375000 
0.14700    18986404.00000000 12273572.00000000 30521548.00000000 5855.01171875   610567.06250000 486703.62500000 
0.14800    18728314.00000000 12113548.00000000 30115094.00000000 5691.69335938   596437.56250000 475489.56250000 
0.14900    18470124.00000000 11953384.00000000 29708080.00000000 5531.24804688   582410.75000000 464356.75000000 
0.15000    18211794.00000000 11792922.00000000 29300654.00000000 5373.84912109   568500.56250000 453312.65625000 
0.15100    17953260.00000000 11632211.00000000 28893046.00000000 5219.63867188   554720.25000000 442364.09375000 
0.15200    17694776.00000000 11471462.00000000 28485184.00000000 5068.59716797   541076.25000000 431519.25000000 
0.15300    17436408.00000000 11310439.00000000 28077356.00000000 4920.95312500   527573.75000000 420785.09375000 
0.15400    17178188.00000000 11149297.00000000 27669190.00000000 4776.62255859   514222.78125000 410161.21875000 
0.15500    16920384.00000000 10988243.00000000 27261560.00000000 4635.90234375   501034.50000000 399664.31250000 
0.15600    16662871.00000000 10827195.00000000 26854324.00000000 4498.67382812   488015.68750000 389295.62500000 
0.15700    16405930.00000000 10666391.00000000 26447514.00000000 4365.15136719   475179.15625000 379064.09375000 
0.15800    16149564.00000000 10505555.00000000 26041456.00000000 4235.25244141   462521.46875000 368972.25000000 
0.15900    15894106.00000000 10345148.00000000 25636438.00000000 4109.08642578   450059.06250000 359030.56250000 
0.16000    15639339.00000000 10184962.00000000 25232458.00000000 3986.65649414   437796.90625000 349241.84375000 
0.16100    15385862.00000000 10025325.00000000 24830088.00000000 3868.07958984   425744.12500000 339613.96875000 
0.16200    15133425.00000000 9866175.00000000 24428914.00000000 3753.20263672   413902.59375000 330146.15625000 
0.16300    14882314.00000000 9707568.00000000 24029892.00000000 3642.21411133   402278.00000000 320850.59375000 
0.16400    14632624.00000000 9549626.00000000 23632644.00000000 3534.99584961   390876.28125000 311726.12500000 
0.16500    14384438.00000000 9392449.00000000 23237614.00000000 3431.57592773   379706.21875000 302781.46875000 
0.16600    14138114.00000000 9236139.00000000 22845016.00000000 3331.92822266   368769.21875000 294016.62500000 
0.16700    13893481.00000000 9080700.00000000 22454950.00000000 3235.97607422   358070.71875000 285433.15625000 
0.16800    13650831.00000000 8926320.00000000 22067678.00000000 3143.70458984   347609.90625000 277036.65625000 
0.16900    13410304.00000000 8772985.00000000 21683606.00000000 3055.17407227   337393.53125000 268832.84375000 
0.17000    13171934.00000000 8620944.00000000 21302768.00000000 2970.20703125   327423.78125000 260818.03125000 
