# SAXS profile: number of points = 501, q_min = 0, q_max = 0.5, delta_q = 0.001
#    q    intensity 
0.00000    162237680.00000000 101201896.00000000 256272208.00000000 100396.77343750 8071738.50000000 6375037.50000000 
0.00100    162212688.00000000 101185712.00000000 256231504.00000000 100375.69531250 8070267.50000000 6373884.00000000 
0.00200    162137072.00000000 101138320.00000000 256110752.00000000 100314.14062500 8065836.00000000 6370425.00000000 
0.00300    162008736.00000000 101059336.00000000 255909568.00000000 100211.10156250 8058461.50000000 6364628.00000000 
0.00400    161828704.00000000 100948880.00000000 255627040.00000000 100067.32812500 8048127.50000000 6356522.00000000 
0.00500    161597184.00000000 100807048.00000000 255264672.00000000 99882.21093750  8034895.00000000 6346149.50000000 
0.00600    161314160.00000000 100633792.00000000 254822352.00000000 99657.14843750  8018720.00000000 6333450.50000000 
0.00700    160981280.00000000 100429888.00000000 254300048.00000000 99391.48437500  7999663.50000000 6318508.00000000 
0.00800    160598128.00000000 100193880.00000000 253700288.00000000 99085.17968750  7977740.00000000 6301331.50000000 
0.00900    160164336.00000000 99928776.00000000 253021712.00000000 98740.21875000  7952964.00000000 6281879.50000000 
0.01000    159680160.00000000 99632856.00000000 252264576.00000000 98355.67187500  7925342.50000000 6260201.50000000 
0.01100    159147888.00000000 99306632.00000000 251433120.00000000 97932.61718750  7894960.50000000 6236378.50000000 
0.01200    158568208.00000000 98950864.00000000 250523584.00000000 97470.71875000  7861797.00000000 6210366.00000000 
0.01300    157940000.00000000 98564992.00000000 249538480.00000000 96970.93750000  7825907.50000000 6182216.50000000 
0.01400    157265424.00000000 98150952.00000000 248480496.00000000 96434.37500000  7787334.00000000 6151928.00000000 
0.01500    156543424.00000000 97707472.00000000 247348128.00000000 95861.16406250  7746132.50000000 6119606.00000000 
0.01600    155773488.00000000 97235920.00000000 246143936.00000000 95252.40625000  7702292.00000000 6085221.00000000 
0.01700    154959872.00000000 96737344.00000000 244869280.00000000 94608.37500000  7655918.00000000 6048837.50000000 
0.01800    154101584.00000000 96210120.00000000 243525360.00000000 93930.32031250  7607045.50000000 6010494.00000000 
0.01900    153199728.00000000 95656840.00000000 242111344.00000000 93218.02343750  7555722.50000000 5970215.00000000 
0.02000    152255376.00000000 95077144.00000000 240631648.00000000 92473.36718750  7501987.00000000 5928038.00000000 
0.02100    151269104.00000000 94471584.00000000 239086576.00000000 91697.08593750  7445918.50000000 5884081.50000000 
0.02200    150241296.00000000 93840944.00000000 237475728.00000000 90889.38281250  7387541.50000000 5838253.50000000 
0.02300    149173440.00000000 93185784.00000000 235803344.00000000 90052.09375000  7326974.00000000 5790734.50000000 
0.02400    148067504.00000000 92506568.00000000 234069696.00000000 89184.59375000  7264230.50000000 5741493.00000000 
0.02500    146923696.00000000 91803760.00000000 232275984.00000000 88289.84375000  7199399.50000000 5690611.50000000 
0.02600    145742672.00000000 91078448.00000000 230424384.00000000 87367.71875000  7132532.00000000 5638125.00000000 
0.02700    144524848.00000000 90330848.00000000 228517120.00000000 86419.42968750  7063730.50000000 5584104.00000000 
0.02800    143273952.00000000 89562504.00000000 226555024.00000000 85446.65625000  6993056.50000000 5528607.00000000 
0.02900    141988880.00000000 88773352.00000000 224541392.00000000 84449.25781250  6920517.00000000 5471660.50000000 
0.03000    140671808.00000000 87963520.00000000 222475744.00000000 83429.07812500  6846253.00000000 5413366.00000000 
0.03100    139322416.00000000 87135016.00000000 220360512.00000000 82387.17968750  6770325.00000000 5353743.00000000 
0.03200    137944656.00000000 86287752.00000000 218199936.00000000 81324.66406250  6692794.00000000 5292859.50000000 
0.03300    136537920.00000000 85423096.00000000 215994560.00000000 80242.81250000  6613770.00000000 5230774.50000000 
0.03400    135103552.00000000 84541232.00000000 213743856.00000000 79142.89062500  6533268.00000000 5167585.50000000 
0.03500    133643376.00000000 83643400.00000000 211454176.00000000 78025.28906250  6451428.00000000 5103281.00000000 
0.03600    132158224.00000000 82729560.00000000 209124256.00000000 76891.74218750  6368312.50000000 5038006.00000000 
0.03700    130649632.00000000 81801704.00000000 206757376.00000000 75743.32031250  6283972.00000000 4971741.00000000 
0.03800    129118112.00000000 80859720.00000000 204356640.00000000 74581.19531250  6198533.00000000 4904644.00000000 
0.03900    127566920.00000000 79904864.00000000 201921824.00000000 73406.80468750  6112025.00000000 4836668.00000000 
0.04000    125995352.00000000 78937696.00000000 199454720.00000000 72221.37500000  6024608.00000000 4767946.00000000 
0.04100    124405824.00000000 77959032.00000000 196960320.00000000 71025.53906250  5936240.50000000 4698523.50000000 
0.04200    122799072.00000000 76969688.00000000 194439392.00000000 69820.64843750  5847103.50000000 4628462.00000000 
0.04300    121176584.00000000 75970384.00000000 191892672.00000000 68607.60156250  5757250.50000000 4557819.50000000 
0.04400    119540608.00000000 74962304.00000000 189324080.00000000 67388.64843750  5666736.00000000 4486675.50000000 
0.04500    117891192.00000000 73945984.00000000 186733600.00000000 66164.32812500  5575674.50000000 4415082.50000000 
0.04600    116230104.00000000 72922168.00000000 184125952.00000000 64935.47265625  5484139.50000000 4343109.50000000 
0.04700    114558736.00000000 71892224.00000000 181500800.00000000 63703.37500000  5392193.50000000 4270797.50000000 
0.04800    112878440.00000000 70856400.00000000 178863008.00000000 62469.28515625  5299922.50000000 4198215.00000000 
0.04900    111190584.00000000 69815576.00000000 176211488.00000000 61234.11718750  5207416.00000000 4125446.25000000 
0.05000    109495928.00000000 68770208.00000000 173549008.00000000 59999.23437500  5114708.50000000 4052507.50000000 
0.05100    107796848.00000000 67721440.00000000 170878864.00000000 58765.63671875  5021947.00000000 3979508.50000000 
0.05200    106093536.00000000 66669752.00000000 168201856.00000000 57533.94921875  4929086.50000000 3906463.50000000 
0.05300    104387816.00000000 65616664.00000000 165520592.00000000 56305.74218750  4836340.50000000 3833455.50000000 
0.05400    102680032.00000000 64561976.00000000 162837328.00000000 55082.12500000  4743683.50000000 3760537.25000000 
0.05500    100972592.00000000 63507360.00000000 160153248.00000000 53863.22656250  4651245.00000000 3687751.00000000 
0.05600    99266400.00000000 62452904.00000000 157470192.00000000 52650.75781250  4559036.00000000 3615166.25000000 
0.05700    97561944.00000000 61399460.00000000 154790864.00000000 51445.54296875  4467167.00000000 3542828.25000000 
0.05800    95860944.00000000 60347968.00000000 152114800.00000000 50248.38281250  4375717.00000000 3470777.50000000 
0.05900    94165224.00000000 59298728.00000000 149447584.00000000 49059.84765625  4284694.00000000 3399086.75000000 
0.06000    92474256.00000000 58252588.00000000 146787776.00000000 47881.38281250  4194214.75000000 3327785.50000000 
0.06100    90790048.00000000 57210404.00000000 144137872.00000000 46713.44140625  4104276.00000000 3256934.00000000 
0.06200    89113936.00000000 56172700.00000000 141498608.00000000 45557.01953125  4015006.75000000 3186578.25000000 
0.06300    87446800.00000000 55140180.00000000 138875040.00000000 44412.12500000  3926438.25000000 3116773.50000000 
0.06400    85789000.00000000 54112980.00000000 136264816.00000000 43280.50781250  3838608.50000000 3047511.75000000 
0.06500    84142144.00000000 53092444.00000000 133671936.00000000 42162.00781250  3751586.00000000 2978878.50000000 
0.06600    82507200.00000000 52078684.00000000 131097024.00000000 41058.18359375  3665407.75000000 2910917.75000000 
0.06700    80884168.00000000 51072140.00000000 128540536.00000000 39968.85937500  3580124.00000000 2843643.25000000 
0.06800    79274720.00000000 50073772.00000000 126005520.00000000 38894.85156250  3495792.75000000 2777119.75000000 
0.06900    77680216.00000000 49083728.00000000 123492504.00000000 37836.70312500  3412467.25000000 2711351.00000000 
0.07000    76100312.00000000 48102936.00000000 121002496.00000000 36795.17578125  3330159.00000000 2646384.00000000 
0.07100    74536176.00000000 47131324.00000000 118537216.00000000 35770.32421875  3248938.50000000 2582257.75000000 
0.07200    72989216.00000000 46169720.00000000 116097648.00000000 34762.91796875  3168814.50000000 2518989.00000000 
0.07300    71458864.00000000 45218804.00000000 113685000.00000000 33773.23828125  3089843.50000000 2456611.25000000 
0.07400    69947048.00000000 44278584.00000000 111300080.00000000 32801.51562500  3012042.75000000 2395158.75000000 
0.07500    68453872.00000000 43349568.00000000 108943880.00000000 31848.47070312  2935463.25000000 2334647.00000000 
0.07600    66979564.00000000 42431828.00000000 106617872.00000000 30914.29296875  2860115.75000000 2275095.00000000 
0.07700    65525444.00000000 41526424.00000000 104322880.00000000 29998.88085938  2786037.75000000 2216531.00000000 
0.07800    64091424.00000000 40633296.00000000 102059064.00000000 29102.92382812  2713233.00000000 2158964.75000000 
0.07900    62678612.00000000 39752660.00000000 99828040.00000000 28226.31640625  2641745.75000000 2102425.00000000 
0.08000    61287196.00000000 38884828.00000000 97629712.00000000 27369.44140625  2571590.75000000 2046911.87500000 
0.08100    59917200.00000000 38030424.00000000 95466024.00000000 26532.40429688  2502780.00000000 1992468.62500000 
0.08200    58569636.00000000 37189208.00000000 93336520.00000000 25715.14843750  2435324.00000000 1939081.12500000 
0.08300    57244312.00000000 36361756.00000000 91242040.00000000 24917.75585938  2369247.75000000 1886757.00000000 
0.08400    55941844.00000000 35548216.00000000 89182904.00000000 24140.52343750  2304548.25000000 1835531.75000000 
0.08500    54662588.00000000 34748444.00000000 87160192.00000000 23383.30664062  2241259.00000000 1785378.62500000 
0.08600    53407056.00000000 33963192.00000000 85174224.00000000 22646.14257812  2179352.75000000 1736333.62500000 
0.08700    52174708.00000000 33192198.00000000 83224344.00000000 21928.88476562  2118840.50000000 1688390.50000000 
0.08800    50966464.00000000 32435604.00000000 81312200.00000000 21231.36914062  2059760.87500000 1641542.37500000 
0.08900    49781896.00000000 31693824.00000000 79437272.00000000 20553.83007812  2002070.00000000 1595794.87500000 
0.09000    48621536.00000000 30966608.00000000 77600552.00000000 19895.98437500  1945813.12500000 1551153.75000000 
0.09100    47485424.00000000 30254380.00000000 75800592.00000000 19257.70117188  1890936.50000000 1507612.87500000 
0.09200    46373584.00000000 29556676.00000000 74038456.00000000 18638.55664062  1837471.62500000 1465166.87500000 
0.09300    45285700.00000000 28874036.00000000 72315128.00000000 18038.75195312  1785387.87500000 1423819.87500000 
0.09400    44222296.00000000 28206198.00000000 70628872.00000000 17457.78320312  1734681.62500000 1383543.00000000 
0.09500    43182988.00000000 27553072.00000000 68981728.00000000 16895.58984375  1685372.12500000 1344363.37500000 
0.09600    42168040.00000000 26914770.00000000 67371944.00000000 16351.86132812  1637415.87500000 1306250.00000000 
0.09700    41177196.00000000 26291390.00000000 65799956.00000000 15826.22265625  1590808.75000000 1269198.00000000 
0.09800    40210348.00000000 25682852.00000000 64265804.00000000 15318.44726562  1545542.12500000 1233187.12500000 
0.09900    39267372.00000000 25088860.00000000 62768708.00000000 14828.51269531  1501595.25000000 1198230.37500000 
0.10000    38348096.00000000 24509592.00000000 61309004.00000000 14355.56933594  1458956.87500000 1164289.87500000 
0.10100    37452396.00000000 23944764.00000000 59886136.00000000 13899.53222656  1417600.75000000 1131369.25000000 
0.10200    36580004.00000000 23394304.00000000 58500380.00000000 13460.09472656  1377515.87500000 1099440.75000000 
0.10300    35730604.00000000 22858130.00000000 57150368.00000000 13036.89062500  1338671.50000000 1068502.12500000 
0.10400    34904168.00000000 22336090.00000000 55836584.00000000 12629.35937500  1301063.62500000 1038523.25000000 
0.10500    34100644.00000000 21827874.00000000 54558484.00000000 12237.54687500  1264663.87500000 1009503.06250000 
0.10600    33318984.00000000 21333628.00000000 53315184.00000000 11860.45800781  1229423.25000000 981398.18750000 
0.10700    32559590.00000000 20852996.00000000 52106828.00000000 11498.25195312  1195365.25000000 954224.00000000 
0.10800    31821914.00000000 20385754.00000000 50932452.00000000 11150.22460938  1162432.75000000 927933.87500000 
0.10900    31105396.00000000 19931748.00000000 49791864.00000000 10815.96972656  1130603.00000000 902520.25000000 
0.11000    30409994.00000000 19490986.00000000 48684256.00000000 10495.21289062  1099858.12500000 877966.68750000 
0.11100    29735274.00000000 19062764.00000000 47609240.00000000 10187.45898438  1070171.50000000 854243.31250000 
0.11200    29080826.00000000 18647214.00000000 46566092.00000000 9892.17285156   1041517.50000000 831336.68750000 
0.11300    28446114.00000000 18244130.00000000 45554432.00000000 9609.11230469   1013861.43750000 809218.81250000 
0.11400    27831142.00000000 17853210.00000000 44573448.00000000 9337.79003906   987187.62500000 787878.50000000 
0.11500    27235082.00000000 17474178.00000000 43622792.00000000 9077.71289062   961457.06250000 767285.81250000 
0.11600    26657802.00000000 17106852.00000000 42701556.00000000 8828.60546875   936644.68750000 747424.12500000 
0.11700    26098702.00000000 16750796.00000000 41809444.00000000 8589.92578125   912727.43750000 728270.56250000 
0.11800    25557298.00000000 16405960.00000000 40945064.00000000 8361.21875000   889665.87500000 709791.87500000 
0.11900    25033418.00000000 16071984.00000000 40108544.00000000 8142.19384766   867444.75000000 691984.37500000 
0.12000    24526374.00000000 15748572.00000000 39298304.00000000 7932.41992188   846028.93750000 674812.56250000 
0.12100    24035866.00000000 15435513.00000000 38514556.00000000 7731.49804688   825391.12500000 658264.62500000 
0.12200    23561340.00000000 15132484.00000000 37756064.00000000 7538.97216797   805507.18750000 642309.68750000 
0.12300    23102428.00000000 14839365.00000000 37022492.00000000 7354.52246094   786343.87500000 626935.50000000 
0.12400    22658576.00000000 14555701.00000000 36312632.00000000 7177.68652344   767878.18750000 612111.25000000 
0.12500    22229262.00000000 14281237.00000000 35625924.00000000 7008.13867188   750078.06250000 597816.81250000 
0.12600    21814396.00000000 14015787.00000000 34962164.00000000 6845.61230469   732924.81250000 584038.00000000 
0.12700    21413104.00000000 13759013.00000000 34320024.00000000 6689.56640625   716380.50000000 570745.12500000 
0.12800    21025112.00000000 13510609.00000000 33699116.00000000 6539.67089844   700426.43750000 557928.25000000 
0.12900    20650094.00000000 13270386.00000000 33098750.00000000 6395.77343750   685033.68750000 545557.25000000 
0.13000    20287370.00000000 13038012.00000000 32517918.00000000 6257.39697266   670183.18750000 533618.75000000 
0.13100    19936454.00000000 12813240.00000000 31956144.00000000 6124.20166016   655847.43750000 522082.37500000 
0.13200    19597076.00000000 12595733.00000000 31412714.00000000 5995.97314453   641992.00000000 510943.40625000 
0.13300    19268892.00000000 12385296.00000000 30887064.00000000 5872.34570312   628604.62500000 500180.84375000 
0.13400    18951290.00000000 12181691.00000000 30378346.00000000 5753.07177734   615661.37500000 489765.46875000 
0.13500    18643948.00000000 11984495.00000000 29885800.00000000 5637.87646484   603134.37500000 479690.25000000 
0.13600    18346272.00000000 11793607.00000000 29409126.00000000 5526.46777344   591005.68750000 469935.00000000 
0.13700    18058074.00000000 11608799.00000000 28947350.00000000 5418.59521484   579251.43750000 460478.00000000 
0.13800    17778748.00000000 11429676.00000000 28499800.00000000 5314.03955078   567853.68750000 451308.68750000 
0.13900    17508120.00000000 11256128.00000000 28066274.00000000 5212.58447266   556794.43750000 442410.00000000 
0.14000    17245684.00000000 11087734.00000000 27645856.00000000 5114.01660156   546049.68750000 433769.81250000 
0.14100    16990952.00000000 10924446.00000000 27237912.00000000 5018.06250000   535603.00000000 425367.81250000 
0.14200    16743763.00000000 10765960.00000000 26842088.00000000 4924.58300781   525435.68750000 417193.12500000 
0.14300    16503571.00000000 10612029.00000000 26457442.00000000 4833.43212891   515535.59375000 409231.56250000 
0.14400    16270050.00000000 10462438.00000000 26083514.00000000 4744.33105469   505877.81250000 401471.81250000 
0.14500    16043028.00000000 10317064.00000000 25720302.00000000 4657.21728516   496456.28125000 393897.46875000 
0.14600    15822129.00000000 10175675.00000000 25366494.00000000 4571.93554688   487251.68750000 386500.09375000 
0.14700    15606871.00000000 10037921.00000000 25022294.00000000 4488.28173828   478250.31250000 379270.28125000 
0.14800    15397013.00000000 9903773.00000000 24686604.00000000 4406.18164062   469436.34375000 372193.93750000 
0.14900    15192236.00000000 9772830.00000000 24359090.00000000 4325.46337891   460800.15625000 365257.53125000 
0.15000    14992414.00000000 9645135.00000000 24039478.00000000 4246.12939453   452327.71875000 358458.53125000 
0.15100    14797059.00000000 9520433.00000000 23727300.00000000 4167.96435547   444010.31250000 351787.65625000 
0.15200    14606138.00000000 9398585.00000000 23422210.00000000 4090.93945312   435837.96875000 345234.87500000 
0.15300    14419100.00000000 9279352.00000000 23123506.00000000 4014.96997070   427798.68750000 338785.87500000 
0.15400    14235941.00000000 9162616.00000000 22831002.00000000 3939.95043945   419879.21875000 332441.03125000 
0.15500    14056254.00000000 9048220.00000000 22544182.00000000 3865.86669922   412081.71875000 326192.03125000 
0.15600    13879911.00000000 8936076.00000000 22262796.00000000 3792.62524414   404387.31250000 320029.65625000 
0.15700    13706714.00000000 8825925.00000000 21986578.00000000 3720.22973633   396799.03125000 313953.15625000 
0.15800    13536382.00000000 8717650.00000000 21714922.00000000 3648.56225586   389297.75000000 307948.65625000 
0.15900    13368811.00000000 8611257.00000000 21447774.00000000 3577.66870117   381890.68750000 302022.90625000 
0.16000    13203689.00000000 8506471.00000000 21184724.00000000 3507.46923828   374560.93750000 296160.46875000 
0.16100    13041011.00000000 8403383.00000000 20925586.00000000 3438.00097656   367316.96875000 290367.40625000 
0.16200    12880435.00000000 8301689.00000000 20669910.00000000 3369.19726562   360141.50000000 284630.59375000 
0.16300    12721930.00000000 8201296.50000000 20417654.00000000 3301.04931641   353036.59375000 278952.71875000 
0.16400    12565420.00000000 8102223.50000000 20168542.00000000 3233.60083008   345997.93750000 273326.03125000 
0.16500    12410543.00000000 8004324.50000000 19922300.00000000 3166.81542969   339022.59375000 267755.15625000 
0.16600    12257400.00000000 7907541.50000000 19678712.00000000 3100.72436523   332111.59375000 262234.78125000 
0.16700    12105700.00000000 7811691.00000000 19437510.00000000 3035.28466797   325252.62500000 256759.57812500 
0.16800    11955464.00000000 7716869.50000000 19198786.00000000 2970.57128906   318455.90625000 251330.57812500 
0.16900    11806589.00000000 7622919.00000000 18962096.00000000 2906.59008789   311715.96875000 245950.28125000 
0.17000    11658865.00000000 7529721.50000000 18727432.00000000 2843.29565430   305029.09375000 240613.04687500 
