# SAXS profile: number of points = 501, q_min = 0, q_max = 0.5, delta_q = 0.001
#    q    intensity 
0.00000    162232912.00000000 101202496.00000000 256270432.00000000 114721.91406250 8628401.00000000 6814674.00000000 
0.00100    162186496.00000000 101170632.00000000 256189824.00000000 114677.76562500 8625375.00000000 6812311.50000000 
0.00200    162039104.00000000 101077144.00000000 255951392.00000000 114544.62500000 8616241.00000000 6805152.50000000 
0.00300    161788448.00000000 100920776.00000000 255554560.00000000 114323.27343750 8601109.00000000 6793248.00000000 
0.00400    161432256.00000000 100701824.00000000 254997040.00000000 114013.99218750 8579884.00000000 6776578.00000000 
0.00500    160975392.00000000 100420920.00000000 254283904.00000000 113618.75000000 8552803.00000000 6755251.50000000 
0.00600    160422240.00000000 100080248.00000000 253415584.00000000 113137.06250000 8519744.00000000 6729331.50000000 
0.00700    159766672.00000000 99679352.00000000 252395584.00000000 112571.65625000 8480971.00000000 6698832.50000000 
0.00800    159019280.00000000 99219432.00000000 251221472.00000000 111923.00781250 8436378.00000000 6663820.00000000 
0.00900    158179136.00000000 98700664.00000000 249899984.00000000 111193.22656250 8386244.00000000 6624417.50000000 
0.01000    157246608.00000000 98125400.00000000 248433328.00000000 110383.83593750 8330563.50000000 6580696.00000000 
0.01100    156221920.00000000 97494512.00000000 246822912.00000000 109497.10937500 8269628.50000000 6532794.00000000 
0.01200    155106560.00000000 96807408.00000000 245075888.00000000 108536.09375000 8203497.00000000 6480752.50000000 
0.01300    153907536.00000000 96067744.00000000 243191504.00000000 107502.93750000 8132286.00000000 6424799.50000000 
0.01400    152625440.00000000 95277576.00000000 241178752.00000000 106400.47656250 8056181.50000000 6365009.50000000 
0.01500    151262400.00000000 94437856.00000000 239038496.00000000 105231.39843750 7975439.50000000 6301562.00000000 
0.01600    149821104.00000000 93549288.00000000 236775600.00000000 103997.64843750 7890224.50000000 6234568.50000000 
0.01700    148307136.00000000 92614552.00000000 234396384.00000000 102705.16406250 7800730.00000000 6164152.00000000 
0.01800    146720336.00000000 91636304.00000000 231905008.00000000 101354.36718750 7707093.50000000 6090541.00000000 
0.01900    145066640.00000000 90616008.00000000 229306544.00000000 99949.83593750  7609617.50000000 6013934.00000000 
0.02000    143347600.00000000 89556400.00000000 226605104.00000000 98495.33593750  7508513.50000000 5934417.50000000 
0.02100    141568960.00000000 88458016.00000000 223810784.00000000 96993.75000000  7404031.50000000 5852216.50000000 
0.02200    139731408.00000000 87324632.00000000 220924960.00000000 95448.50000000  7296342.50000000 5767559.50000000 
0.02300    137842352.00000000 86157248.00000000 217954400.00000000 93864.50000000  7185731.00000000 5680555.00000000 
0.02400    135902576.00000000 84959608.00000000 214907280.00000000 92244.98437500  7072447.00000000 5591407.50000000 
0.02500    133917792.00000000 83733064.00000000 211785264.00000000 90592.31250000  6956717.50000000 5500374.00000000 
0.02600    131890688.00000000 82480712.00000000 208599408.00000000 88911.60156250  6838747.50000000 5407555.50000000 
0.02700    129825432.00000000 81204744.00000000 205353184.00000000 87207.77343750  6718892.50000000 5313220.50000000 
0.02800    127726496.00000000 79907096.00000000 202051744.00000000 85481.61718750  6597306.00000000 5217508.00000000 
0.02900    125598168.00000000 78591504.00000000 198704080.00000000 83739.73437500  6474200.50000000 5120678.50000000 
0.03000    123443048.00000000 77258160.00000000 195315328.00000000 81984.00000000  6350024.00000000 5022861.50000000 
0.03100    121266688.00000000 75910816.00000000 191888560.00000000 80218.18750000  6224807.00000000 4924281.00000000 
0.03200    119071720.00000000 74553056.00000000 188437040.00000000 78447.04687500  6098942.00000000 4825117.00000000 
0.03300    116862600.00000000 73186608.00000000 184961760.00000000 76672.93750000  5972453.00000000 4725585.00000000 
0.03400    114643952.00000000 71812992.00000000 181468640.00000000 74899.51562500  5845828.50000000 4625852.00000000 
0.03500    112417312.00000000 70434120.00000000 177965536.00000000 73130.88281250  5719156.00000000 4526066.50000000 
0.03600    110189136.00000000 69052992.00000000 174455520.00000000 71368.52343750  5592643.50000000 4426383.00000000 
0.03700    107961088.00000000 67671432.00000000 170948016.00000000 69617.46093750  5466568.00000000 4327001.00000000 
0.03800    105737760.00000000 66292824.00000000 167446080.00000000 67878.17968750  5341078.50000000 4228127.50000000 
0.03900    103522976.00000000 64918272.00000000 163956048.00000000 66155.97656250  5216484.50000000 4129860.00000000 
0.04000    101318184.00000000 63550164.00000000 160482304.00000000 64452.40625000  5092838.00000000 4032371.75000000 
0.04100    99128224.00000000 62190800.00000000 157032352.00000000 62770.17578125  4970423.00000000 3935828.25000000 
0.04200    96955576.00000000 60841940.00000000 153607472.00000000 61111.44140625  4849311.50000000 3840323.75000000 
0.04300    94803464.00000000 59505244.00000000 150213664.00000000 59478.61718750  4729767.50000000 3746027.75000000 
0.04400    92674640.00000000 58182300.00000000 146857536.00000000 57873.19140625  4611947.50000000 3653052.75000000 
0.04500    90572648.00000000 56874764.00000000 143542448.00000000 56298.14843750  4495892.00000000 3561474.50000000 
0.04600    88498272.00000000 55585220.00000000 140270112.00000000 54754.09375000  4381784.00000000 3471423.75000000 
0.04700    86454584.00000000 54313964.00000000 137046848.00000000 53243.25000000  4269825.50000000 3383038.50000000 
0.04800    84444296.00000000 53062940.00000000 133876056.00000000 51766.70312500  4160041.25000000 3296362.75000000 
0.04900    82469504.00000000 51833736.00000000 130760408.00000000 50325.69140625  4052577.75000000 3211497.25000000 
0.05000    80532688.00000000 50626568.00000000 127701152.00000000 48921.19140625  3947485.00000000 3128490.75000000 
0.05100    78633896.00000000 49443664.00000000 124704344.00000000 47554.30859375  3844911.50000000 3047434.75000000 
0.05200    76776072.00000000 48286104.00000000 121771192.00000000 46225.38281250  3744841.00000000 2968358.25000000 
0.05300    74960936.00000000 47153704.00000000 118903400.00000000 44935.50390625  3647362.75000000 2891360.50000000 
0.05400    73188680.00000000 46048300.00000000 116104448.00000000 43684.78125000  3552584.75000000 2816430.00000000 
0.05500    71462400.00000000 44970412.00000000 113375112.00000000 42473.25000000  3460511.00000000 2743618.00000000 
0.05600    69779296.00000000 43920440.00000000 110717184.00000000 41301.47265625  3371125.00000000 2672944.25000000 
0.05700    68144488.00000000 42899308.00000000 108133144.00000000 40169.04296875  3284525.00000000 2604439.50000000 
0.05800    66556240.00000000 41907152.00000000 105622072.00000000 39075.79687500  3200662.75000000 2538119.00000000 
0.05900    65015376.00000000 40944168.00000000 103185672.00000000 38021.09375000  3119569.50000000 2473930.50000000 
0.06000    63522684.00000000 40010844.00000000 100825904.00000000 37005.39453125  3041235.25000000 2411963.25000000 
0.06100    62078328.00000000 39107964.00000000 98541112.00000000 36027.79687500  2965621.75000000 2352110.50000000 
0.06200    60682184.00000000 38234876.00000000 96332880.00000000 35087.78515625  2892735.25000000 2294427.50000000 
0.06300    59334604.00000000 37391264.00000000 94200040.00000000 34184.12890625  2822519.50000000 2238838.75000000 
0.06400    58034328.00000000 36577432.00000000 92143896.00000000 33316.01953125  2754969.75000000 2185347.25000000 
0.06500    56782412.00000000 35793748.00000000 90161912.00000000 32483.09765625  2690004.75000000 2133884.00000000 
0.06600    55577584.00000000 35039224.00000000 88254688.00000000 31684.00390625  2627581.75000000 2084460.87500000 
0.06700    54419636.00000000 34314156.00000000 86422344.00000000 30918.11523438  2567665.00000000 2037023.75000000 
0.06800    53307588.00000000 33617756.00000000 84662904.00000000 30183.70703125  2510157.00000000 1991474.62500000 
0.06900    52241028.00000000 32949968.00000000 82973760.00000000 29480.25390625  2455028.00000000 1947799.62500000 
0.07000    51218556.00000000 32309776.00000000 81355808.00000000 28805.84375000  2402188.50000000 1905948.62500000 
0.07100    50240052.00000000 31696764.00000000 79807152.00000000 28159.64257812  2351573.50000000 1865825.75000000 
0.07200    49303900.00000000 31110740.00000000 78325624.00000000 27540.82226562  2303102.25000000 1827431.50000000 
0.07300    48409136.00000000 30550480.00000000 76908936.00000000 26947.21875000  2256660.25000000 1790651.87500000 
0.07400    47554644.00000000 30015804.00000000 75557552.00000000 26378.41210938  2212183.75000000 1755421.50000000 
0.07500    46739288.00000000 29505578.00000000 74267256.00000000 25832.34765625  2169636.75000000 1721700.50000000 
0.07600    45961600.00000000 29018982.00000000 73036704.00000000 25308.41406250  2128852.75000000 1689419.87500000 
0.07700    45220312.00000000 28555562.00000000 71864104.00000000 24804.91015625  2089821.50000000 1658503.62500000 
0.07800    44513744.00000000 28114032.00000000 70747416.00000000 24320.73632812  2052370.25000000 1628868.00000000 
0.07900    43840492.00000000 27694090.00000000 69683544.00000000 23854.93945312  2016466.87500000 1600447.62500000 
0.08000    43199988.00000000 27294528.00000000 68671744.00000000 23405.77148438  1982031.87500000 1573189.75000000 
0.08100    42589900.00000000 26914322.00000000 67708232.00000000 22972.32812500  1948956.37500000 1547015.00000000 
0.08200    42008888.00000000 26552646.00000000 66790988.00000000 22553.54296875  1917147.62500000 1521854.87500000 
0.08300    41455588.00000000 26208832.00000000 65919452.00000000 22148.03906250  1886522.62500000 1497635.00000000 
0.08400    40928412.00000000 25881560.00000000 65088140.00000000 21755.11328125  1857026.50000000 1474317.50000000 
0.08500    40425948.00000000 25570004.00000000 64297456.00000000 21373.59765625  1828545.37500000 1451806.25000000 
0.08600    39946836.00000000 25273494.00000000 63543200.00000000 21002.27734375  1801017.75000000 1430059.87500000 
0.08700    39489804.00000000 24990984.00000000 62824332.00000000 20640.69726562  1774360.25000000 1409007.00000000 
0.08800    39052560.00000000 24721318.00000000 62137260.00000000 20287.77148438  1748513.75000000 1388576.75000000 
0.08900    38634348.00000000 24463920.00000000 61481252.00000000 19942.46484375  1723377.25000000 1368749.37500000 
0.09000    38233864.00000000 24217786.00000000 60852556.00000000 19604.68164062  1698904.12500000 1349442.87500000 
0.09100    37849392.00000000 23981836.00000000 60250204.00000000 19272.87109375  1675032.75000000 1330612.00000000 
0.09200    37479248.00000000 23755678.00000000 59671912.00000000 18947.04296875  1651694.75000000 1312206.00000000 
0.09300    37122860.00000000 23538092.00000000 59114684.00000000 18626.21289062  1628834.37500000 1294191.12500000 
0.09400    36778804.00000000 23328384.00000000 58577104.00000000 18310.19140625  1606390.12500000 1276503.75000000 
0.09500    36445480.00000000 23125958.00000000 58057164.00000000 17998.18750000  1584326.00000000 1259115.50000000 
0.09600    36121872.00000000 22929826.00000000 57553388.00000000 17689.87890625  1562581.75000000 1241995.62500000 
0.09700    35807212.00000000 22739516.00000000 57063268.00000000 17385.23242188  1541122.75000000 1225089.87500000 
0.09800    35499764.00000000 22553900.00000000 56585532.00000000 17083.16992188  1519920.62500000 1208387.87500000 
0.09900    35199332.00000000 22372782.00000000 56118452.00000000 16784.12304688  1498918.62500000 1191861.50000000 
0.10000    34904136.00000000 22195214.00000000 55660552.00000000 16487.55078125  1478083.75000000 1175441.75000000 
0.10100    34613648.00000000 22020818.00000000 55209740.00000000 16193.11816406  1457406.37500000 1159154.37500000 
0.10200    34327212.00000000 21848836.00000000 54765436.00000000 15900.93261719  1436831.12500000 1142963.37500000 
0.10300    34043512.00000000 21678608.00000000 54325816.00000000 15610.80664062  1416371.87500000 1126837.37500000 
0.10400    33761968.00000000 21510116.00000000 53889952.00000000 15322.60546875  1395977.50000000 1110774.62500000 
0.10500    33482050.00000000 21342322.00000000 53456048.00000000 15036.43750000  1375645.87500000 1094756.25000000 
0.10600    33202988.00000000 21175224.00000000 53023984.00000000 14751.89062500  1355364.75000000 1078771.37500000 
0.10700    32924374.00000000 21008350.00000000 52592532.00000000 14469.33691406  1335122.00000000 1062803.75000000 
0.10800    32645158.00000000 20841018.00000000 52160328.00000000 14188.79101562  1314908.50000000 1046868.75000000 
0.10900    32365376.00000000 20673308.00000000 51726708.00000000 13910.31347656  1294712.12500000 1030938.50000000 
0.11000    32084460.00000000 20504888.00000000 51291368.00000000 13633.61328125  1274538.75000000 1015018.68750000 
0.11100    31801986.00000000 20335254.00000000 50853104.00000000 13359.15527344  1254376.62500000 999105.00000000 
0.11200    31517248.00000000 20164398.00000000 50411396.00000000 13086.94921875  1234238.87500000 983206.87500000 
0.11300    31230816.00000000 19991782.00000000 49966488.00000000 12816.95898438  1214127.37500000 967316.75000000 
0.11400    30941594.00000000 19817532.00000000 49517092.00000000 12549.57812500  1194035.37500000 951439.62500000 
0.11500    30649746.00000000 19641430.00000000 49063052.00000000 12284.69433594  1173974.25000000 935571.18750000 
0.11600    30354806.00000000 19463308.00000000 48604672.00000000 12022.58984375  1153961.12500000 919743.81250000 
0.11700    30057170.00000000 19283020.00000000 48141372.00000000 11763.23144531  1133986.25000000 903932.18750000 
0.11800    29756572.00000000 19100524.00000000 47672148.00000000 11506.80078125  1114063.12500000 888156.87500000 
0.11900    29452734.00000000 18915906.00000000 47198428.00000000 11253.44824219  1094204.00000000 872425.81250000 
0.12000    29145650.00000000 18728918.00000000 46718664.00000000 11003.34570312  1074418.87500000 856748.87500000 
0.12100    28835846.00000000 18539664.00000000 46234512.00000000 10756.62304688  1054719.12500000 841135.75000000 
0.12200    28522568.00000000 18348206.00000000 45744132.00000000 10513.16894531  1035119.00000000 825586.06250000 
0.12300    28206504.00000000 18154490.00000000 45249036.00000000 10273.36230469  1015622.56250000 810114.12500000 
0.12400    27887458.00000000 17958456.00000000 44748864.00000000 10037.08398438  996243.68750000 794729.43750000 
0.12500    27565616.00000000 17760518.00000000 44243464.00000000 9804.49609375   977007.43750000 779446.18750000 
0.12600    27241076.00000000 17560392.00000000 43733684.00000000 9575.85253906   957905.81250000 764274.50000000 
0.12700    26914218.00000000 17358340.00000000 43219400.00000000 9351.02832031   938961.68750000 749208.81250000 
0.12800    26584840.00000000 17154502.00000000 42701248.00000000 9129.98046875   920184.37500000 734271.68750000 
0.12900    26253540.00000000 16948942.00000000 42179336.00000000 8912.97753906   901582.43750000 719471.62500000 
0.13000    25920080.00000000 16741826.00000000 41653464.00000000 8699.94628906   883171.18750000 704813.50000000 
0.13100    25585018.00000000 16533177.00000000 41124416.00000000 8490.95996094   864951.31250000 690307.50000000 
0.13200    25248480.00000000 16323292.00000000 40592608.00000000 8285.96777344   846940.93750000 675960.62500000 
0.13300    24910634.00000000 16112066.00000000 40058340.00000000 8085.02392578   829147.12500000 661780.62500000 
0.13400    24571750.00000000 15899928.00000000 39521840.00000000 7888.14111328   811572.68750000 647769.81250000 
0.13500    24232144.00000000 15686905.00000000 38983736.00000000 7695.27148438   794229.68750000 633942.12500000 
0.13600    23891784.00000000 15473162.00000000 38444072.00000000 7506.43750000   777130.31250000 620303.68750000 
0.13700    23551156.00000000 15258774.00000000 37904032.00000000 7321.58642578   760277.12500000 606853.12500000 
0.13800    23210584.00000000 15044013.00000000 37362628.00000000 7140.61523438   743659.18750000 593595.18750000 
0.13900    22870072.00000000 14829053.00000000 36821444.00000000 6963.62109375   727310.56250000 580540.37500000 
0.14000    22530062.00000000 14614029.00000000 36280364.00000000 6790.44482422   711217.50000000 567690.43750000 
0.14100    22190766.00000000 14399053.00000000 35740140.00000000 6621.19189453   695388.18750000 555046.81250000 
0.14200    21852084.00000000 14184297.00000000 35200920.00000000 6455.61035156   679822.18750000 542610.93750000 
0.14300    21514800.00000000 13970012.00000000 34662676.00000000 6293.74560547   664525.50000000 530391.37500000 
0.14400    21178596.00000000 13756170.00000000 34126620.00000000 6135.50537109   649498.75000000 518376.78125000 
0.14500    20844206.00000000 13543107.00000000 33592900.00000000 5980.85742188   634736.18750000 506579.50000000 
0.14600    20511500.00000000 13330888.00000000 33061364.00000000 5829.77099609   620253.43750000 495004.12500000 
0.14700    20180834.00000000 13119618.00000000 32532758.00000000 5682.15771484   606040.31250000 483637.40625000 
0.14800    19852270.00000000 12909499.00000000 32007046.00000000 5537.87500000   592096.87500000 472483.93750000 
0.14900    19525980.00000000 12700589.00000000 31485158.00000000 5396.94384766   578415.18750000 461544.40625000 
0.15000    19202438.00000000 12493081.00000000 30966764.00000000 5259.26757812   565011.75000000 450817.15625000 
0.15100    18881350.00000000 12287051.00000000 30452400.00000000 5124.81103516   551864.43750000 440303.65625000 
0.15200    18563248.00000000 12082800.00000000 29942584.00000000 4993.60009766   538986.68750000 430001.28125000 
0.15300    18248258.00000000 11880181.00000000 29437144.00000000 4865.40478516   526364.68750000 419901.53125000 
0.15400    17936086.00000000 11679335.00000000 28936618.00000000 4740.24169922   513999.62500000 410007.78125000 
0.15500    17627788.00000000 11480479.00000000 28441052.00000000 4618.10205078   501895.06250000 400320.46875000 
0.15600    17322546.00000000 11283671.00000000 27950892.00000000 4498.88085938   490035.56250000 390826.40625000 
0.15700    17021026.00000000 11089048.00000000 27466202.00000000 4382.60058594   478425.81250000 381538.12500000 
0.15800    16722888.00000000 10896399.00000000 26986924.00000000 4269.11865234   467060.28125000 372435.81250000 
0.15900    16428491.00000000 10706091.00000000 26513882.00000000 4158.51220703   455934.21875000 363529.28125000 
0.16000    16138093.00000000 10518102.00000000 26046364.00000000 4050.69067383   445040.71875000 354805.59375000 
0.16100    15851542.00000000 10332545.00000000 25585178.00000000 3945.65209961   434384.46875000 346274.09375000 
0.16200    15568893.00000000 10149371.00000000 25130128.00000000 3843.32250977   423955.09375000 337919.84375000 
0.16300    15290341.00000000 9968733.00000000 24681698.00000000 3743.69628906   413745.84375000 329742.34375000 
0.16400    15015912.00000000 9790552.00000000 24239296.00000000 3646.72387695   403756.46875000 321741.31250000 
0.16500    14745575.00000000 9615129.00000000 23803626.00000000 3552.44555664   393981.71875000 313912.46875000 
0.16600    14479325.00000000 9442164.00000000 23374520.00000000 3460.74047852   384417.53125000 306247.84375000 
0.16700    14217295.00000000 9271818.00000000 22952144.00000000 3371.66040039   375060.25000000 298747.25000000 
0.16800    13959438.00000000 9103982.00000000 22536226.00000000 3285.14672852   365906.09375000 291407.15625000 
0.16900    13705907.00000000 8939097.00000000 22127174.00000000 3201.24267578   356951.15625000 284227.43750000 
0.17000    13456436.00000000 8776703.00000000 21724550.00000000 3119.85253906   348193.18750000 277201.62500000 
