# SAXS profile: number of points = 501, q_min = 0, q_max = 0.5, delta_q = 0.001
#    q    intensity 
0.00000    162236688.00000000 101202480.00000000 256270960.00000000 110236.84375000 8458049.00000000 6680170.00000000 
0.00100    162199936.00000000 101178744.00000000 256212352.00000000 110204.75781250 8455852.00000000 6678410.00000000 
0.00200    162090592.00000000 101109712.00000000 256035392.00000000 110109.02343750 8449211.00000000 6673207.50000000 
0.00300    161903712.00000000 100993448.00000000 255740000.00000000 109948.99218750 8438168.00000000 6664506.00000000 
0.00400    161640944.00000000 100830960.00000000 255327872.00000000 109726.14843750 8422711.00000000 6652379.50000000 
0.00500    161303008.00000000 100623064.00000000 254797808.00000000 109439.50000000 8402892.00000000 6636841.50000000 
0.00600    160890256.00000000 100369616.00000000 254151232.00000000 109090.76562500 8378734.00000000 6617836.50000000 
0.00700    160404496.00000000 100071488.00000000 253390416.00000000 108680.35937500 8350241.50000000 6595507.00000000 
0.00800    159844080.00000000 99727840.00000000 252517424.00000000 108208.93750000 8317588.50000000 6569816.00000000 
0.00900    159214688.00000000 99340864.00000000 251529248.00000000 107677.38281250 8280704.00000000 6540853.00000000 
0.01000    158515232.00000000 98910832.00000000 250431632.00000000 107086.10937500 8239685.50000000 6508650.00000000 
0.01100    157749104.00000000 98437976.00000000 249224224.00000000 106437.44531250 8194656.50000000 6473235.50000000 
0.01200    156911872.00000000 97922608.00000000 247911664.00000000 105731.66406250 8145617.50000000 6434781.00000000 
0.01300    156006400.00000000 97365224.00000000 246491216.00000000 104970.26562500 8092711.00000000 6393200.00000000 
0.01400    155035392.00000000 96767576.00000000 244970032.00000000 104156.08593750 8036017.00000000 6348654.50000000 
0.01500    154002096.00000000 96130272.00000000 243347344.00000000 103288.16406250 7975617.00000000 6301226.50000000 
0.01600    152905616.00000000 95455472.00000000 241625600.00000000 102370.11718750 7911645.00000000 6250920.00000000 
0.01700    151749296.00000000 94743176.00000000 239810000.00000000 101402.53906250 7844111.00000000 6197875.00000000 
0.01800    150531632.00000000 93994160.00000000 237901936.00000000 100387.44531250 7773278.50000000 6142208.50000000 
0.01900    149259952.00000000 93210312.00000000 235902832.00000000 99327.16406250  7699122.00000000 6083946.50000000 
0.02000    147931712.00000000 92391296.00000000 233817072.00000000 98222.92187500  7621887.00000000 6023232.50000000 
0.02100    146550432.00000000 91540144.00000000 231649408.00000000 97077.82031250  7541596.50000000 5960190.50000000 
0.02200    145116736.00000000 90657656.00000000 229399024.00000000 95892.35156250  7458472.00000000 5894836.50000000 
0.02300    143636080.00000000 89744664.00000000 227072560.00000000 94669.09375000  7372574.00000000 5827309.00000000 
0.02400    142107552.00000000 88802448.00000000 224673760.00000000 93411.12500000  7284110.00000000 5757765.00000000 
0.02500    140535584.00000000 87832888.00000000 222203440.00000000 92119.74218750  7193157.00000000 5686277.50000000 
0.02600    138920560.00000000 86837696.00000000 219666832.00000000 90797.00000000  7099896.50000000 5612935.00000000 
0.02700    137266192.00000000 85816912.00000000 217068000.00000000 89445.87500000  7004459.00000000 5537920.00000000 
0.02800    135574608.00000000 84773184.00000000 214410512.00000000 88068.77343750  6906980.50000000 5461284.50000000 
0.02900    133847232.00000000 83706936.00000000 211697776.00000000 86666.65625000  6807628.50000000 5383156.50000000 
0.03000    132087768.00000000 82621600.00000000 208933328.00000000 85242.87500000  6706599.00000000 5303670.00000000 
0.03100    130297552.00000000 81516824.00000000 206119376.00000000 83799.47656250  6603954.00000000 5222968.00000000 
0.03200    128480112.00000000 80394680.00000000 203263552.00000000 82338.41406250  6499907.00000000 5141103.00000000 
0.03300    126636976.00000000 79256320.00000000 200366320.00000000 80862.57812500  6394600.00000000 5058243.00000000 
0.03400    124770984.00000000 78103776.00000000 197434000.00000000 79373.82812500  6288147.00000000 4974467.00000000 
0.03500    122884800.00000000 76938552.00000000 194469568.00000000 77874.60937500  6180737.00000000 4889957.50000000 
0.03600    120981160.00000000 75762496.00000000 191475488.00000000 76366.62500000  6072468.00000000 4804783.50000000 
0.03700    119062008.00000000 74576360.00000000 188457504.00000000 74853.13281250  5963591.00000000 4719072.00000000 
0.03800    117129224.00000000 73382064.00000000 185418688.00000000 73335.09375000  5854183.50000000 4632936.00000000 
0.03900    115186696.00000000 72181192.00000000 182364080.00000000 71815.37500000  5744363.50000000 4546458.00000000 
0.04000    113235560.00000000 70974456.00000000 179294336.00000000 70295.46093750  5634311.50000000 4459858.00000000 
0.04100    111278712.00000000 69764112.00000000 176215968.00000000 68778.03125000  5524176.00000000 4373072.00000000 
0.04200    109317904.00000000 68550840.00000000 173131776.00000000 67264.05468750  5414069.00000000 4286371.50000000 
0.04300    107356752.00000000 67336016.00000000 170044272.00000000 65756.68750000  5304136.00000000 4199752.00000000 
0.04400    105395520.00000000 66121960.00000000 166958912.00000000 64257.03515625  5194502.50000000 4113396.00000000 
0.04500    103437976.00000000 64909656.00000000 163878208.00000000 62766.80859375  5085284.50000000 4027351.50000000 
0.04600    101485800.00000000 63700640.00000000 160804352.00000000 61288.08984375  4976605.00000000 3941710.00000000 
0.04700    99540880.00000000 62495260.00000000 157743024.00000000 59821.96875000  4868634.50000000 3856590.75000000 
0.04800    97605344.00000000 61295364.00000000 154693872.00000000 58370.23437500  4761417.00000000 3772058.75000000 
0.04900    95681480.00000000 60102616.00000000 151663744.00000000 56935.03125000  4655072.00000000 3688246.00000000 
0.05000    93770136.00000000 58917164.00000000 148653792.00000000 55516.27734375  4549748.00000000 3605179.00000000 
0.05100    91874768.00000000 57740732.00000000 145666016.00000000 54116.80859375  4445521.00000000 3522955.50000000 
0.05200    89994816.00000000 56574224.00000000 142704656.00000000 52737.01562500  4342459.00000000 3441668.50000000 
0.05300    88134936.00000000 55419028.00000000 139772160.00000000 51378.31250000  4240653.00000000 3361387.50000000 
0.05400    86293960.00000000 54275696.00000000 136869968.00000000 50041.63281250  4140293.75000000 3282155.25000000 
0.05500    84473648.00000000 53145572.00000000 134002992.00000000 48728.05859375  4041320.50000000 3204045.50000000 
0.05600    82677600.00000000 52029252.00000000 131170896.00000000 47438.54296875  3943867.25000000 3127128.50000000 
0.05700    80905208.00000000 50927524.00000000 128375744.00000000 46173.46093750  3847997.50000000 3051445.50000000 
0.05800    79158592.00000000 49841104.00000000 125620728.00000000 44934.16796875  3753758.50000000 2977044.00000000 
0.05900    77438528.00000000 48770904.00000000 122907792.00000000 43720.56640625  3661252.75000000 2903967.50000000 
0.06000    75746536.00000000 47717964.00000000 120237736.00000000 42533.81250000  3570455.75000000 2832286.75000000 
0.06100    74083080.00000000 46682400.00000000 117612504.00000000 41374.24609375  3481522.00000000 2762002.25000000 
0.06200    72449112.00000000 45664976.00000000 115033880.00000000 40242.43359375  3394409.25000000 2693156.25000000 
0.06300    70846120.00000000 44666568.00000000 112503160.00000000 39138.26953125  3309172.75000000 2625796.00000000 
0.06400    69274208.00000000 43686996.00000000 110021400.00000000 38062.16406250  3225833.75000000 2559936.00000000 
0.06500    67735160.00000000 42727312.00000000 107590808.00000000 37014.42968750  3144454.00000000 2495596.25000000 
0.06600    66228100.00000000 41787492.00000000 105210448.00000000 35994.75000000  3065019.25000000 2432781.75000000 
0.06700    64754036.00000000 40868024.00000000 102881944.00000000 35003.82031250  2987573.75000000 2371521.25000000 
0.06800    63313900.00000000 39969000.00000000 100606008.00000000 34040.69921875  2912094.25000000 2311817.50000000 
0.06900    61907312.00000000 39091304.00000000 98383504.00000000 33106.00000000  2838621.25000000 2253685.50000000 
0.07000    60535136.00000000 38234224.00000000 96214880.00000000 32199.45507812  2767115.25000000 2197116.50000000 
0.07100    59197564.00000000 37398336.00000000 94099424.00000000 31320.81640625  2697621.25000000 2142107.25000000 
0.07200    57894332.00000000 36583960.00000000 92039368.00000000 30469.17968750  2630092.75000000 2088646.87500000 
0.07300    56625444.00000000 35790704.00000000 90032536.00000000 29644.70312500  2564548.50000000 2036765.75000000 
0.07400    55391244.00000000 35018704.00000000 88080904.00000000 28847.08984375  2500933.75000000 1986393.00000000 
0.07500    54191488.00000000 34268092.00000000 86182416.00000000 28075.77539062  2439302.50000000 1937552.12500000 
0.07600    53026084.00000000 33538810.00000000 84338448.00000000 27330.34375000  2379520.25000000 1890229.00000000 
0.07700    51894612.00000000 32830388.00000000 82548176.00000000 26610.04687500  2321677.00000000 1844405.00000000 
0.07800    50796772.00000000 32142872.00000000 80810568.00000000 25914.35156250  2265656.25000000 1800016.62500000 
0.07900    49732552.00000000 31476514.00000000 79125440.00000000 25242.81835938  2211477.00000000 1757089.12500000 
0.08000    48701312.00000000 30830372.00000000 77493288.00000000 24594.80664062  2159097.25000000 1715572.87500000 
0.08100    47702868.00000000 30204450.00000000 75911904.00000000 23969.62890625  2108468.25000000 1675441.12500000 
0.08200    46736252.00000000 29598596.00000000 74380888.00000000 23366.56640625  2059547.12500000 1636655.00000000 
0.08300    45801324.00000000 29012276.00000000 72900616.00000000 22784.99023438  2012293.12500000 1599203.25000000 
0.08400    44897204.00000000 28445380.00000000 71468104.00000000 22224.00976562  1966674.12500000 1563023.12500000 
0.08500    44023348.00000000 27897204.00000000 70084208.00000000 21683.28710938  1922644.00000000 1528104.50000000 
0.08600    43179388.00000000 27367754.00000000 68747408.00000000 21161.78906250  1880148.50000000 1494406.87500000 
0.08700    42364280.00000000 26856378.00000000 67456208.00000000 20659.00390625  1839143.87500000 1461883.37500000 
0.08800    41577248.00000000 26362482.00000000 66208972.00000000 20173.78515625  1799575.62500000 1430499.25000000 
0.08900    40817976.00000000 25885992.00000000 65005800.00000000 19705.88671875  1761400.87500000 1400220.25000000 
0.09000    40085336.00000000 25426188.00000000 63844780.00000000 19254.37890625  1724544.75000000 1370995.25000000 
0.09100    39378724.00000000 24982630.00000000 62724660.00000000 18818.36328125  1689003.50000000 1342790.50000000 
0.09200    38696812.00000000 24554758.00000000 61644608.00000000 18397.25976562  1654672.12500000 1315579.25000000 
0.09300    38039052.00000000 24142032.00000000 60602464.00000000 17990.58398438  1621565.62500000 1289304.75000000 
0.09400    37405004.00000000 23744036.00000000 59597368.00000000 17597.22656250  1589555.50000000 1263915.62500000 
0.09500    36793500.00000000 23360310.00000000 58628736.00000000 17216.79687500  1558637.62500000 1239400.37500000 
0.09600    36203368.00000000 22990294.00000000 57693744.00000000 16848.35351562  1528768.37500000 1215691.00000000 
0.09700    35633696.00000000 22633224.00000000 56791964.00000000 16491.53125000  1499865.37500000 1192777.12500000 
0.09800    35084212.00000000 22288996.00000000 55922112.00000000 16145.69042969  1471888.75000000 1170589.12500000 
0.09900    34554016.00000000 21956508.00000000 55082420.00000000 15810.04589844  1444809.62500000 1149112.12500000 
0.10000    34041864.00000000 21635594.00000000 54271444.00000000 15483.97167969  1418563.50000000 1128293.37500000 
0.10100    33546878.00000000 21325814.00000000 53488064.00000000 15167.08789062  1393090.12500000 1108105.12500000 
0.10200    33068444.00000000 21026296.00000000 52730820.00000000 14858.84375000  1368378.00000000 1088503.75000000 
0.10300    32605590.00000000 20736640.00000000 51998200.00000000 14558.60644531  1344340.62500000 1069460.75000000 
0.10400    32157426.00000000 20456520.00000000 51289572.00000000 14265.77148438  1320964.00000000 1050930.00000000 
0.10500    31723342.00000000 20185082.00000000 50603312.00000000 13980.35156250  1298225.12500000 1032901.12500000 
0.10600    31302108.00000000 19921930.00000000 49937568.00000000 13701.17382812  1276037.25000000 1015313.75000000 
0.10700    30893422.00000000 19666958.00000000 49291800.00000000 13428.50878906  1254383.12500000 998161.12500000 
0.10800    30496378.00000000 19419372.00000000 48664456.00000000 13161.53222656  1233236.12500000 981398.75000000 
0.10900    30110182.00000000 19178558.00000000 48053960.00000000 12900.12597656  1212538.00000000 965013.75000000 
0.11000    29734012.00000000 18944222.00000000 47460560.00000000 12643.81640625  1192278.25000000 948949.93750000 
0.11100    29367088.00000000 18715878.00000000 46881624.00000000 12392.38281250  1172415.37500000 933218.06250000 
0.11200    29009232.00000000 18493310.00000000 46316664.00000000 12145.46777344  1152919.00000000 917765.25000000 
0.11300    28659160.00000000 18275750.00000000 45764808.00000000 11902.72167969  1133762.50000000 902589.25000000 
0.11400    28316774.00000000 18062926.00000000 45224736.00000000 11664.22753906  1114918.87500000 887656.93750000 
0.11500    27981062.00000000 17854776.00000000 44695676.00000000 11429.43359375  1096355.87500000 872953.50000000 
0.11600    27651884.00000000 17650444.00000000 44176928.00000000 11198.27343750  1078060.12500000 858460.81250000 
0.11700    27328364.00000000 17449830.00000000 43667344.00000000 10970.68066406  1060008.12500000 844154.81250000 
0.11800    27009916.00000000 17252572.00000000 43165956.00000000 10746.26660156  1042187.37500000 830027.93750000 
0.11900    26696172.00000000 17058368.00000000 42672084.00000000 10525.15917969  1024551.50000000 816061.81250000 
0.12000    26386766.00000000 16866860.00000000 42185300.00000000 10307.02050781  1007121.56250000 802237.25000000 
0.12100    26081368.00000000 16677804.00000000 41704500.00000000 10091.93847656  989863.31250000 788563.12500000 
0.12200    25779180.00000000 16491031.00000000 41229116.00000000 9879.76757812   972768.87500000 775008.37500000 
0.12300    25480274.00000000 16306102.00000000 40758572.00000000 9670.45996094   955826.43750000 761572.68750000 
0.12400    25183866.00000000 16122909.00000000 40292672.00000000 9463.85839844   939027.00000000 748233.06250000 
0.12500    24889898.00000000 15941170.00000000 39830604.00000000 9260.12304688   922353.43750000 735011.25000000 
0.12600    24598108.00000000 15760866.00000000 39371384.00000000 9059.06347656   905809.56250000 721878.43750000 
0.12700    24308382.00000000 15581665.00000000 38915680.00000000 8860.73144531   889387.50000000 708839.06250000 
0.12800    24019902.00000000 15403397.00000000 38461500.00000000 8665.12695312   873079.81250000 695885.37500000 
0.12900    23732936.00000000 15225979.00000000 38010284.00000000 8472.30566406   856882.43750000 683020.06250000 
0.13000    23447136.00000000 15049198.00000000 37560580.00000000 8282.15136719   840793.62500000 670235.56250000 
0.13100    23162302.00000000 14873018.00000000 37112524.00000000 8094.78564453   824815.00000000 657533.62500000 
0.13200    22878510.00000000 14697385.00000000 36665804.00000000 7910.16796875   808946.81250000 644904.68750000 
0.13300    22595478.00000000 14522029.00000000 36220068.00000000 7728.41308594   793183.87500000 632368.12500000 
0.13400    22312912.00000000 14347034.00000000 35775184.00000000 7549.45849609   777532.43750000 619910.81250000 
0.13500    22031160.00000000 14172376.00000000 35330984.00000000 7373.39599609   761990.31250000 607534.00000000 
0.13600    21749674.00000000 13997810.00000000 34887776.00000000 7200.23388672   746569.12500000 595244.18750000 
0.13700    21468914.00000000 13823529.00000000 34445156.00000000 7030.05029297   731261.37500000 583041.12500000 
0.13800    21188454.00000000 13649277.00000000 34002660.00000000 6862.80126953   716072.18750000 570933.50000000 
0.13900    20908536.00000000 13475313.00000000 33561036.00000000 6698.57519531   701013.93750000 558916.12500000 
0.14000    20628946.00000000 13301389.00000000 33119924.00000000 6537.39794922   686086.50000000 547007.06250000 
0.14100    20349756.00000000 13127598.00000000 32679374.00000000 6379.31103516   671292.68750000 535194.50000000 
0.14200    20071200.00000000 12953956.00000000 32239364.00000000 6224.26757812   656646.37500000 523490.50000000 
0.14300    19793192.00000000 12780550.00000000 31800020.00000000 6072.36035156   642145.25000000 511899.12500000 
0.14400    19515754.00000000 12607120.00000000 31361284.00000000 5923.59277344   627784.31250000 500422.71875000 
0.14500    19239064.00000000 12434192.00000000 30923458.00000000 5777.94287109   613596.25000000 489066.40625000 
0.14600    18962980.00000000 12261427.00000000 30486652.00000000 5635.51123047   599563.50000000 477836.09375000 
0.14700    18687896.00000000 12089093.00000000 30050926.00000000 5496.22167969   585701.43750000 466738.56250000 
0.14800    18413592.00000000 11917093.00000000 29616280.00000000 5360.09960938   572016.00000000 455769.78125000 
0.14900    18140456.00000000 11745461.00000000 29183042.00000000 5227.10839844   558507.06250000 444945.03125000 
0.15000    17868186.00000000 11574395.00000000 28751400.00000000 5097.27929688   545182.43750000 434261.03125000 
0.15100    17597198.00000000 11403862.00000000 28321258.00000000 4970.57763672   532049.25000000 423727.00000000 
0.15200    17327556.00000000 11234094.00000000 27893298.00000000 4847.04003906   519113.75000000 413345.37500000 
0.15300    17059366.00000000 11064979.00000000 27467106.00000000 4726.53808594   506376.00000000 403118.96875000 
0.15400    16792710.00000000 10896500.00000000 27043080.00000000 4609.12500000   493838.50000000 393051.59375000 
0.15500    16527854.00000000 10728992.00000000 26621608.00000000 4494.70019531   481513.03125000 383147.68750000 
0.15600    16264561.00000000 10562406.00000000 26202656.00000000 4383.24267578   469396.06250000 373406.09375000 
0.15700    16003285.00000000 10396817.00000000 25786504.00000000 4274.75732422   457498.71875000 363837.46875000 
0.15800    15743892.00000000 10232289.00000000 25373166.00000000 4169.09472656   445810.68750000 354439.84375000 
0.15900    15486615.00000000 10068955.00000000 24963052.00000000 4066.33569336   434349.15625000 345215.50000000 
0.16000    15231524.00000000 9906654.00000000 24556120.00000000 3966.28271484   423106.06250000 336166.03125000 
0.16100    14978811.00000000 9745822.00000000 24152818.00000000 3869.02832031   412087.06250000 327295.37500000 
0.16200    14728537.00000000 9586359.00000000 23753054.00000000 3774.36889648   401295.09375000 318600.93750000 
0.16300    14480713.00000000 9428210.00000000 23356970.00000000 3682.32885742   390727.15625000 310089.43750000 
0.16400    14235530.00000000 9271575.00000000 22964944.00000000 3592.79956055   380386.31250000 301761.00000000 
0.16500    13993041.00000000 9116450.00000000 22577036.00000000 3505.71020508   370271.87500000 293610.15625000 
0.16600    13753361.00000000 8962894.00000000 22193162.00000000 3421.00415039   360384.31250000 285640.68750000 
0.16700    13516425.00000000 8811049.00000000 21813752.00000000 3338.58715820   350722.56250000 277849.28125000 
0.16800    13282336.00000000 8660931.00000000 21438766.00000000 3258.41870117   341282.34375000 270240.06250000 
0.16900    13051361.00000000 8512572.00000000 21068628.00000000 3180.42700195   332072.00000000 262811.71875000 
0.17000    12823379.00000000 8366037.50000000 20702780.00000000 3104.51928711   323076.09375000 255560.29687500 
