# SAXS profile: number of points = 501, q_min = 0, q_max = 0.5, delta_q = 0.001
#    q    intensity 
0.00000    162235888.00000000 101202440.00000000 256271392.00000000 96089.11718750  7896719.00000000 6236811.50000000 
0.00100    162206640.00000000 101182960.00000000 256221152.00000000 96065.16406250  7894940.00000000 6235419.50000000 
0.00200    162115632.00000000 101125480.00000000 256075776.00000000 95992.10156250  7889657.50000000 6231275.00000000 
0.00300    161961440.00000000 101028888.00000000 255831600.00000000 95870.48437500  7880853.50000000 6224345.50000000 
0.00400    161744064.00000000 100895472.00000000 255488880.00000000 95700.62500000  7868526.50000000 6214696.50000000 
0.00500    161463264.00000000 100722816.00000000 255049520.00000000 95482.79687500  7852680.00000000 6202284.00000000 
0.00600    161120496.00000000 100512472.00000000 254513008.00000000 95217.68750000  7833434.00000000 6187132.00000000 
0.00700    160717936.00000000 100264888.00000000 253883984.00000000 94905.03906250  7810722.50000000 6169284.00000000 
0.00800    160252816.00000000 99979992.00000000 253158720.00000000 94545.83593750  7784647.50000000 6148803.50000000 
0.00900    159728288.00000000 99658920.00000000 252337216.00000000 94140.36718750  7755185.50000000 6125692.00000000 
0.01000    159145904.00000000 99301800.00000000 251425520.00000000 93689.21093750  7722404.50000000 6099924.00000000 
0.01100    158507392.00000000 98908048.00000000 250421264.00000000 93194.19531250  7686332.00000000 6071621.50000000 
0.01200    157810832.00000000 98479160.00000000 249326928.00000000 92654.83593750  7647083.50000000 6040793.50000000 
0.01300    157056800.00000000 98015048.00000000 248143984.00000000 92073.12500000  7604667.00000000 6007512.50000000 
0.01400    156245280.00000000 97517600.00000000 246873552.00000000 91448.88281250  7559166.00000000 5971782.50000000 
0.01500    155380784.00000000 96985152.00000000 245517104.00000000 90784.28906250  7510675.50000000 5933673.50000000 
0.01600    154463376.00000000 96420640.00000000 244077552.00000000 90079.99218750  7459220.50000000 5893272.00000000 
0.01700    153494272.00000000 95824128.00000000 242557296.00000000 89336.96093750  7404847.50000000 5850573.00000000 
0.01800    152474528.00000000 95196760.00000000 240955904.00000000 88556.53125000  7347785.00000000 5805721.50000000 
0.01900    151403712.00000000 94538520.00000000 239277200.00000000 87740.21093750  7287913.50000000 5758686.00000000 
0.02000    150284496.00000000 93849816.00000000 237521776.00000000 86888.81250000  7225464.00000000 5709641.50000000 
0.02100    149119872.00000000 93132280.00000000 235694800.00000000 86003.55468750  7160461.00000000 5658606.00000000 
0.02200    147910928.00000000 92387520.00000000 233796688.00000000 85087.15625000  7093002.50000000 5605623.50000000 
0.02300    146656512.00000000 91616344.00000000 231828272.00000000 84139.60937500  7023248.00000000 5550785.50000000 
0.02400    145360288.00000000 90818968.00000000 229794320.00000000 83163.04687500  6951247.50000000 5494172.50000000 
0.02500    144024400.00000000 89995104.00000000 227696192.00000000 82158.67187500  6877082.00000000 5435904.00000000 
0.02600    142649104.00000000 89148176.00000000 225537728.00000000 81128.35156250  6800833.50000000 5376020.00000000 
0.02700    141236800.00000000 88278112.00000000 223320880.00000000 80073.35156250  6722729.50000000 5314589.50000000 
0.02800    139789088.00000000 87386544.00000000 221047888.00000000 78995.35156250  6642718.00000000 5251714.50000000 
0.02900    138308816.00000000 86473632.00000000 218722944.00000000 77896.76562500  6561007.50000000 5187492.50000000 
0.03000    136795072.00000000 85540928.00000000 216347808.00000000 76777.13281250  6477726.50000000 5121984.00000000 
0.03100    135251648.00000000 84589288.00000000 213923728.00000000 75640.17968750  6392898.50000000 5055302.50000000 
0.03200    133680544.00000000 83620064.00000000 211456160.00000000 74486.62500000  6306682.50000000 4987482.50000000 
0.03300    132082728.00000000 82635248.00000000 208945984.00000000 73317.85937500  6219162.00000000 4918687.50000000 
0.03400    130460464.00000000 81634280.00000000 206397808.00000000 72135.62500000  6130506.50000000 4848936.00000000 
0.03500    128815784.00000000 80619024.00000000 203814000.00000000 70942.23437500  6040709.50000000 4778354.00000000 
0.03600    127149592.00000000 79590816.00000000 201196176.00000000 69738.36718750  5950040.00000000 4707003.00000000 
0.03700    125465056.00000000 78551600.00000000 198548512.00000000 68525.85937500  5858509.50000000 4634954.50000000 
0.03800    123762760.00000000 77500216.00000000 195872384.00000000 67306.33593750  5766234.50000000 4562354.50000000 
0.03900    122045264.00000000 76439744.00000000 193173920.00000000 66081.82812500  5673315.00000000 4489241.50000000 
0.04000    120314424.00000000 75370648.00000000 190452288.00000000 64853.00000000  5579884.00000000 4415717.00000000 
0.04100    118572072.00000000 74294392.00000000 187712976.00000000 63621.53515625  5486038.50000000 4341865.50000000 
0.04200    116819544.00000000 73211080.00000000 184956656.00000000 62388.98437500  5391898.00000000 4267711.50000000 
0.04300    115058816.00000000 72122440.00000000 182188784.00000000 61157.00781250  5297530.00000000 4193443.25000000 
0.04400    113291600.00000000 71028936.00000000 179409232.00000000 59926.65234375  5203047.00000000 4119028.75000000 
0.04500    111520408.00000000 69933368.00000000 176621504.00000000 58699.57812500  5108565.50000000 4044608.50000000 
0.04600    109745536.00000000 68835144.00000000 173829232.00000000 57476.62109375  5014178.50000000 3970238.75000000 
0.04700    107968728.00000000 67735536.00000000 171034480.00000000 56259.58593750  4919918.00000000 3895993.00000000 
0.04800    106193296.00000000 66636072.00000000 168239824.00000000 55049.39453125  4825971.00000000 3821969.75000000 
0.04900    104419168.00000000 65537324.00000000 165446544.00000000 53846.80468750  4732376.50000000 3748224.00000000 
0.05000    102648896.00000000 64440544.00000000 162659232.00000000 52653.73828125  4639211.00000000 3674803.25000000 
0.05100    100883216.00000000 63346708.00000000 159879088.00000000 51470.72265625  4546589.00000000 3601778.50000000 
0.05200    99124168.00000000 62256000.00000000 157109232.00000000 50298.97656250  4454550.00000000 3529198.50000000 
0.05300    97372784.00000000 61169912.00000000 154350496.00000000 49139.44531250  4363181.50000000 3457167.00000000 
0.05400    95630840.00000000 60089520.00000000 151606976.00000000 47992.80078125  4272577.00000000 3385714.50000000 
0.05500    93899280.00000000 59015040.00000000 148878576.00000000 46860.34375000  4182764.25000000 3314895.00000000 
0.05600    92179336.00000000 57947916.00000000 146169104.00000000 45742.28515625  4093849.50000000 3244749.50000000 
0.05700    90472800.00000000 56888452.00000000 143478960.00000000 44640.00781250  4005923.00000000 3175332.00000000 
0.05800    88780144.00000000 55837484.00000000 140811952.00000000 43553.69140625  3918951.50000000 3106740.75000000 
0.05900    87103504.00000000 54795316.00000000 138168080.00000000 42484.25390625  3833055.25000000 3038938.00000000 
0.06000    85442904.00000000 53763056.00000000 135549760.00000000 41432.25781250  3748274.25000000 2972011.50000000 
0.06100    83799376.00000000 52741400.00000000 132958952.00000000 40397.92187500  3664652.25000000 2905994.00000000 
0.06200    82175104.00000000 51730984.00000000 130395888.00000000 39382.05078125  3582251.00000000 2840917.75000000 
0.06300    80569208.00000000 50731964.00000000 127864128.00000000 38384.76562500  3501076.25000000 2776822.25000000 
0.06400    78983848.00000000 49745564.00000000 125361880.00000000 37407.18359375  3421189.25000000 2713709.00000000 
0.06500    77419656.00000000 48771436.00000000 122893520.00000000 36448.44921875  3342619.00000000 2651635.50000000 
0.06600    75876352.00000000 47810844.00000000 120457768.00000000 35509.73437500  3265403.75000000 2590636.00000000 
0.06700    74356192.00000000 46863600.00000000 118058160.00000000 34590.79296875  3189541.75000000 2530686.25000000 
0.06800    72858192.00000000 45930236.00000000 115693136.00000000 33691.98437500  3115090.00000000 2471845.00000000 
0.06900    71384256.00000000 45011864.00000000 113365976.00000000 32813.44921875  3042061.25000000 2414107.25000000 
0.07000    69934440.00000000 44107504.00000000 111075624.00000000 31954.95312500  2970456.25000000 2357469.25000000 
0.07100    68509376.00000000 43218352.00000000 108824200.00000000 31116.84960938  2900294.25000000 2302022.75000000 
0.07200    67109016.00000000 42344344.00000000 106611336.00000000 30299.16992188  2831622.25000000 2247674.25000000 
0.07300    65733364.00000000 41486220.00000000 104438736.00000000 29501.49804688  2764397.25000000 2194496.50000000 
0.07400    64383600.00000000 40643256.00000000 102304816.00000000 28724.23632812  2698632.25000000 2142471.25000000 
0.07500    63060096.00000000 39816448.00000000 100212520.00000000 27966.70703125  2634347.75000000 2091610.50000000 
0.07600    61761748.00000000 39005680.00000000 98160816.00000000 27229.10742188  2571521.75000000 2041876.62500000 
0.07700    60489996.00000000 38210524.00000000 96150016.00000000 26511.17578125  2510182.00000000 1993330.75000000 
0.07800    59244676.00000000 37431760.00000000 94180312.00000000 25812.46679688  2450276.00000000 1945919.25000000 
0.07900    58025620.00000000 36669324.00000000 92252200.00000000 25133.12304688  2391857.25000000 1899657.12500000 
0.08000    56832712.00000000 35923280.00000000 90364944.00000000 24472.53320312  2334861.50000000 1854517.75000000 
0.08100    55666224.00000000 35193392.00000000 88519472.00000000 23830.66601562  2279285.50000000 1810504.62500000 
0.08200    54525832.00000000 34479820.00000000 86715056.00000000 23206.82226562  2225128.25000000 1767614.00000000 
0.08300    53411708.00000000 33782312.00000000 84951984.00000000 22600.97851562  2172363.50000000 1725804.25000000 
0.08400    52323560.00000000 33101036.00000000 83229800.00000000 22012.53125000  2120992.25000000 1685096.37500000 
0.08500    51261172.00000000 32435474.00000000 81547808.00000000 21441.45703125  2070963.75000000 1645458.50000000 
0.08600    50224056.00000000 31785898.00000000 79906392.00000000 20886.92968750  2022274.12500000 1606875.62500000 
0.08700    49212644.00000000 31151974.00000000 78305024.00000000 20348.93164062  1974897.62500000 1569319.75000000 
0.08800    48226168.00000000 30533804.00000000 76742816.00000000 19826.67382812  1928808.37500000 1532780.50000000 
0.08900    47264352.00000000 29930882.00000000 75219448.00000000 19319.99218750  1883978.75000000 1497255.75000000 
0.09000    46326768.00000000 29343174.00000000 73734976.00000000 18828.40820312  1840365.87500000 1462685.00000000 
0.09100    45413504.00000000 28770392.00000000 72288320.00000000 18351.29882812  1797974.37500000 1429074.37500000 
0.09200    44523808.00000000 28212326.00000000 70879096.00000000 17888.32812500  1756751.37500000 1396385.12500000 
0.09300    43656912.00000000 27668824.00000000 69506000.00000000 17439.30859375  1716688.87500000 1364611.12500000 
0.09400    42813300.00000000 27139332.00000000 68169312.00000000 17003.40039062  1677739.50000000 1333711.12500000 
0.09500    41991712.00000000 26623946.00000000 66867720.00000000 16580.60742188  1639863.75000000 1303684.37500000 
0.09600    41192488.00000000 26122340.00000000 65601012.00000000 16170.15136719  1603055.75000000 1274489.12500000 
0.09700    40414240.00000000 25633912.00000000 64368056.00000000 15771.64062500  1567279.12500000 1246103.87500000 
0.09800    39656632.00000000 25158778.00000000 63168280.00000000 15384.71582031  1532497.12500000 1218509.50000000 
0.09900    38919620.00000000 24696474.00000000 62000340.00000000 15009.01757812  1498682.87500000 1191685.12500000 
0.10000    38202572.00000000 24246540.00000000 60864572.00000000 14643.97265625  1465789.62500000 1165589.00000000 
0.10100    37504852.00000000 23808576.00000000 59759152.00000000 14289.26953125  1433806.50000000 1140206.62500000 
0.10200    36826100.00000000 23382766.00000000 58683420.00000000 13944.50683594  1402683.25000000 1115527.50000000 
0.10300    36165820.00000000 22968222.00000000 57637156.00000000 13609.24707031  1372409.00000000 1091504.12500000 
0.10400    35523056.00000000 22565016.00000000 56618636.00000000 13283.25000000  1342952.62500000 1068128.75000000 
0.10500    34897604.00000000 22172670.00000000 55628356.00000000 12966.13378906  1314269.37500000 1045374.00000000 
0.10600    34288660.00000000 21790912.00000000 54663492.00000000 12657.39355469  1286346.37500000 1023204.37500000 
0.10700    33696120.00000000 21419078.00000000 53724992.00000000 12356.78515625  1259143.25000000 1001624.68750000 
0.10800    33119112.00000000 21057330.00000000 52810876.00000000 12064.08789062  1232635.12500000 980588.00000000 
0.10900    32557540.00000000 20704960.00000000 51921128.00000000 11778.77929688  1206797.12500000 960078.93750000 
0.11000    32010184.00000000 20362016.00000000 51054488.00000000 11500.69140625  1181598.87500000 940084.06250000 
0.11100    31477016.00000000 20027848.00000000 50210224.00000000 11229.57324219  1157025.12500000 920576.75000000 
0.11200    30957592.00000000 19702244.00000000 49387420.00000000 10965.08593750  1133047.37500000 901541.25000000 
0.11300    30450744.00000000 19384910.00000000 48585308.00000000 10707.02246094  1109631.12500000 882947.50000000 
0.11400    29957032.00000000 19075438.00000000 47803192.00000000 10455.06152344  1086757.25000000 864793.50000000 
0.11500    29475230.00000000 18773566.00000000 47040388.00000000 10209.10937500  1064407.75000000 847051.62500000 
0.11600    29004478.00000000 18479108.00000000 46295908.00000000 9968.77441406   1042561.25000000 829703.93750000 
0.11700    28545582.00000000 18191542.00000000 45569428.00000000 9733.98925781   1021193.93750000 812743.18750000 
0.11800    28097200.00000000 17910968.00000000 44859444.00000000 9504.44042969   1000281.87500000 796138.81250000 
0.11900    27658726.00000000 17636636.00000000 44165732.00000000 9280.09570312   979817.12500000 779886.18750000 
0.12000    27230160.00000000 17368472.00000000 43487628.00000000 9060.64257812   959774.68750000 763961.18750000 
0.12100    26811196.00000000 17106384.00000000 42824780.00000000 8846.05078125   940142.68750000 748363.62500000 
0.12200    26400930.00000000 16849920.00000000 42175812.00000000 8636.12109375   920896.25000000 733078.00000000 
0.12300    25999494.00000000 16598779.00000000 41540736.00000000 8430.60156250   902027.81250000 718084.18750000 
0.12400    25605982.00000000 16352894.00000000 40918236.00000000 8229.61328125   883515.75000000 703370.00000000 
0.12500    25220514.00000000 16111876.00000000 40308588.00000000 8032.77197266   865357.93750000 688936.50000000 
0.12600    24842514.00000000 15875648.00000000 39710720.00000000 7840.22363281   847530.06250000 674760.31250000 
0.12700    24471504.00000000 15643814.00000000 39124124.00000000 7651.67138672   830023.75000000 660838.87500000 
0.12800    24107464.00000000 15416271.00000000 38548284.00000000 7467.06542969   812831.68750000 647168.37500000 
0.12900    23749960.00000000 15192890.00000000 37983092.00000000 7286.46826172   795935.25000000 633728.25000000 
0.13000    23398672.00000000 14973340.00000000 37427316.00000000 7109.61181641   779334.81250000 620517.68750000 
0.13100    23053346.00000000 14757505.00000000 36880844.00000000 6936.45410156   763011.68750000 607521.25000000 
0.13200    22713628.00000000 14545153.00000000 36343584.00000000 6766.98242188   746965.00000000 594747.87500000 
0.13300    22379324.00000000 14336326.00000000 35815076.00000000 6601.15917969   731188.62500000 582184.00000000 
0.13400    22050176.00000000 14130607.00000000 35294644.00000000 6438.93017578   715665.00000000 569820.12500000 
0.13500    21726078.00000000 13927955.00000000 34781868.00000000 6280.12988281   700394.37500000 557653.56250000 
0.13600    21406670.00000000 13728310.00000000 34276408.00000000 6124.83154297   685372.18750000 545679.56250000 
0.13700    21091848.00000000 13531480.00000000 33778120.00000000 5972.93652344   670586.50000000 533894.93750000 
0.13800    20781374.00000000 13337125.00000000 33286930.00000000 5824.36474609   656043.25000000 522295.56250000 
0.13900    20474934.00000000 13145499.00000000 32802052.00000000 5679.15136719   641731.50000000 510869.28125000 
0.14000    20172724.00000000 12956278.00000000 32323842.00000000 5537.15771484   627647.37500000 499631.68750000 
0.14100    19874398.00000000 12769475.00000000 31851390.00000000 5398.49072266   613786.00000000 488564.71875000 
0.14200    19579654.00000000 12584828.00000000 31384540.00000000 5262.94531250   600144.43750000 477671.03125000 
0.14300    19288514.00000000 12402575.00000000 30923758.00000000 5130.63281250   586720.50000000 466946.78125000 
0.14400    19000864.00000000 12222153.00000000 30467842.00000000 5001.37402344   573510.06250000 456391.31250000 
0.14500    18716656.00000000 12043964.00000000 30017532.00000000 4875.20654297   560517.12500000 446000.87500000 
0.14600    18435640.00000000 11867645.00000000 29572136.00000000 4752.15429688   547732.43750000 435776.34375000 
0.14700    18157890.00000000 11693134.00000000 29131758.00000000 4632.03564453   535155.75000000 425714.31250000 
0.14800    17883078.00000000 11520589.00000000 28695968.00000000 4514.93408203   522781.93750000 415811.37500000 
0.14900    17611326.00000000 11349732.00000000 28265040.00000000 4400.75146484   510612.75000000 406071.06250000 
0.15000    17342474.00000000 11180615.00000000 27838382.00000000 4289.41503906   498651.50000000 396489.31250000 
0.15100    17076592.00000000 11013257.00000000 27416210.00000000 4180.94921875   486889.25000000 387064.43750000 
0.15200    16813616.00000000 10847590.00000000 26998650.00000000 4075.25610352   475331.00000000 377804.87500000 
0.15300    16553298.00000000 10683517.00000000 26585058.00000000 3972.35278320   463967.68750000 368694.28125000 
0.15400    16295708.00000000 10521078.00000000 26175762.00000000 3872.11230469   452802.65625000 359740.81250000 
0.15500    16040857.00000000 10360146.00000000 25770698.00000000 3774.58593750   441835.03125000 350942.43750000 
0.15600    15788564.00000000 10200832.00000000 25369546.00000000 3679.58398438   431058.75000000 342297.90625000 
0.15700    15538980.00000000 10043112.00000000 24972692.00000000 3587.18701172   420483.37500000 333808.09375000 
0.15800    15292011.00000000 9886848.00000000 24579436.00000000 3497.27832031   410094.84375000 325466.31250000 
0.15900    15047576.00000000 9732123.00000000 24190496.00000000 3409.83496094   399899.75000000 317278.84375000 
0.16000    14805657.00000000 9578847.00000000 23805216.00000000 3324.78491211   389893.06250000 309242.40625000 
0.16100    14566463.00000000 9427171.00000000 23424050.00000000 3242.09130859   380077.00000000 301355.09375000 
0.16200    14329813.00000000 9276936.00000000 23046830.00000000 3161.67553711   370449.93750000 293618.40625000 
0.16300    14095577.00000000 9128254.00000000 22673424.00000000 3083.48950195   361005.65625000 286026.37500000 
0.16400    13863894.00000000 8981052.00000000 22303904.00000000 3007.50512695   351749.40625000 278585.50000000 
0.16500    13634791.00000000 8835335.00000000 21938428.00000000 2933.60180664   342673.56250000 271286.28125000 
0.16600    13408258.00000000 8691095.00000000 21576900.00000000 2861.77343750   333779.81250000 264134.71875000 
0.16700    13184225.00000000 8548379.00000000 21219026.00000000 2791.93530273   325060.90625000 257125.15625000 
0.16800    12962623.00000000 8407077.00000000 20865180.00000000 2724.02319336   316520.46875000 250256.68750000 
0.16900    12743655.00000000 8267447.50000000 20515298.00000000 2658.04248047   308161.93750000 243530.07812500 
0.17000    12527238.00000000 8129223.50000000 20169396.00000000 2593.86083984   299974.06250000 236943.31250000 
