# SAXS profile: number of points = 501, q_min = 0, q_max = 0.5, delta_q = 0.001
#    q    intensity 
0.00000    162234832.00000000 101201920.00000000 256271040.00000000 113342.59375000 8576337.00000000 6773628.50000000 
0.00100    162200336.00000000 101179968.00000000 256213520.00000000 113309.37500000 8574115.00000000 6771865.00000000 
0.00200    162095872.00000000 101113168.00000000 256044576.00000000 113208.94531250 8567431.00000000 6766602.50000000 
0.00300    161918224.00000000 101002176.00000000 255761264.00000000 113041.74218750 8556283.00000000 6757838.00000000 
0.00400    161665600.00000000 100847088.00000000 255365312.00000000 112809.21875000 8540666.00000000 6745606.50000000 
0.00500    161339680.00000000 100647792.00000000 254858960.00000000 112509.80468750 8520678.00000000 6729896.00000000 
0.00600    160942784.00000000 100403688.00000000 254236080.00000000 112145.32812500 8496323.00000000 6710733.00000000 
0.00700    160477088.00000000 100117984.00000000 253506544.00000000 111717.06250000 8467598.00000000 6688235.50000000 
0.00800    159935584.00000000 99789096.00000000 252667936.00000000 111224.53906250 8434575.00000000 6662350.50000000 
0.00900    159331808.00000000 99418408.00000000 251721232.00000000 110669.30468750 8397403.00000000 6633102.50000000 
0.01000    158658880.00000000 99006296.00000000 250665664.00000000 110052.76562500 8356003.50000000 6600645.50000000 
0.01100    157922384.00000000 98552072.00000000 249507552.00000000 109376.11718750 8310573.50000000 6564959.50000000 
0.01200    157117856.00000000 98057632.00000000 248244736.00000000 108639.45312500 8261067.50000000 6526134.00000000 
0.01300    156246112.00000000 97523160.00000000 246879680.00000000 107845.45312500 8207691.50000000 6484244.50000000 
0.01400    155310624.00000000 96949352.00000000 245416576.00000000 106995.10937500 8150464.00000000 6439311.50000000 
0.01500    154315888.00000000 96337608.00000000 243857056.00000000 106090.37500000 8089520.50000000 6391462.50000000 
0.01600    153259936.00000000 95689424.00000000 242201696.00000000 105132.91406250 8024902.00000000 6340740.00000000 
0.01700    152146160.00000000 95005168.00000000 240454672.00000000 104124.09375000 7956803.50000000 6287294.50000000 
0.01800    150972688.00000000 94285512.00000000 238617616.00000000 103066.41406250 7885298.50000000 6231119.50000000 
0.01900    149745328.00000000 93531224.00000000 236693184.00000000 101961.07812500 7810530.50000000 6172398.50000000 
0.02000    148465120.00000000 92744080.00000000 234684864.00000000 100810.84375000 7732529.00000000 6111170.50000000 
0.02100    147132384.00000000 91924904.00000000 232593712.00000000 99617.63281250  7651545.00000000 6047524.50000000 
0.02200    145748240.00000000 91074928.00000000 230425536.00000000 98383.26562500  7567597.00000000 5981633.00000000 
0.02300    144317696.00000000 90195336.00000000 228181696.00000000 97110.17187500  7480952.50000000 5913611.00000000 
0.02400    142841600.00000000 89287456.00000000 225866272.00000000 95801.51562500  7391693.50000000 5843466.50000000 
0.02500    141320272.00000000 88352640.00000000 223480144.00000000 94457.84375000  7299905.50000000 5771364.00000000 
0.02600    139758928.00000000 87392304.00000000 221030480.00000000 93082.14062500  7205771.50000000 5697413.50000000 
0.02700    138156416.00000000 86406632.00000000 218518864.00000000 91678.32031250  7109489.00000000 5621718.00000000 
0.02800    136518032.00000000 85398496.00000000 215947792.00000000 90246.38281250  7011119.50000000 5544414.50000000 
0.02900    134843248.00000000 84367816.00000000 213321008.00000000 88790.57812500  6910857.00000000 5465645.00000000 
0.03000    133137136.00000000 83318088.00000000 210642816.00000000 87311.67968750  6808858.00000000 5385476.50000000 
0.03100    131400152.00000000 82248032.00000000 207916992.00000000 85813.03125000  6705265.50000000 5304051.50000000 
0.03200    129634640.00000000 81161152.00000000 205146304.00000000 84297.66406250  6600259.50000000 5221490.50000000 
0.03300    127843832.00000000 80057376.00000000 202334400.00000000 82766.50000000  6493934.00000000 5137911.00000000 
0.03400    126028808.00000000 78939504.00000000 199484912.00000000 81223.09375000  6386459.50000000 5053415.00000000 
0.03500    124192640.00000000 77807936.00000000 196602720.00000000 79669.14843750  6278020.00000000 4968146.50000000 
0.03600    122337752.00000000 76664672.00000000 193688240.00000000 78107.10937500  6168764.50000000 4882199.00000000 
0.03700    120466808.00000000 75510792.00000000 190749536.00000000 76540.44531250  6058770.50000000 4795723.50000000 
0.03800    118579960.00000000 74347560.00000000 187786912.00000000 74969.13281250  5948332.50000000 4708783.50000000 
0.03900    116681984.00000000 73177304.00000000 184805600.00000000 73397.02343750  5837433.00000000 4621583.50000000 
0.04000    114774448.00000000 72000120.00000000 181808256.00000000 71824.85156250  5726273.50000000 4534083.00000000 
0.04100    112858376.00000000 70817144.00000000 178797536.00000000 70257.50781250  5615010.00000000 4446557.00000000 
0.04200    110937424.00000000 69630960.00000000 175777632.00000000 68693.30468750  5503749.50000000 4358996.00000000 
0.04300    109013360.00000000 68442288.00000000 172753136.00000000 67136.81250000  5392649.50000000 4271517.00000000 
0.04400    107087912.00000000 67251752.00000000 169725440.00000000 65588.36718750  5281847.00000000 4184248.00000000 
0.04500    105163416.00000000 66062352.00000000 166700048.00000000 64051.38281250  5171452.00000000 4097322.50000000 
0.04600    103240720.00000000 64874088.00000000 163676464.00000000 62526.24609375  5061570.50000000 4010783.75000000 
0.04700    101324296.00000000 63688644.00000000 160661920.00000000 61015.42968750  4952363.50000000 3924739.75000000 
0.04800    99414120.00000000 62506924.00000000 157655808.00000000 59520.35937500  4843929.00000000 3839284.50000000 
0.04900    97512504.00000000 61329952.00000000 154663504.00000000 58041.94140625  4736318.50000000 3754495.75000000 
0.05000    95621840.00000000 60159088.00000000 151688176.00000000 56582.45312500  4629684.00000000 3670488.50000000 
0.05100    93743104.00000000 58995304.00000000 148730336.00000000 55142.64453125  4524152.50000000 3587303.25000000 
0.05200    91878592.00000000 57839584.00000000 145793472.00000000 53724.42578125  4419778.50000000 3504999.00000000 
0.05300    90028616.00000000 56693448.00000000 142881296.00000000 52328.10937500  4316690.00000000 3423683.00000000 
0.05400    88196496.00000000 55556808.00000000 139994928.00000000 50955.06640625  4214862.00000000 3343428.50000000 
0.05500    86382584.00000000 54431444.00000000 137139024.00000000 49606.68359375  4114552.50000000 3264261.25000000 
0.05600    84588208.00000000 53317972.00000000 134311568.00000000 48283.34765625  4015705.25000000 3186257.75000000 
0.05700    82815600.00000000 52217336.00000000 131518080.00000000 46986.01562500  3918401.75000000 3109482.50000000 
0.05800    81065048.00000000 51130356.00000000 128759552.00000000 45715.16406250  3822747.50000000 3033960.75000000 
0.05900    79339032.00000000 50057008.00000000 126036624.00000000 44471.96875000  3728732.50000000 2959768.75000000 
0.06000    77636920.00000000 48999052.00000000 123352856.00000000 43256.37109375  3636488.50000000 2886902.50000000 
0.06100    75961192.00000000 47956848.00000000 120709536.00000000 42069.39062500  3546029.25000000 2815429.75000000 
0.06200    74312368.00000000 46930868.00000000 118107856.00000000 40911.08203125  3457372.00000000 2745409.25000000 
0.06300    72690608.00000000 45921752.00000000 115548872.00000000 39781.26953125  3370572.50000000 2676817.00000000 
0.06400    71097784.00000000 44929548.00000000 113034784.00000000 38681.07031250  3285665.00000000 2609714.25000000 
0.06500    69534144.00000000 43955176.00000000 110565896.00000000 37609.98437500  3202677.00000000 2544112.75000000 
0.06600    68000216.00000000 42999196.00000000 108144248.00000000 36568.32421875  3121621.50000000 2480006.25000000 
0.06700    66497004.00000000 42061828.00000000 105769408.00000000 35555.80859375  3042521.75000000 2417435.50000000 
0.06800    65024948.00000000 41142772.00000000 103443824.00000000 34572.57812500  2965374.00000000 2356425.50000000 
0.06900    63584340.00000000 40243484.00000000 101166792.00000000 33618.76562500  2890207.00000000 2296942.00000000 
0.07000    62175128.00000000 39363320.00000000 98939464.00000000 32693.60546875  2817011.25000000 2239002.25000000 
0.07100    60798312.00000000 38502856.00000000 96761944.00000000 31796.88476562  2745786.75000000 2182597.00000000 
0.07200    59453200.00000000 37661984.00000000 94635304.00000000 30928.39453125  2676507.50000000 2127764.50000000 
0.07300    58141132.00000000 36841348.00000000 92559632.00000000 30087.56054688  2609208.75000000 2074444.50000000 
0.07400    56861708.00000000 36040332.00000000 90534792.00000000 29274.50390625  2543825.75000000 2022654.75000000 
0.07500    55614600.00000000 35259332.00000000 88561384.00000000 28488.00781250  2480387.75000000 1972383.87500000 
0.07600    54399688.00000000 34498532.00000000 86638192.00000000 27728.26367188  2418830.50000000 1923597.62500000 
0.07700    53217832.00000000 33757596.00000000 84766632.00000000 26994.04101562  2359181.50000000 1876280.50000000 
0.07800    52068024.00000000 33036804.00000000 82946120.00000000 26285.22460938  2301324.50000000 1830437.25000000 
0.07900    50950248.00000000 32335562.00000000 81175136.00000000 25600.92187500  2245332.75000000 1786007.75000000 
0.08000    49864548.00000000 31654242.00000000 79454696.00000000 24940.50585938  2191132.75000000 1742992.75000000 
0.08100    48810284.00000000 30992168.00000000 77783608.00000000 24303.53320312  2138665.00000000 1701358.75000000 
0.08200    47787368.00000000 30349650.00000000 76162304.00000000 23689.06835938  2087913.50000000 1661087.25000000 
0.08300    46795116.00000000 29725828.00000000 74588512.00000000 23096.37695312  2038852.25000000 1622121.25000000 
0.08400    45833140.00000000 29120902.00000000 73062152.00000000 22524.94140625  1991413.25000000 1584448.37500000 
0.08500    44901052.00000000 28534678.00000000 71584576.00000000 21973.76953125  1945561.75000000 1548028.87500000 
0.08600    43998348.00000000 27966546.00000000 70152160.00000000 21442.41992188  1901273.50000000 1512838.12500000 
0.08700    43124828.00000000 27416490.00000000 68765440.00000000 20929.77148438  1858480.00000000 1478834.50000000 
0.08800    42278912.00000000 26883862.00000000 67423144.00000000 20435.22656250  1817133.62500000 1445964.62500000 
0.08900    41461208.00000000 26368384.00000000 66124560.00000000 19958.10546875  1777185.50000000 1414233.37500000 
0.09000    40670316.00000000 25869722.00000000 64868364.00000000 19497.74414062  1738624.37500000 1383562.37500000 
0.09100    39905660.00000000 25387602.00000000 63653616.00000000 19053.09179688  1701369.37500000 1353924.25000000 
0.09200    39166360.00000000 24921506.00000000 62479648.00000000 18623.73437500  1665361.37500000 1325298.12500000 
0.09300    38452172.00000000 24470880.00000000 61345044.00000000 18208.89062500  1630582.62500000 1297635.37500000 
0.09400    37762124.00000000 24035306.00000000 60248548.00000000 17807.61914062  1596959.25000000 1270895.75000000 
0.09500    37095696.00000000 23614496.00000000 59189344.00000000 17419.41406250  1564474.75000000 1245023.37500000 
0.09600    36451812.00000000 23208274.00000000 58166000.00000000 17043.69921875  1533034.50000000 1220004.87500000 
0.09700    35830108.00000000 22815484.00000000 57177732.00000000 16679.73632812  1502630.12500000 1195808.87500000 
0.09800    35229652.00000000 22436060.00000000 56222780.00000000 16326.87890625  1473190.37500000 1172381.00000000 
0.09900    34649324.00000000 22069656.00000000 55300776.00000000 15984.50292969  1444693.12500000 1149692.50000000 
0.10000    34089172.00000000 21715570.00000000 54409636.00000000 15651.98730469  1417069.75000000 1127712.12500000 
0.10100    33547370.00000000 21373312.00000000 53548692.00000000 15328.91210938  1390282.87500000 1106389.12500000 
0.10200    33023722.00000000 21042648.00000000 52716488.00000000 15014.75000000  1364297.62500000 1085697.25000000 
0.10300    32517556.00000000 20722910.00000000 51911768.00000000 14708.73339844  1339054.25000000 1065607.25000000 
0.10400    32028184.00000000 20413654.00000000 51133944.00000000 14410.52343750  1314526.00000000 1046078.56250000 
0.10500    31554660.00000000 20114706.00000000 50380996.00000000 14119.87792969  1290677.00000000 1027087.50000000 
0.10600    31096050.00000000 19825018.00000000 49651808.00000000 13835.91210938  1267446.87500000 1008603.00000000 
0.10700    30652116.00000000 19544708.00000000 48946436.00000000 13558.56640625  1244824.37500000 990592.68750000 
0.10800    30221626.00000000 19273080.00000000 48262392.00000000 13287.31347656  1222760.12500000 973022.68750000 
0.10900    29804072.00000000 19009576.00000000 47598996.00000000 13021.89648438  1201212.87500000 955872.50000000 
0.11000    29398908.00000000 18754186.00000000 46955296.00000000 12761.90429688  1180167.00000000 939126.25000000 
0.11100    29005246.00000000 18505894.00000000 46329896.00000000 12507.02734375  1159576.00000000 922736.75000000 
0.11200    28622518.00000000 18264604.00000000 45722296.00000000 12256.91406250  1139426.62500000 906696.56250000 
0.11300    28250142.00000000 18030220.00000000 45130772.00000000 12011.47753906  1119674.75000000 890982.75000000 
0.11400    27887430.00000000 17801686.00000000 44555432.00000000 11770.41015625  1100301.12500000 875566.25000000 
0.11500    27533734.00000000 17578996.00000000 43994200.00000000 11533.47851562  1081291.87500000 860439.18750000 
0.11600    27188348.00000000 17362026.00000000 43446504.00000000 11300.46386719  1062596.87500000 845572.50000000 
0.11700    26851316.00000000 17149908.00000000 42911588.00000000 11071.17675781  1044220.87500000 830953.93750000 
0.11800    26521220.00000000 16942600.00000000 42388392.00000000 10845.56347656  1026133.12500000 816562.25000000 
0.11900    26198048.00000000 16739753.00000000 41876308.00000000 10623.38183594  1008319.62500000 802388.56250000 
0.12000    25881272.00000000 16540908.00000000 41374372.00000000 10404.58691406  990749.25000000 788418.93750000 
0.12100    25570418.00000000 16345945.00000000 40881904.00000000 10189.05273438  973424.18750000 774635.50000000 
0.12200    25264950.00000000 16154584.00000000 40398204.00000000 9976.71875000   956313.00000000 761032.00000000 
0.12300    24964524.00000000 15966433.00000000 39922492.00000000 9767.50878906   939422.43750000 747598.18750000 
0.12400    24668580.00000000 15781161.00000000 39454372.00000000 9561.27636719   922729.12500000 734318.81250000 
0.12500    24376910.00000000 15598675.00000000 38992640.00000000 9358.08789062   906225.87500000 721187.87500000 
0.12600    24089050.00000000 15418763.00000000 38537384.00000000 9157.89062500   889900.12500000 708210.68750000 
0.12700    23804800.00000000 15241031.00000000 38087740.00000000 8960.61621094   873742.31250000 695356.06250000 
0.12800    23523640.00000000 15065357.00000000 37643188.00000000 8766.23632812   857754.43750000 682640.25000000 
0.12900    23245274.00000000 14891510.00000000 37203340.00000000 8574.82714844   841924.93750000 670048.68750000 
0.13000    22969674.00000000 14719526.00000000 36767408.00000000 8386.32617188   826251.75000000 657583.18750000 
0.13100    22696284.00000000 14548847.00000000 36335620.00000000 8200.66796875   810721.06250000 645231.00000000 
0.13200    22425178.00000000 14379649.00000000 35907100.00000000 8017.95019531   795344.81250000 632994.06250000 
0.13300    22155812.00000000 14211720.00000000 35481736.00000000 7838.21289062   780117.31250000 620878.06250000 
0.13400    21888320.00000000 14044888.00000000 35058768.00000000 7661.40429688   765030.06250000 608869.56250000 
0.13500    21622172.00000000 13878947.00000000 34638388.00000000 7487.56738281   750086.31250000 596976.31250000 
0.13600    21357572.00000000 13713926.00000000 34220632.00000000 7316.74072266   735286.81250000 585195.93750000 
0.13700    21094170.00000000 13549760.00000000 33804344.00000000 7148.85888672   720626.31250000 573525.37500000 
0.13800    20831770.00000000 13386175.00000000 33390222.00000000 6983.97167969   706112.37500000 561971.43750000 
0.13900    20570682.00000000 13223247.00000000 32977326.00000000 6822.16748047   691742.93750000 550529.62500000 
0.14000    20310344.00000000 13060955.00000000 32566240.00000000 6663.42626953   677527.12500000 539203.93750000 
0.14100    20050788.00000000 12899043.00000000 32156246.00000000 6507.71484375   663456.93750000 527996.56250000 
0.14200    19792148.00000000 12737649.00000000 31747500.00000000 6355.04736328   649539.31250000 516899.59375000 
0.14300    19534350.00000000 12576807.00000000 31339954.00000000 6205.51171875   635780.43750000 505932.43750000 
0.14400    19277196.00000000 12416147.00000000 30933514.00000000 6059.04980469   622165.62500000 495084.78125000 
0.14500    19020880.00000000 12256045.00000000 30528090.00000000 5915.72460938   608722.68750000 484365.28125000 
0.14600    18765178.00000000 12096200.00000000 30123636.00000000 5775.44824219   595441.18750000 473773.56250000 
0.14700    18510144.00000000 11936896.00000000 29720250.00000000 5638.31347656   582327.68750000 463313.43750000 
0.14800    18255794.00000000 11777765.00000000 29317994.00000000 5504.21093750   569384.00000000 452980.43750000 
0.14900    18002238.00000000 11619090.00000000 28916840.00000000 5373.17919922   556607.12500000 442786.00000000 
0.15000    17749396.00000000 11460738.00000000 28516612.00000000 5245.17822266   544011.25000000 432727.37500000 
0.15100    17497528.00000000 11302932.00000000 28117688.00000000 5120.29541016   531590.62500000 422810.59375000 
0.15200    17246480.00000000 11145562.00000000 27719968.00000000 4998.40087891   519358.84375000 413036.56250000 
0.15300    16996256.00000000 10988564.00000000 27323516.00000000 4879.48339844   507308.90625000 403409.50000000 
0.15400    16747027.00000000 10832085.00000000 26928458.00000000 4763.47607422   495442.53125000 393925.65625000 
0.15500    16498738.00000000 10676228.00000000 26534886.00000000 4650.45166016   483767.03125000 384590.75000000 
0.15600    16251760.00000000 10520804.00000000 26143026.00000000 4540.26269531   472283.15625000 375404.78125000 
0.15700    16005936.00000000 10366166.00000000 25752860.00000000 4432.95019531   460993.34375000 366376.78125000 
0.15800    15761254.00000000 10212066.00000000 25364374.00000000 4328.35693359   449895.06250000 357496.93750000 
0.15900    15517942.00000000 10058640.00000000 24977852.00000000 4226.61572266   438996.71875000 348772.56250000 
0.16000    15275931.00000000 9906070.00000000 24593480.00000000 4127.55810547   428295.62500000 340208.68750000 
0.16100    15035589.00000000 9754350.00000000 24211474.00000000 4031.11059570   417798.46875000 331798.21875000 
0.16200    14796609.00000000 9603332.00000000 23831468.00000000 3937.28833008   407497.56250000 323549.87500000 
0.16300    14559477.00000000 9453319.00000000 23454252.00000000 3845.98583984   397394.34375000 315454.18750000 
0.16400    14323993.00000000 9304271.00000000 23079330.00000000 3757.19165039   387497.25000000 307521.68750000 
0.16500    14090272.00000000 9156316.00000000 22707446.00000000 3670.79345703   377800.46875000 299747.59375000 
0.16600    13858661.00000000 9009272.00000000 22338168.00000000 3586.76391602   368302.62500000 292130.34375000 
0.16700    13628747.00000000 8863446.00000000 21972004.00000000 3505.03906250   359002.53125000 284670.15625000 
0.16800    13401135.00000000 8718794.00000000 21609002.00000000 3425.55151367   349903.34375000 277369.18750000 
0.16900    13175585.00000000 8575293.00000000 21249076.00000000 3348.22900391   341003.50000000 270230.46875000 
0.17000    12952257.00000000 8433109.00000000 20892520.00000000 3273.04248047   332301.34375000 263243.40625000 
