# SAXS profile: number of points = 501, q_min = 0, q_max = 0.5, delta_q = 0.001
#    q    intensity 
0.00000    162235280.00000000 101202024.00000000 256270672.00000000 101982.04687500 8135280.50000000 6425237.00000000 
0.00100    162196320.00000000 101176072.00000000 256206400.00000000 101950.07812500 8132920.50000000 6423359.00000000 
0.00200    162075584.00000000 101099608.00000000 256012064.00000000 101855.39843750 8125961.50000000 6417927.00000000 
0.00300    161871792.00000000 100972760.00000000 255688288.00000000 101696.11718750 8114453.00000000 6408853.00000000 
0.00400    161583680.00000000 100794544.00000000 255234272.00000000 101474.96093750 8098354.50000000 6396161.50000000 
0.00500    161213776.00000000 100565528.00000000 254654192.00000000 101191.24218750 8077665.50000000 6379929.50000000 
0.00600    160762912.00000000 100286496.00000000 253945056.00000000 100845.00781250 8052509.00000000 6360090.50000000 
0.00700    160228816.00000000 99958464.00000000 253110560.00000000 100438.10156250 8022887.50000000 6336758.00000000 
0.00800    159616816.00000000 99581736.00000000 252153568.00000000 99971.25781250  7988867.00000000 6310021.00000000 
0.00900    158929360.00000000 99157528.00000000 251071248.00000000 99444.47656250  7950487.00000000 6279835.00000000 
0.01000    158169184.00000000 98685760.00000000 249871344.00000000 98860.52343750  7907906.00000000 6246312.00000000 
0.01100    157330944.00000000 98167536.00000000 248552176.00000000 98219.21875000  7861120.00000000 6209502.00000000 
0.01200    156418128.00000000 97602832.00000000 247115840.00000000 97523.05468750  7810329.00000000 6169494.50000000 
0.01300    155432448.00000000 96993488.00000000 245567584.00000000 96772.74218750  7755516.50000000 6126363.50000000 
0.01400    154377504.00000000 96340552.00000000 243909056.00000000 95969.59375000  7696865.00000000 6080197.00000000 
0.01500    153255216.00000000 95646008.00000000 242142528.00000000 95117.02343750  7634433.00000000 6031055.50000000 
0.01600    152066032.00000000 94910792.00000000 240271152.00000000 94214.95312500  7568374.50000000 5979061.00000000 
0.01700    150811024.00000000 94135568.00000000 238299200.00000000 93266.42187500  7498850.00000000 5924351.00000000 
0.01800    149495792.00000000 93322144.00000000 236229440.00000000 92272.42968750  7425938.50000000 5866947.50000000 
0.01900    148119760.00000000 92470648.00000000 234065408.00000000 91236.17968750  7349836.00000000 5807026.50000000 
0.02000    146686992.00000000 91584184.00000000 231811264.00000000 90159.00781250  7270635.50000000 5744639.00000000 
0.02100    145198864.00000000 90663784.00000000 229471856.00000000 89042.65625000  7188458.00000000 5679995.00000000 
0.02200    143659440.00000000 89710728.00000000 227049040.00000000 87890.46875000  7103538.50000000 5613090.50000000 
0.02300    142070960.00000000 88726648.00000000 224546256.00000000 86704.61718750  7016005.00000000 5544167.00000000 
0.02400    140433696.00000000 87713704.00000000 221970928.00000000 85486.50781250  6925978.00000000 5473277.00000000 
0.02500    138753040.00000000 86673384.00000000 219327216.00000000 84238.90625000  6833708.00000000 5400582.50000000 
0.02600    137031536.00000000 85606392.00000000 216616384.00000000 82965.09375000  6739236.00000000 5326200.00000000 
0.02700    135271632.00000000 84516080.00000000 213844992.00000000 81665.96093750  6642835.50000000 5250275.00000000 
0.02800    133474296.00000000 83403192.00000000 211016528.00000000 80344.65625000  6544637.00000000 5172923.50000000 
0.02900    131644472.00000000 82269536.00000000 208136752.00000000 79004.13281250  6444766.50000000 5094240.50000000 
0.03000    129785088.00000000 81117480.00000000 205208960.00000000 77645.99218750  6343481.50000000 5014431.50000000 
0.03100    127898224.00000000 79947760.00000000 202239440.00000000 76272.68750000  6240887.50000000 4933586.50000000 
0.03200    125987448.00000000 78763304.00000000 199229920.00000000 74887.63281250  6137127.00000000 4851863.50000000 
0.03300    124055632.00000000 77564840.00000000 196186864.00000000 73492.05468750  6032499.50000000 4769373.50000000 
0.03400    122105208.00000000 76355632.00000000 193113632.00000000 72087.71093750  5926999.00000000 4686262.00000000 
0.03500    120138888.00000000 75136624.00000000 190016944.00000000 70678.42187500  5820919.50000000 4602641.00000000 
0.03600    118159712.00000000 73908792.00000000 186899840.00000000 69266.26562500  5714279.00000000 4518648.00000000 
0.03700    116170544.00000000 72675560.00000000 183766032.00000000 67852.42968750  5607475.50000000 4434400.00000000 
0.03800    114174816.00000000 71436304.00000000 180621104.00000000 66440.10937500  5500469.00000000 4350049.50000000 
0.03900    112174960.00000000 70194352.00000000 177467680.00000000 65030.17968750  5393432.00000000 4265652.50000000 
0.04000    110171368.00000000 68950792.00000000 174312736.00000000 63625.62109375  5286524.00000000 4181356.00000000 
0.04100    108170624.00000000 67707784.00000000 171158560.00000000 62228.30468750  5179934.00000000 4097311.00000000 
0.04200    106172056.00000000 66466804.00000000 168008688.00000000 60839.42968750  5073808.50000000 4013557.50000000 
0.04300    104180312.00000000 65228228.00000000 164867216.00000000 59461.47656250  4968210.00000000 3930261.25000000 
0.04400    102195824.00000000 63995296.00000000 161738720.00000000 58095.58203125  4863301.50000000 3847530.00000000 
0.04500    100222280.00000000 62768600.00000000 158627088.00000000 56743.89062500  4759243.00000000 3765424.50000000 
0.04600    98261880.00000000 61549768.00000000 155535280.00000000 55407.69921875  4656126.50000000 3684040.75000000 
0.04700    96316784.00000000 60339664.00000000 152465280.00000000 54088.61328125  4554011.00000000 3603481.25000000 
0.04800    94388328.00000000 59139560.00000000 149423360.00000000 52787.78906250  4453091.00000000 3523830.50000000 
0.04900    92478752.00000000 57951476.00000000 146410208.00000000 51506.20312500  4353478.00000000 3445175.00000000 
0.05000    90590568.00000000 56776068.00000000 143430880.00000000 50245.46875000  4255173.00000000 3367563.25000000 
0.05100    88723912.00000000 55614136.00000000 140485712.00000000 49006.66015625  4158322.75000000 3291087.00000000 
0.05200    86882000.00000000 54467212.00000000 137579712.00000000 47790.16796875  4062962.50000000 3215838.50000000 
0.05300    85066464.00000000 53336640.00000000 134713920.00000000 46597.34765625  3969213.25000000 3141799.25000000 
0.05400    83278128.00000000 52222444.00000000 131891000.00000000 45429.08203125  3877151.50000000 3069103.75000000 
0.05500    81518368.00000000 51126056.00000000 129112904.00000000 44285.92187500  3786829.50000000 2997755.75000000 
0.05600    79789160.00000000 50048324.00000000 126381920.00000000 43167.94531250  3698302.50000000 2927803.50000000 
0.05700    78091016.00000000 48989308.00000000 123700944.00000000 42076.20703125  3611599.75000000 2859310.75000000 
0.05800    76424992.00000000 47950532.00000000 121069016.00000000 41011.21093750  3526784.50000000 2792289.50000000 
0.05900    74792704.00000000 46932020.00000000 118490480.00000000 39972.70703125  3443860.00000000 2726776.75000000 
0.06000    73194008.00000000 45934612.00000000 115965336.00000000 38960.81250000  3362916.25000000 2662810.50000000 
0.06100    71630080.00000000 44959096.00000000 113494056.00000000 37976.70703125  3283942.75000000 2600391.50000000 
0.06200    70101408.00000000 44005372.00000000 111079240.00000000 37019.31250000  3206915.00000000 2539517.50000000 
0.06300    68609440.00000000 43073572.00000000 108720856.00000000 36089.21875000  3131954.50000000 2480237.00000000 
0.06400    67153976.00000000 42164324.00000000 106419920.00000000 35186.14062500  3058953.00000000 2422544.25000000 
0.06500    65733796.00000000 41278204.00000000 104176512.00000000 34309.71484375  2987980.50000000 2366433.00000000 
0.06600    64351388.00000000 40414792.00000000 101991552.00000000 33460.18750000  2919017.50000000 2311892.25000000 
0.06700    63006512.00000000 39573888.00000000 99864168.00000000 32636.60351562  2852045.25000000 2258944.00000000 
0.06800    61697692.00000000 38756712.00000000 97795736.00000000 31839.12890625  2787051.75000000 2207541.25000000 
0.06900    60426864.00000000 37962224.00000000 95786600.00000000 31067.04492188  2724049.25000000 2157710.75000000 
0.07000    59192732.00000000 37190716.00000000 93834688.00000000 30320.02539062  2662975.25000000 2109423.75000000 
0.07100    57994788.00000000 36442212.00000000 91940848.00000000 29597.60156250  2603803.50000000 2062611.75000000 
0.07200    56833608.00000000 35716432.00000000 90105136.00000000 28899.12500000  2546510.75000000 2017319.25000000 
0.07300    55709144.00000000 35013488.00000000 88326960.00000000 28223.85742188  2491083.25000000 1973463.25000000 
0.07400    54619404.00000000 34332536.00000000 86603456.00000000 27571.05468750  2437474.00000000 1931068.75000000 
0.07500    53565012.00000000 33673492.00000000 84936376.00000000 26940.62304688  2385617.00000000 1890054.12500000 
0.07600    52545084.00000000 33036344.00000000 83324720.00000000 26331.37109375  2335495.25000000 1850411.00000000 
0.07700    51559352.00000000 32420518.00000000 81765824.00000000 25742.68750000  2287061.75000000 1812102.62500000 
0.07800    50606852.00000000 31825498.00000000 80259936.00000000 25173.83007812  2240234.75000000 1775080.87500000 
0.07900    49686428.00000000 31250772.00000000 78805280.00000000 24624.08007812  2194998.75000000 1739307.75000000 
0.08000    48797988.00000000 30695750.00000000 77400936.00000000 24092.50585938  2151310.75000000 1704752.62500000 
0.08100    47941048.00000000 30160446.00000000 76046536.00000000 23578.59765625  2109073.50000000 1671375.62500000 
0.08200    47113652.00000000 29643988.00000000 74739056.00000000 23081.55078125  2068270.75000000 1639113.75000000 
0.08300    46315304.00000000 29146074.00000000 73477376.00000000 22600.26757812  2028828.87500000 1607940.75000000 
0.08400    45545596.00000000 28665834.00000000 72261560.00000000 22134.46289062  1990703.87500000 1577799.37500000 
0.08500    44802760.00000000 28202982.00000000 71088688.00000000 21683.15820312  1953831.62500000 1548651.50000000 
0.08600    44086540.00000000 27756704.00000000 69957496.00000000 21245.52539062  1918147.25000000 1520456.62500000 
0.08700    43395708.00000000 27326558.00000000 68867760.00000000 20820.96093750  1883597.12500000 1493173.25000000 
0.08800    42729004.00000000 26911668.00000000 67815968.00000000 20408.40039062  1850134.25000000 1466739.50000000 
0.08900    42085544.00000000 26511636.00000000 66801312.00000000 20007.63085938  1817693.00000000 1441121.50000000 
0.09000    41464244.00000000 26125924.00000000 65822184.00000000 19617.89453125  1786241.50000000 1416284.00000000 
0.09100    40864832.00000000 25753552.00000000 64876896.00000000 19238.27343750  1755703.37500000 1392174.00000000 
0.09200    40285332.00000000 25394056.00000000 63964236.00000000 18868.09570312  1726021.37500000 1368743.00000000 
0.09300    39725308.00000000 25047000.00000000 63081800.00000000 18506.98828125  1697145.50000000 1345962.25000000 
0.09400    39183028.00000000 24711444.00000000 62229296.00000000 18154.36718750  1669044.75000000 1323793.62500000 
0.09500    38658804.00000000 24386980.00000000 61403396.00000000 17809.53906250  1641649.25000000 1302174.00000000 
0.09600    38150308.00000000 24072994.00000000 60604276.00000000 17471.98242188  1614912.62500000 1281098.37500000 
0.09700    37657124.00000000 23768754.00000000 59829768.00000000 17141.37109375  1588795.50000000 1260504.37500000 
0.09800    37178768.00000000 23473660.00000000 59078120.00000000 16817.14062500  1563264.12500000 1240372.75000000 
0.09900    36713596.00000000 23187350.00000000 58348328.00000000 16498.75781250  1538263.87500000 1220665.75000000 
0.10000    36261200.00000000 22909072.00000000 57637840.00000000 16185.95800781  1513737.75000000 1201342.50000000 
0.10100    35820020.00000000 22638048.00000000 56946560.00000000 15878.30664062  1489683.25000000 1182379.37500000 
0.10200    35389816.00000000 22374174.00000000 56272720.00000000 15575.51464844  1466044.12500000 1163748.50000000 
0.10300    34970084.00000000 22116780.00000000 55614556.00000000 15277.19238281  1442773.00000000 1145426.00000000 
0.10400    34558728.00000000 21865266.00000000 54971308.00000000 14983.09863281  1419875.75000000 1127371.87500000 
0.10500    34156788.00000000 21619200.00000000 54341860.00000000 14692.98339844  1397295.00000000 1109582.12500000 
0.10600    33761948.00000000 21377800.00000000 53724368.00000000 14406.55859375  1375002.87500000 1092015.12500000 
0.10700    33374518.00000000 21141342.00000000 53118552.00000000 14123.84375000  1352982.12500000 1074663.50000000 
0.10800    32993258.00000000 20908716.00000000 52522904.00000000 13844.36523438  1331214.37500000 1057500.75000000 
0.10900    32617724.00000000 20679920.00000000 51936244.00000000 13568.29199219  1309650.62500000 1040519.12500000 
0.11000    32247422.00000000 20454412.00000000 51358092.00000000 13295.20410156  1288311.50000000 1023698.43750000 
0.11100    31881780.00000000 20231764.00000000 50787000.00000000 13025.21093750  1267167.00000000 1007015.31250000 
0.11200    31520140.00000000 20011818.00000000 50222916.00000000 12758.07714844  1246179.50000000 990477.43750000 
0.11300    31162070.00000000 19794072.00000000 49664512.00000000 12493.86621094  1225357.87500000 974056.18750000 
0.11400    30807124.00000000 19578320.00000000 49110232.00000000 12232.56250000  1204678.75000000 957744.62500000 
0.11500    30455292.00000000 19364208.00000000 48561324.00000000 11974.03125000  1184154.37500000 941540.56250000 
0.11600    30105412.00000000 19151716.00000000 48015804.00000000 11718.32519531  1163747.50000000 925435.62500000 
0.11700    29757942.00000000 18940398.00000000 47473300.00000000 11465.50292969  1143474.75000000 909433.43750000 
0.11800    29411820.00000000 18730048.00000000 46933576.00000000 11215.40722656  1123325.12500000 893508.56250000 
0.11900    29067466.00000000 18520526.00000000 46395484.00000000 10968.35937500  1103291.75000000 877673.93750000 
0.12000    28723978.00000000 18311532.00000000 45859944.00000000 10724.18164062  1083370.37500000 861925.00000000 
0.12100    28381770.00000000 18103082.00000000 45325392.00000000 10482.96875000  1063569.62500000 846268.62500000 
0.12200    28040074.00000000 17895134.00000000 44791896.00000000 10244.90332031  1043866.12500000 830691.37500000 
0.12300    27699326.00000000 17687332.00000000 44259316.00000000 10009.79492188  1024298.62500000 815190.50000000 
0.12400    27358964.00000000 17479746.00000000 43727052.00000000 9777.89160156   1004844.43750000 799787.37500000 
0.12500    27018706.00000000 17272118.00000000 43195452.00000000 9549.32519531   985519.06250000 784468.12500000 
0.12600    26679128.00000000 17064564.00000000 42664336.00000000 9324.00000000   966312.56250000 769249.06250000 
0.12700    26339754.00000000 16857016.00000000 42133148.00000000 9102.02929688   947244.06250000 754123.00000000 
0.12800    26000308.00000000 16649297.00000000 41601828.00000000 8883.50585938   928306.31250000 739103.50000000 
0.12900    25661568.00000000 16441567.00000000 41070844.00000000 8668.60546875   909521.00000000 724184.12500000 
0.13000    25322798.00000000 16233646.00000000 40539628.00000000 8457.25195312   890882.31250000 709380.12500000 
0.13100    24984160.00000000 16025770.00000000 40008740.00000000 8249.48144531   872396.62500000 694685.93750000 
0.13200    24645868.00000000 15817675.00000000 39477772.00000000 8045.52880859   854074.31250000 680121.43750000 
0.13300    24308144.00000000 15609645.00000000 38947400.00000000 7845.30957031   835922.75000000 665684.87500000 
0.13400    23970642.00000000 15401465.00000000 38417168.00000000 7648.86474609   817953.43750000 651375.12500000 
0.13500    23633708.00000000 15193400.00000000 37887200.00000000 7456.32617188   800172.56250000 637215.25000000 
0.13600    23297422.00000000 14985390.00000000 37357884.00000000 7267.63281250   782573.43750000 623198.25000000 
0.13700    22961690.00000000 14777558.00000000 36829396.00000000 7082.88964844   765183.43750000 609332.12500000 
0.13800    22626824.00000000 14569943.00000000 36301752.00000000 6902.07519531   747994.18750000 595620.68750000 
0.13900    22292948.00000000 14362563.00000000 35775224.00000000 6725.23730469   731021.06250000 582072.68750000 
0.14000    21960220.00000000 14155571.00000000 35250012.00000000 6552.39648438   714265.43750000 568701.93750000 
0.14100    21628458.00000000 13949084.00000000 34726520.00000000 6383.45556641   697737.31250000 555500.68750000 
0.14200    21298274.00000000 13743074.00000000 34204400.00000000 6218.51855469   681441.75000000 542474.50000000 
0.14300    20969278.00000000 13537702.00000000 33684268.00000000 6057.52636719   665380.62500000 529630.25000000 
0.14400    20642066.00000000 13332910.00000000 33166270.00000000 5900.38964844   649557.18750000 516976.75000000 
0.14500    20316530.00000000 13129105.00000000 32651204.00000000 5747.23730469   633991.68750000 504514.46875000 
0.14600    19993034.00000000 12926136.00000000 32138452.00000000 5597.87939453   618673.37500000 492251.09375000 
0.14700    19671536.00000000 12724141.00000000 31628542.00000000 5452.36767578   603607.62500000 480187.90625000 
0.14800    19351984.00000000 12523251.00000000 31121882.00000000 5310.61279297   588798.62500000 468322.65625000 
0.14900    19034892.00000000 12323449.00000000 30618046.00000000 5172.47070312   574252.75000000 456664.40625000 
0.15000    18720242.00000000 12125005.00000000 30118318.00000000 5038.08984375   559967.00000000 445208.56250000 
0.15100    18408218.00000000 11927801.00000000 29621958.00000000 4907.22900391   545944.18750000 433961.18750000 
0.15200    18098880.00000000 11732100.00000000 29129614.00000000 4779.93017578   532192.37500000 422931.96875000 
0.15300    17792398.00000000 11537992.00000000 28641704.00000000 4656.02099609   518708.71875000 412107.03125000 
0.15400    17488654.00000000 11345353.00000000 28157824.00000000 4535.48681641   505486.56250000 401497.06250000 
0.15500    17187988.00000000 11154415.00000000 27678656.00000000 4418.25048828   492531.03125000 391093.96875000 
0.15600    16890342.00000000 10965264.00000000 27204152.00000000 4304.19238281   479843.43750000 380903.40625000 
0.15700    16596405.00000000 10777954.00000000 26734444.00000000 4193.24560547   467427.09375000 370928.75000000 
0.15800    16305461.00000000 10592420.00000000 26269676.00000000 4085.32153320   455263.65625000 361157.46875000 
0.15900    16018082.00000000 10408966.00000000 25810170.00000000 3980.32275391   443366.75000000 351601.75000000 
0.16000    15733952.00000000 10227364.00000000 25355970.00000000 3878.18872070   431727.40625000 342247.75000000 
0.16100    15453561.00000000 10047988.00000000 24907324.00000000 3778.82495117   420350.65625000 333106.09375000 
0.16200    15176662.00000000 9870678.00000000 24464128.00000000 3682.11132812   409224.46875000 324162.34375000 
0.16300    14903590.00000000 9695504.00000000 24026622.00000000 3587.97558594   398347.93750000 315425.93750000 
0.16400    14634188.00000000 9522470.00000000 23595114.00000000 3496.34204102   387722.43750000 306882.68750000 
0.16500    14368411.00000000 9351830.00000000 23168978.00000000 3407.16528320   377337.56250000 298543.40625000 
0.16600    14106560.00000000 9183433.00000000 22748922.00000000 3320.29052734   367196.06250000 290391.28125000 
0.16700    13848534.00000000 9017338.00000000 22334808.00000000 3235.63916016   357284.53125000 282433.84375000 
0.16800    13594349.00000000 8853453.00000000 21926814.00000000 3153.18823242   347608.18750000 274658.21875000 
0.16900    13344084.00000000 8692065.00000000 21524658.00000000 3072.82836914   338159.06250000 267070.46875000 
0.17000    13097603.00000000 8533036.00000000 21128782.00000000 2994.50219727   328934.62500000 259664.12500000 
