# SAXS profile: number of points = 501, q_min = 0, q_max = 0.5, delta_q = 0.001
#    q    intensity 
0.00000    162232688.00000000 101202696.00000000 256270848.00000000 105254.62500000 8264711.00000000 6527495.50000000 
0.00100    162193008.00000000 101174088.00000000 256201328.00000000 105219.10156250 8262213.50000000 6525459.00000000 
0.00200    162064976.00000000 101092680.00000000 255995328.00000000 105111.14843750 8254575.00000000 6519490.50000000 
0.00300    161849280.00000000 100957744.00000000 255650080.00000000 104932.82812500 8241901.50000000 6509516.50000000 
0.00400    161540752.00000000 100767264.00000000 255164608.00000000 104683.60937500 8224187.00000000 6495631.00000000 
0.00500    161141936.00000000 100523744.00000000 254543376.00000000 104363.83593750 8201496.50000000 6477731.50000000 
0.00600    160660368.00000000 100225776.00000000 253787776.00000000 103974.65625000 8173835.00000000 6456049.50000000 
0.00700    160089248.00000000 99876864.00000000 252898928.00000000 103517.10156250 8141328.50000000 6430472.00000000 
0.00800    159436032.00000000 99476448.00000000 251877232.00000000 102991.56250000 8104004.50000000 6401150.00000000 
0.00900    158703552.00000000 99025448.00000000 250725456.00000000 102400.28125000 8061940.00000000 6368066.00000000 
0.01000    157891248.00000000 98523880.00000000 249446432.00000000 101744.46093750 8015274.50000000 6331357.00000000 
0.01100    156997200.00000000 97971584.00000000 248040960.00000000 101025.14062500 7963992.00000000 6291113.00000000 
0.01200    156021840.00000000 97371880.00000000 246511024.00000000 100244.50000000 7908324.00000000 6247380.50000000 
0.01300    154971504.00000000 96724096.00000000 244864192.00000000 99404.89062500  7848411.50000000 6200221.50000000 
0.01400    153848752.00000000 96031336.00000000 243100096.00000000 98507.60156250  7784249.00000000 6149802.00000000 
0.01500    152654400.00000000 95294168.00000000 241221200.00000000 97554.08593750  7716062.00000000 6096207.50000000 
0.01600    151387664.00000000 94514312.00000000 239234320.00000000 96547.49218750  7644031.50000000 6039527.50000000 
0.01700    150055248.00000000 93691688.00000000 237139776.00000000 95490.90625000  7568214.00000000 5979959.00000000 
0.01800    148657344.00000000 92829904.00000000 234944240.00000000 94384.76562500  7488834.00000000 5917484.00000000 
0.01900    147197360.00000000 91928784.00000000 232651136.00000000 93232.39843750  7406006.50000000 5852391.50000000 
0.02000    145676960.00000000 90991552.00000000 230263120.00000000 92036.72656250  7319936.50000000 5784721.00000000 
0.02100    144101552.00000000 90018544.00000000 227786080.00000000 90800.72656250  7230804.50000000 5714591.00000000 
0.02200    142469328.00000000 89011800.00000000 225222864.00000000 89526.19531250  7138788.50000000 5642251.50000000 
0.02300    140788720.00000000 87974624.00000000 222579472.00000000 88216.54687500  7044070.50000000 5567662.00000000 
0.02400    139059296.00000000 86905160.00000000 219861680.00000000 86873.84375000  6946769.00000000 5491137.00000000 
0.02500    137284864.00000000 85809208.00000000 217072608.00000000 85502.59375000  6847152.00000000 5412774.00000000 
0.02600    135467664.00000000 84686448.00000000 214217904.00000000 84102.78906250  6745420.00000000 5332681.00000000 
0.02700    133612808.00000000 83540352.00000000 211300432.00000000 82679.28906250  6641696.00000000 5251048.00000000 
0.02800    131721808.00000000 82371104.00000000 208326928.00000000 81235.17187500  6536209.00000000 5168003.50000000 
0.02900    129799264.00000000 81182584.00000000 205302624.00000000 79772.40625000  6429138.50000000 5083728.00000000 
0.03000    127846864.00000000 79974504.00000000 202231152.00000000 78294.04687500  6320765.50000000 4998363.00000000 
0.03100    125868688.00000000 78750288.00000000 199118048.00000000 76802.19531250  6211088.50000000 4912020.50000000 
0.03200    123866872.00000000 77512192.00000000 195970336.00000000 75300.60937500  6100447.50000000 4824928.50000000 
0.03300    121846224.00000000 76261776.00000000 192790288.00000000 73791.40625000  5989049.00000000 4737163.00000000 
0.03400    119809456.00000000 75000816.00000000 189584736.00000000 72278.19531250  5877003.00000000 4648927.00000000 
0.03500    117758624.00000000 73730992.00000000 186356032.00000000 70762.93750000  5764513.00000000 4560295.50000000 
0.03600    115696936.00000000 72453816.00000000 183111712.00000000 69247.72656250  5651787.00000000 4471466.50000000 
0.03700    113628816.00000000 71171720.00000000 179854896.00000000 67735.29687500  5538943.50000000 4382537.00000000 
0.03800    111556608.00000000 69886120.00000000 176589632.00000000 66227.58593750  5426159.50000000 4293655.00000000 
0.03900    109483088.00000000 68600056.00000000 173324320.00000000 64727.42187500  5313669.50000000 4204975.50000000 
0.04000    107409752.00000000 67313480.00000000 170057888.00000000 63236.96093750  5201526.50000000 4116577.25000000 
0.04100    105340968.00000000 66029652.00000000 166799216.00000000 61757.73046875  5089977.00000000 4028632.50000000 
0.04200    103280192.00000000 64749728.00000000 163550048.00000000 60292.58984375  4979163.00000000 3941199.75000000 
0.04300    101228032.00000000 63475712.00000000 160316000.00000000 58842.71875000  4869171.00000000 3854446.50000000 
0.04400    99188312.00000000 62208192.00000000 157099632.00000000 57410.50781250  4760203.00000000 3768464.75000000 
0.04500    97163256.00000000 60949892.00000000 153905584.00000000 55996.74218750  4652299.50000000 3683338.50000000 
0.04600    95155104.00000000 59700732.00000000 150738240.00000000 54603.48437500  4545690.00000000 3599177.00000000 
0.04700    93165048.00000000 58463276.00000000 147599808.00000000 53232.01562500  4440409.50000000 3516074.50000000 
0.04800    91196968.00000000 57238640.00000000 144494432.00000000 51883.92578125  4336564.50000000 3434105.25000000 
0.04900    89251880.00000000 56027908.00000000 141425328.00000000 50559.99218750  4234329.00000000 3353377.50000000 
0.05000    87331416.00000000 54832096.00000000 138394560.00000000 49261.48828125  4133693.00000000 3273926.50000000 
0.05100    85438176.00000000 53652772.00000000 135406960.00000000 47989.06640625  4034815.50000000 3195828.00000000 
0.05200    83573032.00000000 52490716.00000000 132462232.00000000 46744.08203125  3937736.50000000 3119134.75000000 
0.05300    81737712.00000000 51346860.00000000 129565976.00000000 45526.80468750  3842575.00000000 3043938.25000000 
0.05400    79935048.00000000 50222544.00000000 126717120.00000000 44337.82031250  3749313.00000000 2970246.75000000 
0.05500    78164416.00000000 49118152.00000000 123920776.00000000 43178.19531250  3658082.75000000 2898143.00000000 
0.05600    76428056.00000000 48034676.00000000 121176608.00000000 42047.52343750  3568886.50000000 2827634.75000000 
0.05700    74726976.00000000 46972776.00000000 118488480.00000000 40946.58203125  3481777.50000000 2758749.00000000 
0.05800    73061608.00000000 45932892.00000000 115856520.00000000 39875.35937500  3396760.25000000 2691554.75000000 
0.05900    71432848.00000000 44915768.00000000 113282344.00000000 38833.94921875  3313913.00000000 2626030.25000000 
0.06000    69841912.00000000 43922008.00000000 110767392.00000000 37822.62500000  3233179.00000000 2562216.00000000 
0.06100    68289392.00000000 42951672.00000000 108312880.00000000 36840.51171875  3154670.50000000 2500103.50000000 
0.06200    66775220.00000000 42004908.00000000 105918848.00000000 35888.41406250  3078315.75000000 2439691.00000000 
0.06300    65300952.00000000 41082824.00000000 103586056.00000000 34965.61328125  3004158.75000000 2381019.50000000 
0.06400    63865720.00000000 40185136.00000000 101315960.00000000 34071.33203125  2932152.50000000 2324036.25000000 
0.06500    62469856.00000000 39311876.00000000 99108280.00000000 33205.91015625  2862302.50000000 2268750.50000000 
0.06600    61113664.00000000 38463452.00000000 96962160.00000000 32368.16796875  2794588.00000000 2215190.25000000 
0.06700    59797268.00000000 37639548.00000000 94879568.00000000 31558.25781250  2729002.25000000 2163272.00000000 
0.06800    58520440.00000000 36840176.00000000 92859640.00000000 30775.43945312  2665492.25000000 2113004.25000000 
0.06900    57282940.00000000 36065620.00000000 90901648.00000000 30018.69921875  2604047.50000000 2064388.87500000 
0.07000    56084664.00000000 35315180.00000000 89005192.00000000 29287.62109375  2544629.75000000 2017354.25000000 
0.07100    54925040.00000000 34589384.00000000 87169616.00000000 28581.56250000  2487199.50000000 1971893.12500000 
0.07200    53803528.00000000 33886984.00000000 85394536.00000000 27899.49804688  2431694.25000000 1927952.50000000 
0.07300    52719864.00000000 33208694.00000000 83679896.00000000 27241.03515625  2378115.00000000 1885529.37500000 
0.07400    51673208.00000000 32553774.00000000 82024064.00000000 26605.18164062  2326340.75000000 1844568.62500000 
0.07500    50663412.00000000 31921350.00000000 80425968.00000000 25991.02148438  2276362.00000000 1805027.37500000 
0.07600    49689048.00000000 31311676.00000000 78883784.00000000 25398.00195312  2228153.75000000 1766855.37500000 
0.07700    48750152.00000000 30724168.00000000 77398344.00000000 24825.07226562  2181604.25000000 1730032.50000000 
0.07800    47845232.00000000 30158202.00000000 75966992.00000000 24271.46093750  2136697.50000000 1694501.00000000 
0.07900    46973668.00000000 29613004.00000000 74588424.00000000 23736.47460938  2093355.62500000 1660205.75000000 
0.08000    46134176.00000000 29088598.00000000 73261200.00000000 23218.93750000  2051534.00000000 1627119.87500000 
0.08100    45326932.00000000 28584086.00000000 71985000.00000000 22718.47656250  2011123.50000000 1595178.12500000 
0.08200    44549688.00000000 28098840.00000000 70756888.00000000 22233.88281250  1972131.12500000 1564338.37500000 
0.08300    43802628.00000000 27632558.00000000 69576376.00000000 21764.62109375  1934459.50000000 1534559.25000000 
0.08400    43083272.00000000 27184088.00000000 68440536.00000000 21309.77539062  1898074.50000000 1505806.25000000 
0.08500    42392104.00000000 26753322.00000000 67348744.00000000 20868.59570312  1862878.87500000 1477996.62500000 
0.08600    41726944.00000000 26339280.00000000 66299876.00000000 20440.60937500  1828853.75000000 1451099.62500000 
0.08700    41087480.00000000 25941538.00000000 65290376.00000000 20024.73046875  1795905.87500000 1425078.50000000 
0.08800    40472408.00000000 25559252.00000000 64320460.00000000 19620.55468750  1763988.75000000 1399877.25000000 
0.08900    39880304.00000000 25191664.00000000 63387356.00000000 19227.32617188  1733060.50000000 1375453.62500000 
0.09000    39310420.00000000 24838388.00000000 62490308.00000000 18844.40039062  1703047.87500000 1351771.50000000 
0.09100    38761952.00000000 24498742.00000000 61626520.00000000 18471.32812500  1673893.12500000 1328770.87500000 
0.09200    38232996.00000000 24171568.00000000 60794876.00000000 18106.95507812  1645573.50000000 1306427.37500000 
0.09300    37723520.00000000 23856944.00000000 59993636.00000000 17751.65234375  1618010.37500000 1284691.62500000 
0.09400    37231508.00000000 23553512.00000000 59221292.00000000 17404.27929688  1591173.50000000 1263525.25000000 
0.09500    36756808.00000000 23260992.00000000 58475780.00000000 17064.50000000  1564998.87500000 1242888.87500000 
0.09600    36298072.00000000 22978810.00000000 57756004.00000000 16732.07421875  1539456.00000000 1222753.25000000 
0.09700    35854196.00000000 22706078.00000000 57059880.00000000 16406.49609375  1514498.37500000 1203083.37500000 
0.09800    35424292.00000000 22442418.00000000 56386444.00000000 16087.20117188  1490084.00000000 1183847.12500000 
0.09900    35007856.00000000 22187232.00000000 55733920.00000000 15774.12890625  1466159.87500000 1165009.00000000 
0.10000    34602668.00000000 21939770.00000000 55100136.00000000 15466.54394531  1442718.37500000 1146531.62500000 
0.10100    34209180.00000000 21699420.00000000 54485004.00000000 15164.51367188  1419696.25000000 1128403.12500000 
0.10200    33826028.00000000 21465870.00000000 53886620.00000000 14867.66894531  1397088.50000000 1110599.50000000 
0.10300    33452484.00000000 21238486.00000000 53303440.00000000 14575.84863281  1374844.25000000 1093086.37500000 
0.10400    33087626.00000000 21016526.00000000 52734172.00000000 14288.64843750  1352959.62500000 1075829.00000000 
0.10500    32730990.00000000 20799900.00000000 52177920.00000000 14006.19238281  1331381.25000000 1058827.87500000 
0.10600    32381424.00000000 20587798.00000000 51633176.00000000 13727.93164062  1310092.87500000 1042049.81250000 
0.10700    32038444.00000000 20379976.00000000 51098856.00000000 13453.87695312  1289083.87500000 1025497.75000000 
0.10800    31701560.00000000 20175764.00000000 50574128.00000000 13184.02148438  1268328.00000000 1009139.62500000 
0.10900    31369798.00000000 19975048.00000000 50057836.00000000 12918.13867188  1247807.12500000 992959.62500000 
0.11000    31043074.00000000 19777216.00000000 49548948.00000000 12656.09570312  1227513.12500000 976949.06250000 
0.11100    30720084.00000000 19582012.00000000 49046544.00000000 12397.81054688  1207413.75000000 961101.00000000 
0.11200    30401102.00000000 19388906.00000000 48550104.00000000 12143.37792969  1187511.00000000 945393.62500000 
0.11300    30085244.00000000 19197900.00000000 48058496.00000000 11892.45800781  1167787.87500000 929820.25000000 
0.11400    29771820.00000000 19008562.00000000 47570708.00000000 11645.30859375  1148236.62500000 914382.12500000 
0.11500    29460814.00000000 18820378.00000000 47086780.00000000 11401.71777344  1128856.12500000 899067.56250000 
0.11600    29151986.00000000 18633396.00000000 46605588.00000000 11161.66992188  1109607.50000000 883871.62500000 
0.11700    28844582.00000000 18447262.00000000 46126792.00000000 10925.09667969  1090535.00000000 868780.50000000 
0.11800    28538230.00000000 18261750.00000000 45649736.00000000 10692.10937500  1071606.50000000 853806.37500000 
0.11900    28233026.00000000 18076652.00000000 45174080.00000000 10462.55371094  1052807.50000000 838929.93750000 
0.12000    27928400.00000000 17891680.00000000 44698796.00000000 10236.55859375  1034157.56250000 824160.50000000 
0.12100    27624194.00000000 17706822.00000000 44224732.00000000 10013.95703125  1015653.81250000 809502.37500000 
0.12200    27320392.00000000 17521860.00000000 43750344.00000000 9794.93847656   997287.25000000 794938.87500000 
0.12300    27016654.00000000 17336856.00000000 43275504.00000000 9579.27246094   979052.87500000 780483.56250000 
0.12400    26712660.00000000 17151474.00000000 42800888.00000000 9367.07128906   960965.56250000 766132.37500000 
0.12500    26408708.00000000 16965622.00000000 42325248.00000000 9158.30566406   943014.00000000 751886.06250000 
0.12600    26104236.00000000 16779440.00000000 41848644.00000000 8953.04980469   925212.68750000 737750.31250000 
0.12700    25799484.00000000 16592592.00000000 41370936.00000000 8751.14453125   907557.56250000 723717.75000000 
0.12800    25494280.00000000 16405181.00000000 40892684.00000000 8552.63085938   890038.87500000 709795.81250000 
0.12900    25188612.00000000 16217160.00000000 40413132.00000000 8357.59375000   872690.00000000 695987.18750000 
0.13000    24882502.00000000 16028638.00000000 39932064.00000000 8165.92480469   855486.68750000 682303.62500000 
0.13100    24575852.00000000 15839475.00000000 39450396.00000000 7977.50585938   838445.43750000 668733.50000000 
0.13200    24268684.00000000 15649654.00000000 38966892.00000000 7792.51660156   821558.56250000 655283.93750000 
0.13300    23961080.00000000 15459116.00000000 38482732.00000000 7610.81494141   804843.93750000 641965.56250000 
0.13400    23652990.00000000 15268178.00000000 37997364.00000000 7432.39550781   788298.06250000 628771.31250000 
0.13500    23344892.00000000 15076483.00000000 37511324.00000000 7257.29248047   771928.43750000 615716.50000000 
0.13600    23036222.00000000 14884433.00000000 37023788.00000000 7085.30419922   755735.12500000 602796.68750000 
0.13700    22727302.00000000 14691860.00000000 36536064.00000000 6916.60351562   739724.37500000 590013.43750000 
0.13800    22418250.00000000 14499035.00000000 36047768.00000000 6751.05957031   723892.18750000 577376.87500000 
0.13900    22109504.00000000 14305733.00000000 35558876.00000000 6588.56542969   708256.81250000 564882.56250000 
0.14000    21800682.00000000 14112240.00000000 35069776.00000000 6429.22949219   692808.12500000 552544.75000000 
0.14100    21492330.00000000 13918572.00000000 34581268.00000000 6272.90087891   677565.50000000 540356.75000000 
0.14200    21184142.00000000 13724898.00000000 34092244.00000000 6119.56689453   662507.00000000 528324.06250000 
0.14300    20876504.00000000 13531154.00000000 33604140.00000000 5969.21142578   647663.68750000 516451.37500000 
0.14400    20569344.00000000 13337448.00000000 33116132.00000000 5821.81542969   633025.31250000 504740.21875000 
0.14500    20263092.00000000 13144116.00000000 32629242.00000000 5677.22558594   618587.50000000 493190.87500000 
0.14600    19957716.00000000 12950937.00000000 32143316.00000000 5535.58984375   604365.37500000 481808.03125000 
0.14700    19653650.00000000 12758218.00000000 31659144.00000000 5396.73388672   590358.12500000 470593.43750000 
0.14800    19350380.00000000 12565828.00000000 31175980.00000000 5260.63671875   576561.68750000 459545.65625000 
0.14900    19048584.00000000 12374225.00000000 30695026.00000000 5127.25585938   562983.12500000 448674.15625000 
0.15000    18748520.00000000 12183184.00000000 30215802.00000000 4996.60644531   549619.87500000 437974.46875000 
0.15100    18449818.00000000 11992909.00000000 29739274.00000000 4868.66015625   536480.31250000 427449.71875000 
0.15200    18152880.00000000 11803617.00000000 29265010.00000000 4743.35839844   523563.15625000 417103.28125000 
0.15300    17858164.00000000 11615308.00000000 28793684.00000000 4620.61279297   510872.46875000 406931.06250000 
0.15400    17565244.00000000 11428075.00000000 28325252.00000000 4500.43750000   498397.71875000 396939.43750000 
0.15500    17274704.00000000 11242069.00000000 27860202.00000000 4382.85937500   486146.96875000 387126.28125000 
0.15600    16986318.00000000 11057251.00000000 27398592.00000000 4267.79541016   474123.06250000 377490.34375000 
0.15700    16700730.00000000 10873920.00000000 26940880.00000000 4155.24414062   462325.50000000 368036.40625000 
0.15800    16417445.00000000 10691999.00000000 26486654.00000000 4045.13452148   450750.25000000 358763.43750000 
0.15900    16136976.00000000 10511663.00000000 26036904.00000000 3937.54223633   439404.43750000 349670.68750000 
0.16000    15859161.00000000 10332974.00000000 25591466.00000000 3832.37988281   428280.00000000 340754.56250000 
0.16100    15584689.00000000 10156069.00000000 25150520.00000000 3729.68725586   417382.84375000 332026.09375000 
0.16200    15313145.00000000 9980859.00000000 24714366.00000000 3629.40551758   406707.00000000 323470.71875000 
0.16300    15044620.00000000 9807617.00000000 24283056.00000000 3531.51464844   396257.56250000 315099.40625000 
0.16400    14779492.00000000 9636341.00000000 23856816.00000000 3436.03417969   386029.90625000 306903.28125000 
0.16500    14517644.00000000 9467074.00000000 23435940.00000000 3342.96948242   376027.34375000 298883.09375000 
0.16600    14259398.00000000 9299899.00000000 23020456.00000000 3252.22216797   366244.12500000 291046.15625000 
0.16700    14004579.00000000 9134884.00000000 22610498.00000000 3163.88061523   356681.18750000 283382.81250000 
0.16800    13753390.00000000 8972069.00000000 22205764.00000000 3077.85083008   347331.03125000 275891.87500000 
0.16900    13505832.00000000 8811602.00000000 21807338.00000000 2994.21923828   338202.78125000 268581.00000000 
0.17000    13262028.00000000 8653353.00000000 21414596.00000000 2912.88598633   329290.65625000 261437.87500000 
