# SAXS profile: number of points = 501, q_min = 0, q_max = 0.5, delta_q = 0.001
#    q    intensity 
0.00000    162235632.00000000 101202320.00000000 256271392.00000000 107627.19531250 8357365.50000000 6600608.50000000 
0.00100    162203888.00000000 101180944.00000000 256217552.00000000 107597.42968750 8355325.50000000 6599028.50000000 
0.00200    162105584.00000000 101118968.00000000 256060752.00000000 107508.00781250 8349216.00000000 6594190.00000000 
0.00300    161939760.00000000 101015968.00000000 255796448.00000000 107359.55468750 8338996.50000000 6586230.50000000 
0.00400    161705056.00000000 100871720.00000000 255427632.00000000 107152.23437500 8324759.00000000 6575019.50000000 
0.00500    161401216.00000000 100685800.00000000 254955376.00000000 106886.25000000 8306465.00000000 6560656.50000000 
0.00600    161031712.00000000 100459088.00000000 254377280.00000000 106561.97656250 8284149.50000000 6543143.50000000 
0.00700    160598656.00000000 100192560.00000000 253697088.00000000 106179.90625000 8257893.50000000 6522505.50000000 
0.00800    160098112.00000000 99886088.00000000 252916352.00000000 105741.34375000 8227731.00000000 6498818.50000000 
0.00900    159532912.00000000 99540568.00000000 252033632.00000000 105247.00781250 8193649.00000000 6472060.50000000 
0.01000    158904752.00000000 99155840.00000000 251049760.00000000 104696.42187500 8155767.50000000 6442309.00000000 
0.01100    158216432.00000000 98732848.00000000 249969296.00000000 104092.06250000 8114111.50000000 6409641.50000000 
0.01200    157465584.00000000 98271472.00000000 248791120.00000000 103434.30468750 8068785.00000000 6374049.00000000 
0.01300    156655152.00000000 97772360.00000000 247517728.00000000 102725.68750000 8019855.50000000 6335551.00000000 
0.01400    155782896.00000000 97236808.00000000 246152160.00000000 101964.78125000 7967332.00000000 6294346.00000000 
0.01500    154851760.00000000 96665448.00000000 244694320.00000000 101154.82031250 7911371.50000000 6250384.50000000 
0.01600    153864720.00000000 96058336.00000000 243146400.00000000 100297.14843750 7852016.00000000 6203736.50000000 
0.01700    152822720.00000000 95418136.00000000 241511808.00000000 99392.85937500  7789394.50000000 6154573.50000000 
0.01800    151726112.00000000 94744856.00000000 239792368.00000000 98442.88281250  7723576.50000000 6102870.00000000 
0.01900    150575664.00000000 94037784.00000000 237990720.00000000 97450.78125000  7654686.50000000 6048748.50000000 
0.02000    149375936.00000000 93300128.00000000 236108400.00000000 96415.83593750  7582832.00000000 5992291.50000000 
0.02100    148126512.00000000 92532072.00000000 234148720.00000000 95341.27343750  7508078.50000000 5933577.50000000 
0.02200    146827488.00000000 91733448.00000000 232111056.00000000 94228.67968750  7430606.50000000 5872681.50000000 
0.02300    145484544.00000000 90907384.00000000 230004720.00000000 93079.50781250  7350503.00000000 5809739.50000000 
0.02400    144096048.00000000 90053920.00000000 227826880.00000000 91895.98437500  7267850.50000000 5744796.50000000 
0.02500    142665600.00000000 89173416.00000000 225581232.00000000 90679.57812500  7182810.00000000 5677976.50000000 
0.02600    141194352.00000000 88268200.00000000 223274432.00000000 89433.43750000  7095488.00000000 5609335.00000000 
0.02700    139683648.00000000 87339440.00000000 220905120.00000000 88158.26562500  7006091.50000000 5539077.00000000 
0.02800    138137536.00000000 86387128.00000000 218478352.00000000 86856.42187500  6914598.00000000 5467147.00000000 
0.02900    136556928.00000000 85413568.00000000 215997008.00000000 85530.31250000  6821271.50000000 5393771.00000000 
0.03000    134943440.00000000 84419552.00000000 213462960.00000000 84181.43750000  6726157.50000000 5319011.50000000 
0.03100    133297352.00000000 83406696.00000000 210882240.00000000 82812.22656250  6629475.00000000 5242980.50000000 
0.03200    131624208.00000000 82375656.00000000 208254960.00000000 81424.67187500  6531252.00000000 5165755.00000000 
0.03300    129924400.00000000 81328488.00000000 205585632.00000000 80020.68750000  6431721.50000000 5087471.50000000 
0.03400    128199736.00000000 80265016.00000000 202877984.00000000 78602.35156250  6330947.00000000 5008208.00000000 
0.03500    126452272.00000000 79188304.00000000 200134176.00000000 77172.91406250  6229119.50000000 4928087.00000000 
0.03600    124685096.00000000 78098416.00000000 197358400.00000000 75731.81250000  6126331.50000000 4847207.00000000 
0.03700    122899632.00000000 76996776.00000000 194552256.00000000 74283.37500000  6022708.00000000 4765685.50000000 
0.03800    121097432.00000000 75885096.00000000 191722480.00000000 72828.05468750  5918426.00000000 4683623.00000000 
0.03900    119281184.00000000 74764632.00000000 188869072.00000000 71369.67187500  5813586.50000000 4601136.00000000 
0.04000    117453600.00000000 73635992.00000000 185995456.00000000 69908.16406250  5708292.00000000 4518263.50000000 
0.04100    115614184.00000000 72500992.00000000 183105344.00000000 68446.33593750  5602730.50000000 4435186.00000000 
0.04200    113767584.00000000 71360160.00000000 180203232.00000000 66985.92187500  5496995.50000000 4351885.50000000 
0.04300    111915120.00000000 70215336.00000000 177289232.00000000 65528.92187500  5391163.50000000 4268598.00000000 
0.04400    110057648.00000000 69066928.00000000 174368016.00000000 64076.51953125  5285432.50000000 4185291.75000000 
0.04500    108198136.00000000 67917648.00000000 171444080.00000000 62630.85156250  5179841.50000000 4102156.75000000 
0.04600    106338112.00000000 66766936.00000000 168518608.00000000 61193.38281250  5074631.50000000 4019238.25000000 
0.04700    104479280.00000000 65616816.00000000 165594448.00000000 59765.73437500  4969746.00000000 3936613.75000000 
0.04800    102623560.00000000 64468504.00000000 162673584.00000000 58349.46093750  4865404.50000000 3854386.00000000 
0.04900    100773240.00000000 63322864.00000000 159762448.00000000 56945.83203125  4761689.00000000 3772659.50000000 
0.05000    98929080.00000000 62180716.00000000 156858864.00000000 55556.85937500  4658695.00000000 3691479.25000000 
0.05100    97093560.00000000 61043340.00000000 153969648.00000000 54182.84375000  4556469.50000000 3610904.50000000 
0.05200    95267120.00000000 59911756.00000000 151092976.00000000 52825.70312500  4455225.00000000 3531046.75000000 
0.05300    93452720.00000000 58786760.00000000 148235856.00000000 51486.81640625  4354922.50000000 3451971.00000000 
0.05400    91650904.00000000 57669220.00000000 145398416.00000000 50166.76171875  4255737.00000000 3373700.50000000 
0.05500    89864016.00000000 56560296.00000000 142582256.00000000 48866.73437500  4157652.25000000 3296338.75000000 
0.05600    88091984.00000000 55460432.00000000 139789888.00000000 47588.09765625  4060829.25000000 3219963.50000000 
0.05700    86337504.00000000 54370840.00000000 137023696.00000000 46331.37890625  3965348.75000000 3144593.50000000 
0.05800    84600648.00000000 53292032.00000000 134287424.00000000 45097.09375000  3871190.25000000 3070283.25000000 
0.05900    82883632.00000000 52225080.00000000 131581088.00000000 43886.19531250  3778469.00000000 2997087.00000000 
0.06000    81187816.00000000 51170012.00000000 128905496.00000000 42699.89843750  3687270.00000000 2925064.50000000 
0.06100    79513248.00000000 50127996.00000000 126263816.00000000 41538.03906250  3597583.50000000 2854216.75000000 
0.06200    77861368.00000000 49100544.00000000 123657072.00000000 40401.71484375  3509493.00000000 2784654.25000000 
0.06300    76232488.00000000 48086740.00000000 121087312.00000000 39290.93359375  3423048.00000000 2716340.50000000 
0.06400    74628520.00000000 47087728.00000000 118554816.00000000 38206.30078125  3338254.50000000 2649339.75000000 
0.06500    73049408.00000000 46103684.00000000 116062912.00000000 37148.34765625  3255191.50000000 2583664.75000000 
0.06600    71496440.00000000 45136348.00000000 113610384.00000000 36116.54687500  3173844.25000000 2519364.75000000 
0.06700    69970856.00000000 44184364.00000000 111200328.00000000 35111.64453125  3094267.25000000 2456453.50000000 
0.06800    68471960.00000000 43249244.00000000 108832008.00000000 34133.67187500  3016474.25000000 2394915.25000000 
0.06900    67000560.00000000 42330840.00000000 106507616.00000000 33182.94531250  2940480.25000000 2334798.00000000 
0.07000    65557724.00000000 41430240.00000000 104226896.00000000 32258.82226562  2866293.00000000 2276104.75000000 
0.07100    64143708.00000000 40546776.00000000 101991888.00000000 31361.66015625  2793944.00000000 2218829.25000000 
0.07200    62758740.00000000 39680780.00000000 99801264.00000000 30491.03320312  2723393.00000000 2163011.75000000 
0.07300    61402740.00000000 38832944.00000000 97657248.00000000 29646.98632812  2654690.00000000 2108603.00000000 
0.07400    60076368.00000000 38003372.00000000 95559032.00000000 28829.38867188  2587815.50000000 2055630.00000000 
0.07500    58779776.00000000 37191856.00000000 93507352.00000000 28037.46679688  2522724.25000000 2004082.00000000 
0.07600    57512936.00000000 36398516.00000000 91502480.00000000 27271.41210938  2459458.75000000 1953960.62500000 
0.07700    56276048.00000000 35623524.00000000 89544280.00000000 26530.49023438  2398022.00000000 1905251.12500000 
0.07800    55069052.00000000 34867172.00000000 87633584.00000000 25814.25390625  2338316.50000000 1857938.62500000 
0.07900    53891828.00000000 34129360.00000000 85768792.00000000 25122.58593750  2280396.25000000 1812014.25000000 
0.08000    52744332.00000000 33409504.00000000 83951408.00000000 24454.57421875  2224201.50000000 1767459.50000000 
0.08100    51626588.00000000 32707814.00000000 82180312.00000000 23810.14453125  2169720.50000000 1724250.37500000 
0.08200    50537856.00000000 32024600.00000000 80454864.00000000 23188.25585938  2116922.25000000 1682364.00000000 
0.08300    49478308.00000000 31359246.00000000 78775976.00000000 22588.67968750  2065780.50000000 1641790.12500000 
0.08400    48447912.00000000 30711976.00000000 77142080.00000000 22010.47265625  2016258.87500000 1602488.12500000 
0.08500    47445776.00000000 30082376.00000000 75553056.00000000 21453.44726562  1968334.00000000 1564448.75000000 
0.08600    46472100.00000000 29469996.00000000 74009168.00000000 20916.70703125  1921956.00000000 1527624.12500000 
0.08700    45525972.00000000 28875074.00000000 72507936.00000000 20399.44921875  1877110.25000000 1492009.12500000 
0.08800    44607208.00000000 28297060.00000000 71050320.00000000 19901.17773438  1833725.75000000 1457557.25000000 
0.08900    43715684.00000000 27735698.00000000 69635616.00000000 19421.20507812  1791796.50000000 1424245.87500000 
0.09000    42849884.00000000 27190806.00000000 68261704.00000000 18958.82031250  1751254.87500000 1392028.37500000 
0.09100    42010248.00000000 26662102.00000000 66929856.00000000 18513.41015625  1712066.25000000 1360894.00000000 
0.09200    41196232.00000000 26149092.00000000 65637040.00000000 18084.06250000  1674191.12500000 1330796.75000000 
0.09300    40406572.00000000 25651904.00000000 64383584.00000000 17670.42968750  1637583.87500000 1301703.50000000 
0.09400    39641320.00000000 25169334.00000000 63168416.00000000 17271.43554688  1602200.75000000 1273568.12500000 
0.09500    38899356.00000000 24701678.00000000 61990208.00000000 16886.50585938  1568002.50000000 1246374.50000000 
0.09600    38180404.00000000 24248610.00000000 60848604.00000000 16515.16210938  1534936.12500000 1220071.12500000 
0.09700    37483716.00000000 23809492.00000000 59742520.00000000 16156.63476562  1502955.50000000 1194648.12500000 
0.09800    36808748.00000000 23384014.00000000 58670464.00000000 15810.20898438  1472039.87500000 1170056.62500000 
0.09900    36154604.00000000 22971488.00000000 57631612.00000000 15475.33105469  1442118.50000000 1146260.12500000 
0.10000    35521024.00000000 22571980.00000000 56625144.00000000 15151.21191406  1413145.25000000 1123225.87500000 
0.10100    34906784.00000000 22184746.00000000 55649872.00000000 14837.49609375  1385104.37500000 1100905.12500000 
0.10200    34311872.00000000 21809736.00000000 54704724.00000000 14533.25488281  1357922.12500000 1079286.12500000 
0.10300    33734960.00000000 21446182.00000000 53788988.00000000 14238.22265625  1331564.50000000 1058329.25000000 
0.10400    33175860.00000000 21093724.00000000 52900568.00000000 13951.74511719  1306007.87500000 1038004.81250000 
0.10500    32633794.00000000 20752092.00000000 52040032.00000000 13673.18750000  1281195.50000000 1018263.00000000 
0.10600    32107876.00000000 20420756.00000000 51205040.00000000 13402.09179688  1257087.62500000 999090.81250000 
0.10700    31597536.00000000 20099356.00000000 50395352.00000000 13138.12207031  1233665.87500000 980450.18750000 
0.10800    31102270.00000000 19787564.00000000 49608972.00000000 12880.61816406  1210862.37500000 962315.31250000 
0.10900    30621320.00000000 19484722.00000000 48845716.00000000 12629.27343750  1188646.12500000 944654.93750000 
0.11000    30154168.00000000 19190642.00000000 48104552.00000000 12383.50976562  1166996.75000000 927437.75000000 
0.11100    29699682.00000000 18904932.00000000 47383944.00000000 12143.08984375  1145884.12500000 910644.87500000 
0.11200    29257986.00000000 18627218.00000000 46682748.00000000 11907.48730469  1125247.00000000 894252.06250000 
0.11300    28827860.00000000 18356908.00000000 46001036.00000000 11676.60351562  1105090.62500000 878224.25000000 
0.11400    28409134.00000000 18093922.00000000 45337084.00000000 11449.86230469  1085362.12500000 862541.56250000 
0.11500    28001002.00000000 17837820.00000000 44690384.00000000 11227.05371094  1066047.00000000 847185.37500000 
0.11600    27602718.00000000 17588168.00000000 44059848.00000000 11007.93066406  1047103.93750000 832134.56250000 
0.11700    27214396.00000000 17344550.00000000 43444440.00000000 10792.27832031  1028513.93750000 817362.56250000 
0.11800    26834842.00000000 17106744.00000000 42843404.00000000 10579.67187500  1010251.00000000 802850.12500000 
0.11900    26463828.00000000 16874438.00000000 42255784.00000000 10370.12500000  992296.25000000 788586.00000000 
0.12000    26100514.00000000 16647228.00000000 41681588.00000000 10163.37792969  974621.87500000 774552.31250000 
0.12100    25745176.00000000 16424997.00000000 41119448.00000000 9959.33886719   957223.12500000 760735.37500000 
0.12200    25396754.00000000 16207380.00000000 40568104.00000000 9757.69140625   940069.31250000 747113.00000000 
0.12300    25054892.00000000 15993833.00000000 40027852.00000000 9558.44433594   923146.62500000 733676.68750000 
0.12400    24719460.00000000 15784388.00000000 39497340.00000000 9361.43847656   906436.43750000 720415.31250000 
0.12500    24389558.00000000 15578734.00000000 38976508.00000000 9166.54296875   889930.18750000 707306.87500000 
0.12600    24065400.00000000 15376631.00000000 38464680.00000000 8973.84667969   873627.56250000 694362.75000000 
0.12700    23746184.00000000 15177833.00000000 37960504.00000000 8783.18652344   857489.56250000 681552.56250000 
0.12800    23431844.00000000 14982139.00000000 37464372.00000000 8594.42480469   841526.06250000 668883.00000000 
0.12900    23121788.00000000 14789204.00000000 36975168.00000000 8407.77441406   825727.43750000 656334.81250000 
0.13000    22815924.00000000 14598986.00000000 36492756.00000000 8222.95703125   810078.12500000 643912.00000000 
0.13100    22513878.00000000 14411160.00000000 36016108.00000000 8040.16162109   794566.12500000 631603.81250000 
0.13200    22215570.00000000 14225906.00000000 35545612.00000000 7859.26171875   779203.25000000 619409.18750000 
0.13300    21920686.00000000 14042597.00000000 35080544.00000000 7680.41894531   763970.50000000 607322.31250000 
0.13400    21628734.00000000 13861290.00000000 34620408.00000000 7503.50781250   748875.31250000 595335.18750000 
0.13500    21339838.00000000 13681937.00000000 34165128.00000000 7328.66650391   733905.68750000 583454.12500000 
0.13600    21053584.00000000 13504290.00000000 33713884.00000000 7155.89892578   719070.06250000 571672.68750000 
0.13700    20770072.00000000 13328376.00000000 33266940.00000000 6985.18017578   704353.25000000 559995.68750000 
0.13800    20488890.00000000 13153838.00000000 32823956.00000000 6816.65136719   689767.62500000 548408.00000000 
0.13900    20210132.00000000 12980877.00000000 32384472.00000000 6650.34521484   675309.18750000 536930.00000000 
0.14000    19933510.00000000 12809096.00000000 31948340.00000000 6486.29833984   660984.12500000 525547.68750000 
0.14100    19658942.00000000 12638754.00000000 31515684.00000000 6324.57080078   646784.93750000 514266.96875000 
0.14200    19386256.00000000 12469493.00000000 31085858.00000000 6165.24121094   632713.87500000 503094.15625000 
0.14300    19115538.00000000 12301493.00000000 30659244.00000000 6008.39160156   618783.56250000 492025.46875000 
0.14400    18846698.00000000 12134395.00000000 30235262.00000000 5853.94580078   604985.93750000 481058.75000000 
0.14500    18579666.00000000 11968514.00000000 29814082.00000000 5702.08593750   591331.93750000 470207.00000000 
0.14600    18314242.00000000 11803597.00000000 29395702.00000000 5552.86035156   577821.37500000 459468.71875000 
0.14700    18050780.00000000 11639693.00000000 28979890.00000000 5406.29248047   564463.06250000 448845.96875000 
0.14800    17788526.00000000 11476774.00000000 28566646.00000000 5262.43408203   551246.81250000 438341.59375000 
0.14900    17528528.00000000 11314829.00000000 28155650.00000000 5121.31396484   538193.43750000 427958.62500000 
0.15000    17269676.00000000 11153768.00000000 27747608.00000000 4983.02099609   525304.37500000 417701.00000000 
0.15100    17012836.00000000 10993682.00000000 27341612.00000000 4847.51953125   512571.37500000 407574.84375000 
0.15200    16757614.00000000 10834565.00000000 26938746.00000000 4714.96386719   500015.78125000 397581.21875000 
0.15300    16504113.00000000 10676410.00000000 26538062.00000000 4585.28222656   487629.59375000 387722.53125000 
0.15400    16252238.00000000 10519204.00000000 26140018.00000000 4458.50000000   475424.03125000 378002.25000000 
0.15500    16002205.00000000 10363001.00000000 25744732.00000000 4334.70751953   463393.81250000 368425.46875000 
0.15600    15754038.00000000 10207857.00000000 25352134.00000000 4213.84082031   451551.68750000 358993.21875000 
0.15700    15507718.00000000 10053644.00000000 24962386.00000000 4096.01855469   439905.40625000 349714.53125000 
0.15800    15263199.00000000 9900546.00000000 24575284.00000000 3981.10180664   428445.34375000 340580.93750000 
0.15900    15020702.00000000 9748511.00000000 24191158.00000000 3869.21191406   417183.34375000 331608.43750000 
0.16000    14780112.00000000 9597594.00000000 23809840.00000000 3760.24389648   406118.87500000 322787.71875000 
0.16100    14541672.00000000 9447852.00000000 23431884.00000000 3654.32373047   395259.71875000 314133.40625000 
0.16200    14305188.00000000 9299316.00000000 23057024.00000000 3551.29956055   384604.21875000 305635.78125000 
0.16300    14070973.00000000 9151934.00000000 22685334.00000000 3451.17993164   374160.03125000 297302.96875000 
0.16400    13838920.00000000 9005832.00000000 22317014.00000000 3354.01660156   363922.87500000 289136.71875000 
0.16500    13609184.00000000 8860893.00000000 21952194.00000000 3259.67431641   353896.96875000 281138.65625000 
0.16600    13381820.00000000 8717437.00000000 21590876.00000000 3168.21044922   344086.43750000 273307.06250000 
0.16700    13156710.00000000 8575279.00000000 21232892.00000000 3079.50268555   334485.03125000 265645.96875000 
0.16800    12934030.00000000 8434453.00000000 20878802.00000000 2993.50585938   325099.34375000 258153.64062500 
0.16900    12714026.00000000 8295136.00000000 20528560.00000000 2910.30664062   315932.15625000 250835.23437500 
0.17000    12496410.00000000 8157245.50000000 20182052.00000000 2829.70214844   306981.03125000 243685.90625000 
