# SAXS profile: number of points = 501, q_min = 0, q_max = 0.5, delta_q = 0.001
#    q    intensity 
0.00000    162230368.00000000 101202136.00000000 256270128.00000000 101863.91406250 8130498.00000000 6421426.50000000 
0.00100    162188736.00000000 101172824.00000000 256195600.00000000 101824.60156250 8127736.50000000 6419301.00000000 
0.00200    162056096.00000000 101085880.00000000 255974944.00000000 101708.07812500 8119525.00000000 6412794.00000000 
0.00300    161828496.00000000 100942608.00000000 255607136.00000000 101514.30468750 8105859.50000000 6402034.50000000 
0.00400    161497424.00000000 100739536.00000000 255093696.00000000 101243.75000000 8086691.50000000 6386998.50000000 
0.00500    161072032.00000000 100477856.00000000 254429968.00000000 100897.12500000 8062141.00000000 6367716.50000000 
0.00600    160557360.00000000 100162424.00000000 253628976.00000000 100475.50781250 8032271.00000000 6344273.00000000 
0.00700    159946368.00000000 99792288.00000000 252683360.00000000 99980.20312500  7997209.00000000 6316682.50000000 
0.00800    159254912.00000000 99368056.00000000 251596416.00000000 99412.85937500  7956979.50000000 6285071.50000000 
0.00900    158479712.00000000 98889024.00000000 250373312.00000000 98774.99218750  7911681.00000000 6249473.00000000 
0.01000    157618048.00000000 98355368.00000000 249015024.00000000 98068.30468750  7861473.50000000 6210039.50000000 
0.01100    156666672.00000000 97769856.00000000 247526192.00000000 97294.76562500  7806476.00000000 6166783.00000000 
0.01200    155636000.00000000 97133696.00000000 245909184.00000000 96456.32812500  7746862.50000000 6119859.50000000 
0.01300    154527648.00000000 96450368.00000000 244167456.00000000 95555.97656250  7682705.50000000 6069463.00000000 
0.01400    153339520.00000000 95719696.00000000 242303776.00000000 94596.80468750  7614171.50000000 6015584.00000000 
0.01500    152078704.00000000 94942560.00000000 240322480.00000000 93579.07812500  7541545.50000000 5958446.50000000 
0.01600    150747888.00000000 94120824.00000000 238230640.00000000 92509.50000000  7464908.50000000 5898202.50000000 
0.01700    149345760.00000000 93256528.00000000 236029168.00000000 91387.85156250  7384427.50000000 5834919.50000000 
0.01800    147878400.00000000 92352552.00000000 233725328.00000000 90217.38281250  7300381.00000000 5768834.50000000 
0.01900    146348608.00000000 91408352.00000000 231323104.00000000 89002.38281250  7212905.00000000 5700015.50000000 
0.02000    144759600.00000000 90428040.00000000 228824000.00000000 87745.08593750  7122230.00000000 5628679.00000000 
0.02100    143114096.00000000 89412368.00000000 226238992.00000000 86449.96093750  7028617.50000000 5555020.00000000 
0.02200    141416608.00000000 88363872.00000000 223571744.00000000 85119.30468750  6932224.00000000 5479156.50000000 
0.02300    139670032.00000000 87283472.00000000 220826592.00000000 83756.46875000  6833244.50000000 5401299.00000000 
0.02400    137877936.00000000 86176664.00000000 218006592.00000000 82365.92187500  6731996.50000000 5321597.00000000 
0.02500    136041824.00000000 85040784.00000000 215120336.00000000 80949.17187500  6628661.50000000 5240240.00000000 
0.02600    134168416.00000000 83882624.00000000 212173184.00000000 79510.75781250  6523426.00000000 5157384.00000000 
0.02700    132259288.00000000 82701064.00000000 209170048.00000000 78054.45312500  6416533.00000000 5073221.00000000 
0.02800    130318096.00000000 81500104.00000000 206116432.00000000 76582.95312500  6308210.00000000 4987916.50000000 
0.02900    128349480.00000000 80282128.00000000 203019104.00000000 75098.35937500  6198776.50000000 4901714.00000000 
0.03000    126357040.00000000 79048864.00000000 199882336.00000000 73606.40625000  6088266.00000000 4814682.00000000 
0.03100    124343392.00000000 77801520.00000000 196711824.00000000 72108.55468750  5977038.50000000 4727039.00000000 
0.03200    122311784.00000000 76542896.00000000 193512736.00000000 70607.91406250  5865226.50000000 4638944.00000000 
0.03300    120267016.00000000 75274528.00000000 190293392.00000000 69107.57031250  5753078.00000000 4550541.00000000 
0.03400    118210696.00000000 73999568.00000000 187054448.00000000 67610.25781250  5640754.50000000 4462011.50000000 
0.03500    116147960.00000000 72719016.00000000 183805392.00000000 66119.65625000  5528467.50000000 4373472.50000000 
0.03600    114081312.00000000 71436448.00000000 180547728.00000000 64636.13281250  5416449.50000000 4285149.00000000 
0.03700    112014176.00000000 70152064.00000000 177289456.00000000 63164.44921875  5304825.00000000 4197071.50000000 
0.03800    109949672.00000000 68869312.00000000 174033328.00000000 61705.50390625  5193756.00000000 4109482.25000000 
0.03900    107890176.00000000 67589712.00000000 170786288.00000000 60262.03515625  5083533.00000000 4022489.75000000 
0.04000    105838704.00000000 66313164.00000000 167549760.00000000 58836.55468750  4974168.50000000 3936160.75000000 
0.04100    103798944.00000000 65043420.00000000 164330400.00000000 57430.53125000  4865833.00000000 3850689.75000000 
0.04200    101771848.00000000 63781800.00000000 161132384.00000000 56045.87109375  4758766.00000000 3766156.75000000 
0.04300    99761672.00000000 62529812.00000000 157960560.00000000 54683.99218750  4653024.50000000 3682652.00000000 
0.04400    97769736.00000000 61289332.00000000 154816528.00000000 53346.37500000  4548744.00000000 3600281.25000000 
0.04500    95799560.00000000 60060732.00000000 151704096.00000000 52034.38281250  4445994.50000000 3519130.50000000 
0.04600    93850952.00000000 58846116.00000000 148627200.00000000 50748.76562500  4344949.50000000 3439267.00000000 
0.04700    91928160.00000000 57646708.00000000 145590544.00000000 49491.17187500  4245624.00000000 3360846.00000000 
0.04800    90032472.00000000 56463256.00000000 142595328.00000000 48262.67578125  4148193.00000000 3283823.00000000 
0.04900    88164968.00000000 55297816.00000000 139644656.00000000 47063.02343750  4052659.25000000 3208332.25000000 
0.05000    86328384.00000000 54150412.00000000 136741248.00000000 45893.43359375  3959122.25000000 3134346.75000000 
0.05100    84523752.00000000 53022740.00000000 133888272.00000000 44754.23046875  3867658.00000000 3062048.75000000 
0.05200    82751200.00000000 51914864.00000000 131087496.00000000 43645.32421875  3778251.00000000 2991324.50000000 
0.05300    81014688.00000000 50828080.00000000 128339008.00000000 42567.51953125  3690974.75000000 2922292.75000000 
0.05400    79311448.00000000 49763364.00000000 125645808.00000000 41520.39062500  3605857.75000000 2854984.00000000 
0.05500    77645448.00000000 48720832.00000000 123009376.00000000 40504.05468750  3522923.00000000 2789356.75000000 
0.05600    76016000.00000000 47701156.00000000 120432072.00000000 39518.43750000  3442187.00000000 2725476.50000000 
0.05700    74424440.00000000 46704888.00000000 117912928.00000000 38563.11328125  3363643.50000000 2663313.75000000 
0.05800    72871232.00000000 45731652.00000000 115454256.00000000 37637.71875000  3287311.00000000 2602894.50000000 
0.05900    71356536.00000000 44782808.00000000 113055848.00000000 36741.60937500  3213152.50000000 2544199.25000000 
0.06000    69880696.00000000 43857864.00000000 110719360.00000000 35874.03125000  3141142.75000000 2487198.50000000 
0.06100    68442792.00000000 42957456.00000000 108444768.00000000 35035.46484375  3071335.50000000 2431939.50000000 
0.06200    67045148.00000000 42081068.00000000 106230856.00000000 34224.36328125  3003617.25000000 2378319.25000000 
0.06300    65686228.00000000 41229028.00000000 104080120.00000000 33439.86718750  2938019.75000000 2326408.50000000 
0.06400    64366344.00000000 40401816.00000000 101988016.00000000 32681.82421875  2874437.75000000 2276074.25000000 
0.06500    63084432.00000000 39598676.00000000 99958896.00000000 31948.60156250  2812881.50000000 2227366.00000000 
0.06600    61841476.00000000 38819320.00000000 97991064.00000000 31240.07617188  2753322.75000000 2180192.00000000 
0.06700    60635804.00000000 38063708.00000000 96082520.00000000 30555.20312500  2695636.75000000 2134554.25000000 
0.06800    59467940.00000000 37331776.00000000 94233360.00000000 29892.63085938  2639866.00000000 2090423.00000000 
0.06900    58336584.00000000 36622984.00000000 92442760.00000000 29252.05468750  2585887.75000000 2047702.12500000 
0.07000    57241496.00000000 35937316.00000000 90709008.00000000 28632.23828125  2533664.25000000 2006378.62500000 
0.07100    56182032.00000000 35273724.00000000 89030984.00000000 28031.97070312  2483142.00000000 1966411.87500000 
0.07200    55156968.00000000 34632384.00000000 87410392.00000000 27450.75781250  2434269.75000000 1927751.37500000 
0.07300    54165584.00000000 34012152.00000000 85841928.00000000 26887.52929688  2386949.25000000 1890344.50000000 
0.07400    53207464.00000000 33413892.00000000 84326864.00000000 26341.40429688  2341180.75000000 1854148.25000000 
0.07500    52281536.00000000 32835344.00000000 82862536.00000000 25811.58007812  2296813.00000000 1819110.62500000 
0.07600    51386472.00000000 32276590.00000000 81448512.00000000 25296.80468750  2253878.25000000 1785160.75000000 
0.07700    50521588.00000000 31737106.00000000 80082112.00000000 24796.62109375  2212264.50000000 1752285.12500000 
0.07800    49686236.00000000 31216564.00000000 78762840.00000000 24310.15039062  2171924.50000000 1720424.00000000 
0.07900    48879024.00000000 30713608.00000000 77489288.00000000 23836.56054688  2132757.25000000 1689517.25000000 
0.08000    48099340.00000000 30228182.00000000 76258808.00000000 23375.00976562  2094781.75000000 1659543.00000000 
0.08100    47345304.00000000 29759944.00000000 75070088.00000000 22925.01171875  2057891.37500000 1630424.50000000 
0.08200    46616808.00000000 29307348.00000000 73922904.00000000 22485.76562500  2022011.00000000 1602135.12500000 
0.08300    45912448.00000000 28870496.00000000 72812728.00000000 22056.47070312  1987137.37500000 1574623.25000000 
0.08400    45230976.00000000 28448574.00000000 71739944.00000000 21636.92773438  1953162.87500000 1547848.62500000 
0.08500    44572260.00000000 28040726.00000000 70702480.00000000 21226.26953125  1920068.75000000 1521778.62500000 
0.08600    43933756.00000000 27646362.00000000 69698512.00000000 20824.14453125  1887808.87500000 1496352.75000000 
0.08700    43315272.00000000 27265052.00000000 68727712.00000000 20429.85546875  1856305.62500000 1471557.12500000 
0.08800    42716400.00000000 26895862.00000000 67787536.00000000 20043.14453125  1825559.87500000 1447337.37500000 
0.08900    42135280.00000000 26538270.00000000 66874988.00000000 19663.39062500  1795479.62500000 1423669.87500000 
0.09000    41571216.00000000 26191792.00000000 65990496.00000000 19290.77343750  1766068.62500000 1400517.37500000 
0.09100    41023128.00000000 25855694.00000000 65131748.00000000 18924.28710938  1737235.62500000 1377841.87500000 
0.09200    40490716.00000000 25529304.00000000 64297996.00000000 18563.96875000  1708993.12500000 1355618.37500000 
0.09300    39972880.00000000 25212066.00000000 63487036.00000000 18209.53710938  1681278.75000000 1333819.25000000 
0.09400    39467736.00000000 24903330.00000000 62697376.00000000 17860.50000000  1654085.25000000 1312429.25000000 
0.09500    38975984.00000000 24603154.00000000 61927528.00000000 17517.08789062  1627357.50000000 1291406.87500000 
0.09600    38495220.00000000 24310104.00000000 61177772.00000000 17178.75000000  1601064.25000000 1270736.62500000 
0.09700    38026132.00000000 24024338.00000000 60444996.00000000 16845.50585938  1575206.75000000 1250407.00000000 
0.09800    37567624.00000000 23745070.00000000 59728848.00000000 16517.13476562  1549754.62500000 1230388.12500000 
0.09900    37118192.00000000 23472030.00000000 59027912.00000000 16193.45996094  1524671.25000000 1210650.25000000 
0.10000    36677976.00000000 23204542.00000000 58340796.00000000 15874.53515625  1499938.12500000 1191202.25000000 
0.10100    36245680.00000000 22942096.00000000 57667160.00000000 15560.29492188  1475543.12500000 1172012.12500000 
0.10200    35821092.00000000 22684764.00000000 57006064.00000000 15250.37207031  1451485.12500000 1153072.25000000 
0.10300    35403732.00000000 22431458.00000000 56355000.00000000 14944.85156250  1427727.00000000 1134371.25000000 
0.10400    34992532.00000000 22182380.00000000 55714724.00000000 14643.83300781  1404258.37500000 1115900.12500000 
0.10500    34587692.00000000 21937094.00000000 55084036.00000000 14347.23535156  1381077.37500000 1097646.87500000 
0.10600    34188268.00000000 21694798.00000000 54461296.00000000 14054.89746094  1358162.25000000 1079596.62500000 
0.10700    33793504.00000000 21455620.00000000 53846336.00000000 13766.82910156  1335502.87500000 1061740.00000000 
0.10800    33403602.00000000 21219358.00000000 53238908.00000000 13482.91406250  1313104.25000000 1044083.68750000 
0.10900    33018024.00000000 20985186.00000000 52637240.00000000 13203.32031250  1290955.87500000 1026608.81250000 
0.11000    32635802.00000000 20753454.00000000 52041900.00000000 12927.94042969  1269042.87500000 1009315.56250000 
0.11100    32257168.00000000 20523730.00000000 51451472.00000000 12656.79980469  1247361.87500000 992208.00000000 
0.11200    31881568.00000000 20295526.00000000 50865844.00000000 12389.76171875  1225904.62500000 975266.81250000 
0.11300    31509060.00000000 20068996.00000000 50284228.00000000 12126.84863281  1204671.25000000 958491.18750000 
0.11400    31138888.00000000 19843778.00000000 49706484.00000000 11868.13085938  1183653.00000000 941890.75000000 
0.11500    30771138.00000000 19619598.00000000 49132256.00000000 11613.46582031  1162866.12500000 925440.62500000 
0.11600    30405586.00000000 19396554.00000000 48560460.00000000 11362.90625000  1142286.00000000 909166.93750000 
0.11700    30041812.00000000 19174554.00000000 47991332.00000000 11116.31152344  1121926.62500000 893050.68750000 
0.11800    29679774.00000000 18953068.00000000 47425340.00000000 10873.86132812  1101767.12500000 877083.50000000 
0.11900    29319484.00000000 18732254.00000000 46860452.00000000 10635.41113281  1081817.25000000 861283.68750000 
0.12000    28960268.00000000 18512380.00000000 46298284.00000000 10400.76464844  1062085.37500000 845644.56250000 
0.12100    28602716.00000000 18292788.00000000 45737732.00000000 10170.19335938  1042558.56250000 830161.06250000 
0.12200    28246164.00000000 18073840.00000000 45178340.00000000 9943.41796875   1023233.56250000 814830.00000000 
0.12300    27890880.00000000 17854956.00000000 44620764.00000000 9720.55664062   1004117.62500000 799662.75000000 
0.12400    27537020.00000000 17636724.00000000 44063960.00000000 9501.49902344   985208.18750000 784641.93750000 
0.12500    27184032.00000000 17418716.00000000 43509180.00000000 9286.14843750   966502.12500000 769782.06250000 
0.12600    26832206.00000000 17201136.00000000 42955372.00000000 9074.58105469   948015.00000000 755085.93750000 
0.12700    26481132.00000000 16983976.00000000 42403200.00000000 8866.64062500   929724.06250000 740546.68750000 
0.12800    26131260.00000000 16766790.00000000 41851952.00000000 8662.32812500   911642.50000000 726169.68750000 
0.12900    25782596.00000000 16550312.00000000 41301928.00000000 8461.61523438   893769.43750000 711945.56250000 
0.13000    25434902.00000000 16334017.00000000 40753256.00000000 8264.57910156   876102.31250000 697889.06250000 
0.13100    25088496.00000000 16118094.00000000 40205664.00000000 8070.89550781   858651.56250000 683987.93750000 
0.13200    24743002.00000000 15902565.00000000 39660004.00000000 7880.74072266   841396.31250000 670252.50000000 
0.13300    24399068.00000000 15687785.00000000 39115764.00000000 7694.01171875   824355.56250000 656674.68750000 
0.13400    24056090.00000000 15473162.00000000 38573248.00000000 7510.67529297   807524.18750000 643261.25000000 
0.13500    23714640.00000000 15259307.00000000 38032532.00000000 7330.76123047   790910.50000000 630013.12500000 
0.13600    23374576.00000000 15045837.00000000 37494024.00000000 7154.14794922   774501.31250000 616924.81250000 
0.13700    23036080.00000000 14833249.00000000 36957044.00000000 6980.76660156   758306.56250000 604010.56250000 
0.13800    22699160.00000000 14621403.00000000 36422440.00000000 6810.75195312   742315.18750000 591253.87500000 
0.13900    22363960.00000000 14410317.00000000 35890008.00000000 6643.90185547   726552.12500000 578672.00000000 
0.14000    22030390.00000000 14200038.00000000 35360508.00000000 6480.34277344   710995.50000000 566255.50000000 
0.14100    21698734.00000000 13990782.00000000 34833704.00000000 6319.95458984   695658.31250000 554007.31250000 
0.14200    21369318.00000000 13782574.00000000 34309720.00000000 6162.79248047   680536.93750000 541927.62500000 
0.14300    21041676.00000000 13575386.00000000 33788816.00000000 6008.79541016   665624.81250000 530031.18750000 
0.14400    20716342.00000000 13369403.00000000 33270568.00000000 5857.86962891   650938.25000000 518291.21875000 
0.14500    20393412.00000000 13164638.00000000 32756336.00000000 5710.14892578   636464.56250000 506732.00000000 
0.14600    20073108.00000000 12961278.00000000 32245522.00000000 5565.55273438   622209.62500000 495339.09375000 
0.14700    19754858.00000000 12759243.00000000 31738490.00000000 5424.06884766   608172.00000000 484123.43750000 
0.14800    19439354.00000000 12558656.00000000 31235396.00000000 5285.58349609   594354.06250000 473077.12500000 
0.14900    19126514.00000000 12359560.00000000 30736142.00000000 5150.23681641   580759.93750000 462208.65625000 
0.15000    18816470.00000000 12162150.00000000 30241372.00000000 5017.91992188   567385.18750000 451514.18750000 
0.15100    18509242.00000000 11966411.00000000 29750930.00000000 4888.68603516   554231.18750000 440991.43750000 
0.15200    18205100.00000000 11772343.00000000 29264946.00000000 4762.49560547   541294.06250000 430645.93750000 
0.15300    17903958.00000000 11580151.00000000 28783896.00000000 4639.30029297   528581.93750000 420477.87500000 
0.15400    17605976.00000000 11389841.00000000 28307504.00000000 4519.12207031   516089.03125000 410479.65625000 
0.15500    17311296.00000000 11201375.00000000 27836158.00000000 4401.87841797   503820.03125000 400660.37500000 
0.15600    17019802.00000000 11014868.00000000 27369640.00000000 4287.63964844   491761.12500000 391011.28125000 
0.15700    16731690.00000000 10830546.00000000 26908674.00000000 4176.27490234   479930.84375000 381542.71875000 
0.15800    16447138.00000000 10648131.00000000 26453100.00000000 4067.84472656   468314.75000000 372243.93750000 
0.15900    16166011.00000000 10467993.00000000 26002712.00000000 3962.25317383   456918.96875000 363115.31250000 
0.16000    15888337.00000000 10289797.00000000 25557930.00000000 3859.52270508   445733.81250000 354164.06250000 
0.16100    15614178.00000000 10113996.00000000 25119082.00000000 3759.63134766   434773.06250000 345382.15625000 
0.16200    15343764.00000000 9940386.00000000 24685624.00000000 3662.43603516   424022.56250000 336772.50000000 
0.16300    15076966.00000000 9768836.00000000 24258088.00000000 3567.97192383   413486.53125000 328330.31250000 
0.16400    14813832.00000000 9599780.00000000 23835936.00000000 3476.16699219   403158.15625000 320054.96875000 
0.16500    14554436.00000000 9433018.00000000 23420074.00000000 3387.02221680   393041.65625000 311947.43750000 
0.16600    14298789.00000000 9268471.00000000 23009800.00000000 3300.42163086   383130.81250000 304003.65625000 
0.16700    14046761.00000000 9106300.00000000 22605654.00000000 3216.27172852   373421.78125000 296221.18750000 
0.16800    13798593.00000000 8946404.00000000 22207328.00000000 3134.60449219   363917.56250000 288599.90625000 
0.16900    13554209.00000000 8789037.00000000 21815196.00000000 3055.38256836   354613.96875000 281142.87500000 
0.17000    13313557.00000000 8633913.00000000 21428508.00000000 2978.46435547   345507.62500000 273836.68750000 
