# SAXS profile: number of points = 501, q_min = 0, q_max = 0.5, delta_q = 0.001
#    q    intensity 
0.00000    162237472.00000000 101201800.00000000 256270992.00000000 102092.14062500 8139608.00000000 6428634.00000000 
0.00100    162215712.00000000 101188080.00000000 256234496.00000000 102070.61718750 8138153.50000000 6427495.00000000 
0.00200    162146672.00000000 101144880.00000000 256125168.00000000 102004.46875000 8133719.00000000 6424031.00000000 
0.00300    162030944.00000000 101073800.00000000 255942080.00000000 101895.28906250 8126371.50000000 6418272.00000000 
0.00400    161867696.00000000 100973488.00000000 255686976.00000000 101743.58593750 8116096.50000000 6410232.50000000 
0.00500    161656976.00000000 100845576.00000000 255359328.00000000 101547.27343750 8102874.00000000 6399907.50000000 
0.00600    161399744.00000000 100688896.00000000 254958048.00000000 101308.46093750 8086759.50000000 6387274.50000000 
0.00700    161095840.00000000 100503984.00000000 254485024.00000000 101027.01562500 8067752.50000000 6372417.50000000 
0.00800    160747344.00000000 100291048.00000000 253940832.00000000 100703.78906250 8045896.50000000 6355290.50000000 
0.00900    160352608.00000000 100051680.00000000 253325168.00000000 100338.10937500 8021165.50000000 6335965.50000000 
0.01000    159910736.00000000 99783976.00000000 252640016.00000000 99930.36718750  7993640.50000000 6314397.50000000 
0.01100    159426448.00000000 99488784.00000000 251882896.00000000 99482.17187500  7963327.00000000 6290684.50000000 
0.01200    158897376.00000000 99167024.00000000 251057424.00000000 98993.63281250  7930242.00000000 6264781.00000000 
0.01300    158325936.00000000 98818112.00000000 250164336.00000000 98465.38281250  7894435.00000000 6236760.00000000 
0.01400    157711168.00000000 98443520.00000000 249203616.00000000 97897.48437500  7855952.00000000 6206626.00000000 
0.01500    157054144.00000000 98042144.00000000 248175536.00000000 97291.71093750  7814846.00000000 6174472.00000000 
0.01600    156352432.00000000 97614944.00000000 247080864.00000000 96647.58593750  7771101.50000000 6140211.50000000 
0.01700    155609504.00000000 97162288.00000000 245922080.00000000 95966.89843750  7724833.00000000 6104015.00000000 
0.01800    154826336.00000000 96684544.00000000 244700080.00000000 95250.14843750  7676076.50000000 6065808.50000000 
0.01900    154003936.00000000 96182952.00000000 243414208.00000000 94497.93750000  7624869.50000000 6025721.50000000 
0.02000    153141184.00000000 95657256.00000000 242066704.00000000 93711.45312500  7571217.00000000 5983747.00000000 
0.02100    152240432.00000000 95107800.00000000 240658320.00000000 92891.75000000  7515266.50000000 5939898.50000000 
0.02200    151300752.00000000 94535200.00000000 239192608.00000000 92039.12500000  7457024.50000000 5894302.50000000 
0.02300    150323920.00000000 93939560.00000000 237667680.00000000 91155.60937500  7396583.50000000 5846935.00000000 
0.02400    149313152.00000000 93321760.00000000 236086384.00000000 90241.53906250  7333958.00000000 5797905.00000000 
0.02500    148266176.00000000 92683320.00000000 234449840.00000000 89298.27343750  7269227.50000000 5747198.50000000 
0.02600    147183328.00000000 92022840.00000000 232759344.00000000 88326.84375000  7202486.50000000 5694917.50000000 
0.02700    146068080.00000000 91342168.00000000 231016096.00000000 87328.47656250  7133758.00000000 5641080.50000000 
0.02800    144919968.00000000 90641696.00000000 229223776.00000000 86304.07812500  7063168.00000000 5585740.50000000 
0.02900    143741472.00000000 89921744.00000000 227380608.00000000 85255.10156250  6990719.00000000 5528992.00000000 
0.03000    142532032.00000000 89183072.00000000 225489360.00000000 84182.68750000  6916571.00000000 5470845.50000000 
0.03100    141292272.00000000 88426160.00000000 223552032.00000000 83087.62500000  6840688.00000000 5411412.50000000 
0.03200    140024496.00000000 87651920.00000000 221570432.00000000 81971.67187500  6763223.00000000 5350695.00000000 
0.03300    138730592.00000000 86860408.00000000 219545568.00000000 80835.70312500  6684276.00000000 5288790.50000000 
0.03400    137409072.00000000 86053064.00000000 217479984.00000000 79681.12500000  6603787.00000000 5225715.50000000 
0.03500    136062832.00000000 85230200.00000000 215374800.00000000 78509.53906250  6521996.00000000 5161559.00000000 
0.03600    134692688.00000000 84392032.00000000 213231472.00000000 77321.81250000  6438870.00000000 5096391.50000000 
0.03700    133298936.00000000 83539856.00000000 211051824.00000000 76119.64062500  6354568.00000000 5030258.50000000 
0.03800    131883632.00000000 82674136.00000000 208838464.00000000 74903.47656250  6269099.50000000 4963225.00000000 
0.03900    130448120.00000000 81795992.00000000 206591936.00000000 73675.24218750  6182572.50000000 4895337.50000000 
0.04000    128992272.00000000 80905128.00000000 204314208.00000000 72435.85937500  6095068.00000000 4826685.50000000 
0.04100    127518240.00000000 80002760.00000000 202007488.00000000 71187.28906250  6006680.00000000 4757302.00000000 
0.04200    126027568.00000000 79089384.00000000 199673952.00000000 69930.08593750  5917431.50000000 4687246.00000000 
0.04300    124520000.00000000 78166144.00000000 197314080.00000000 68665.35937500  5827463.50000000 4616657.50000000 
0.04400    122997592.00000000 77233168.00000000 194930352.00000000 67395.14843750  5736832.00000000 4545480.50000000 
0.04500    121462224.00000000 76291968.00000000 192525808.00000000 66120.44531250  5645603.50000000 4473837.00000000 
0.04600    119913056.00000000 75342808.00000000 190100080.00000000 64842.08203125  5553876.00000000 4401783.00000000 
0.04700    118352456.00000000 74386512.00000000 187656160.00000000 63561.32421875  5461731.00000000 4329426.00000000 
0.04800    116781624.00000000 73422912.00000000 185195936.00000000 62279.55078125  5369223.50000000 4256777.00000000 
0.04900    115201976.00000000 72453736.00000000 182719648.00000000 60998.13671875  5276440.50000000 4183863.00000000 
0.05000    113613680.00000000 71478448.00000000 180231280.00000000 59718.09375000  5183460.00000000 4110788.00000000 
0.05100    112018248.00000000 70499136.00000000 177730160.00000000 58439.95703125  5090345.00000000 4037592.75000000 
0.05200    110417360.00000000 69515104.00000000 175220864.00000000 57165.71484375  4997140.50000000 3964351.00000000 
0.05300    108811304.00000000 68528864.00000000 172703184.00000000 55896.10937500  4904018.00000000 3891096.50000000 
0.05400    107201024.00000000 67538600.00000000 170177584.00000000 54631.84375000  4810971.50000000 3817914.50000000 
0.05500    105588752.00000000 66547480.00000000 167648208.00000000 53374.54687500  4718055.50000000 3744822.25000000 
0.05600    103974232.00000000 65554484.00000000 165117392.00000000 52124.83203125  4625386.50000000 3671891.00000000 
0.05700    102359736.00000000 64561092.00000000 162583008.00000000 50883.66406250  4532999.50000000 3599197.75000000 
0.05800    100745416.00000000 63567308.00000000 160050096.00000000 49652.42187500  4440965.50000000 3526759.75000000 
0.05900    99132672.00000000 62574068.00000000 157517344.00000000 48431.35156250  4349355.50000000 3454643.00000000 
0.06000    97521904.00000000 61581640.00000000 154989840.00000000 47221.64453125  4258224.50000000 3382853.75000000 
0.06100    95914520.00000000 60591128.00000000 152465184.00000000 46023.94531250  4167649.25000000 3311506.75000000 
0.06200    94312104.00000000 59603052.00000000 149947488.00000000 44839.25390625  4077673.75000000 3240621.75000000 
0.06300    92714256.00000000 58617380.00000000 147438096.00000000 43668.62109375  3988347.25000000 3170229.75000000 
0.06400    91122512.00000000 57635228.00000000 144936272.00000000 42512.12890625  3899700.50000000 3100373.50000000 
0.06500    89538128.00000000 56656788.00000000 142446384.00000000 41371.04687500  3811853.75000000 3031096.25000000 
0.06600    87961568.00000000 55682832.00000000 139967168.00000000 40245.46875000  3724800.00000000 2962438.25000000 
0.06700    86392752.00000000 54713664.00000000 137501616.00000000 39136.52343750  3638600.75000000 2894461.75000000 
0.06800    84834096.00000000 53750000.00000000 135050400.00000000 38044.55468750  3553342.00000000 2827152.00000000 
0.06900    83285552.00000000 52792448.00000000 132615112.00000000 36970.09375000  3469007.50000000 2760604.00000000 
0.07000    81748232.00000000 51840860.00000000 130195656.00000000 35913.87109375  3385663.00000000 2694808.25000000 
0.07100    80222272.00000000 50895984.00000000 127793600.00000000 34875.62500000  3303357.50000000 2629793.25000000 
0.07200    78708616.00000000 49958160.00000000 125410464.00000000 33856.73437500  3222116.75000000 2565620.50000000 
0.07300    77208376.00000000 49028376.00000000 123048064.00000000 32856.94921875  3141989.75000000 2502300.50000000 
0.07400    75721680.00000000 48106156.00000000 120706416.00000000 31876.84765625  3062985.00000000 2439860.50000000 
0.07500    74249072.00000000 47192828.00000000 118386720.00000000 30916.91406250  2985149.75000000 2378326.50000000 
0.07600    72791408.00000000 46287904.00000000 116089136.00000000 29976.99414062  2908526.25000000 2317709.25000000 
0.07700    71349368.00000000 45392200.00000000 113816088.00000000 29057.67578125  2833120.25000000 2258055.25000000 
0.07800    69923736.00000000 44505776.00000000 111567248.00000000 28158.86523438  2758943.50000000 2199365.00000000 
0.07900    68513992.00000000 43629068.00000000 109343536.00000000 27281.01562500  2686058.75000000 2141663.00000000 
0.08000    67120848.00000000 42762560.00000000 107145840.00000000 26424.11523438  2614467.25000000 2084960.87500000 
0.08100    65745832.00000000 41906368.00000000 104975712.00000000 25588.35546875  2544189.75000000 2029278.62500000 
0.08200    64388120.00000000 41060592.00000000 102832048.00000000 24773.56835938  2475215.25000000 1974625.37500000 
0.08300    63048576.00000000 40225700.00000000 100716752.00000000 23980.05273438  2407584.00000000 1921025.37500000 
0.08400    61727836.00000000 39401632.00000000 98630160.00000000 23207.47460938  2341309.75000000 1868464.75000000 
0.08500    60425700.00000000 38589188.00000000 96572824.00000000 22456.18359375  2276396.25000000 1816962.12500000 
0.08600    59142952.00000000 37788084.00000000 94544504.00000000 21725.89453125  2212848.25000000 1766532.00000000 
0.08700    57879400.00000000 36998484.00000000 92546840.00000000 21016.53320312  2150680.00000000 1717175.62500000 
0.08800    56635728.00000000 36220624.00000000 90579104.00000000 20328.03515625  2089885.00000000 1668894.37500000 
0.08900    55411708.00000000 35454872.00000000 88642584.00000000 19660.16406250  2030469.00000000 1621691.62500000 
0.09000    54207728.00000000 34700780.00000000 86737112.00000000 19012.77929688  1972438.00000000 1575565.87500000 
0.09100    53024168.00000000 33959352.00000000 84862848.00000000 18385.78320312  1915780.37500000 1530526.62500000 
0.09200    51860976.00000000 33229660.00000000 83020184.00000000 17778.71093750  1860504.25000000 1486557.12500000 
0.09300    50718072.00000000 32512736.00000000 81209736.00000000 17191.48632812  1806610.87500000 1443666.87500000 
0.09400    49596128.00000000 31807992.00000000 79430696.00000000 16623.78710938  1754050.37500000 1401838.50000000 
0.09500    48494324.00000000 31115798.00000000 77684264.00000000 16075.44042969  1702878.37500000 1361080.62500000 
0.09600    47413440.00000000 30436048.00000000 75970104.00000000 15545.87988281  1653035.62500000 1321377.12500000 
0.09700    46353432.00000000 29769008.00000000 74287968.00000000 15035.11425781  1604554.87500000 1282726.50000000 
0.09800    45314216.00000000 29114326.00000000 72637944.00000000 14542.49218750  1557385.50000000 1245113.37500000 
0.09900    44295460.00000000 28472270.00000000 71019880.00000000 14067.92382812  1511534.75000000 1208548.37500000 
0.10000    43297280.00000000 27842864.00000000 69434464.00000000 13610.81054688  1466976.12500000 1172985.00000000 
0.10100    42319740.00000000 27225820.00000000 67880968.00000000 13170.83398438  1423700.87500000 1138434.50000000 
0.10200    41362836.00000000 26621346.00000000 66359576.00000000 12747.60644531  1381692.37500000 1104882.12500000 
0.10300    40426328.00000000 26029212.00000000 64870100.00000000 12340.77050781  1340927.50000000 1072302.25000000 
0.10400    39510248.00000000 25449474.00000000 63412212.00000000 11949.89355469  1301401.12500000 1040708.43750000 
0.10500    38614056.00000000 24882134.00000000 61985860.00000000 11574.54003906  1263076.62500000 1010067.12500000 
0.10600    37737888.00000000 24326884.00000000 60590680.00000000 11214.16015625  1225936.75000000 980346.62500000 
0.10700    36881552.00000000 23783826.00000000 59226488.00000000 10868.48339844  1189968.87500000 951561.18750000 
0.10800    36045032.00000000 23252702.00000000 57893128.00000000 10536.90917969  1155150.37500000 923673.00000000 
0.10900    35227724.00000000 22733440.00000000 56590000.00000000 10219.20410156  1121450.25000000 896676.50000000 
0.11000    34429492.00000000 22226202.00000000 55317312.00000000 9914.71093750   1088849.87500000 870545.75000000 
0.11100    33650404.00000000 21730370.00000000 54074228.00000000 9623.10156250   1057323.50000000 845268.18750000 
0.11200    32889848.00000000 21246294.00000000 52860596.00000000 9343.83984375   1026847.00000000 820821.62500000 
0.11300    32147924.00000000 20773416.00000000 51675764.00000000 9076.46191406   997395.81250000 797189.12500000 
0.11400    31424378.00000000 20311948.00000000 50520112.00000000 8820.72558594   968948.68750000 774349.18750000 
0.11500    30718664.00000000 19861504.00000000 49392272.00000000 8576.00976562   941478.18750000 752281.68750000 
0.11600    30030694.00000000 19422142.00000000 48292520.00000000 8341.84277344   914951.81250000 730967.75000000 
0.11700    29360284.00000000 18993386.00000000 47220028.00000000 8117.96435547   889351.43750000 710388.75000000 
0.11800    28707008.00000000 18575158.00000000 46174184.00000000 7903.67041016   864644.37500000 690525.56250000 
0.11900    28070232.00000000 18167428.00000000 45155384.00000000 7698.70556641   840812.81250000 671353.18750000 
0.12000    27450172.00000000 17770078.00000000 44162120.00000000 7502.61083984   817821.00000000 652857.25000000 
0.12100    26846352.00000000 17382608.00000000 43194536.00000000 7315.10449219   795656.12500000 635014.50000000 
0.12200    26258250.00000000 17005198.00000000 42252224.00000000 7135.59130859   774279.81250000 617800.50000000 
0.12300    25685794.00000000 16637371.00000000 41334284.00000000 6963.82080078   753669.56250000 601198.06250000 
0.12400    25128490.00000000 16278994.00000000 40440364.00000000 6799.27099609   733806.62500000 585193.93750000 
0.12500    24586002.00000000 15929953.00000000 39570052.00000000 6641.59570312   714651.00000000 569757.25000000 
0.12600    24058302.00000000 15590069.00000000 38722700.00000000 6490.52343750   696197.37500000 554876.56250000 
0.12700    23544488.00000000 15259163.00000000 37897884.00000000 6345.59765625   678399.18750000 540530.18750000 
0.12800    23044816.00000000 14936820.00000000 37095088.00000000 6206.48876953   661243.43750000 526693.00000000 
0.12900    22558440.00000000 14623017.00000000 36313764.00000000 6072.89550781   644704.18750000 513353.03125000 
0.13000    22085634.00000000 14317615.00000000 35553732.00000000 5944.50830078   628760.81250000 500489.84375000 
0.13100    21625404.00000000 14020142.00000000 34813528.00000000 5820.89208984   613379.81250000 488079.43750000 
0.13200    21177754.00000000 13730785.00000000 34093676.00000000 5701.84521484   598541.25000000 476110.21875000 
0.13300    20742338.00000000 13449120.00000000 33393264.00000000 5587.16650391   584235.62500000 464565.62500000 
0.13400    20318868.00000000 13174858.00000000 32711650.00000000 5476.37548828   570424.87500000 453422.40625000 
0.13500    19906880.00000000 12908018.00000000 32048374.00000000 5369.36962891   557092.43750000 442662.87500000 
0.13600    19506292.00000000 12648283.00000000 31403064.00000000 5265.77880859   544218.81250000 432276.25000000 
0.13700    19116346.00000000 12395509.00000000 30775132.00000000 5165.43066406   531782.43750000 422238.93750000 
0.13800    18737088.00000000 12149383.00000000 30164116.00000000 5068.07421875   519758.56250000 412541.34375000 
0.13900    18368092.00000000 11909908.00000000 29569528.00000000 4973.51123047   508134.09375000 403168.53125000 
0.14000    18009076.00000000 11676760.00000000 28990890.00000000 4881.55566406   496887.12500000 394097.21875000 
0.14100    17659640.00000000 11449743.00000000 28427734.00000000 4791.99609375   486000.68750000 385322.43750000 
0.14200    17319672.00000000 11228758.00000000 27879354.00000000 4704.57373047   475457.96875000 376826.53125000 
0.14300    16988792.00000000 11013593.00000000 27345624.00000000 4619.28662109   465236.62500000 368591.71875000 
0.14400    16666465.00000000 10804086.00000000 26825760.00000000 4535.83984375   455322.56250000 360608.43750000 
0.14500    16352785.00000000 10599877.00000000 26319720.00000000 4454.13281250   445702.50000000 352865.00000000 
0.14600    16047236.00000000 10401065.00000000 25826812.00000000 4374.05029297   436362.65625000 345349.00000000 
0.14700    15749649.00000000 10207481.00000000 25346838.00000000 4295.47070312   427284.59375000 338048.37500000 
0.14800    15459698.00000000 10018671.00000000 24878824.00000000 4218.19628906   418452.37500000 330948.50000000 
0.14900    15177096.00000000 9834729.00000000 24422944.00000000 4142.25976562   409855.25000000 324041.09375000 
0.15000    14901681.00000000 9655427.00000000 23978416.00000000 4067.48828125   401481.31250000 317318.40625000 
0.15100    14633080.00000000 9480615.00000000 23544976.00000000 3993.78149414   393316.96875000 310765.03125000 
0.15200    14371325.00000000 9310172.00000000 23122582.00000000 3921.13110352   385355.87500000 304379.21875000 
0.15300    14115799.00000000 9143914.00000000 22710380.00000000 3849.41845703   377578.00000000 298146.62500000 
0.15400    13866555.00000000 8981577.00000000 22308038.00000000 3778.57202148   369976.06250000 292056.81250000 
0.15500    13623238.00000000 8823263.00000000 21915590.00000000 3708.61621094   362545.87500000 286105.28125000 
0.15600    13385650.00000000 8668618.00000000 21532282.00000000 3639.43090820   355267.46875000 280284.21875000 
0.15700    13153652.00000000 8517687.00000000 21158188.00000000 3571.06005859   348144.87500000 274587.46875000 
0.15800    12926883.00000000 8370192.50000000 20792336.00000000 3503.38061523   341158.87500000 269006.56250000 
0.15900    12705434.00000000 8226151.50000000 20435140.00000000 3436.44848633   334307.59375000 263537.71875000 
0.16000    12488815.00000000 8085310.50000000 20085864.00000000 3370.21240234   327581.65625000 258167.50000000 
0.16100    12277092.00000000 7947700.00000000 19744566.00000000 3304.69458008   320979.59375000 252903.00000000 
0.16200    12069801.00000000 7813071.00000000 19410722.00000000 3239.84570312   314486.65625000 247727.34375000 
0.16300    11867124.00000000 7681442.00000000 19083976.00000000 3175.71093750   308104.21875000 242642.71875000 
0.16400    11668705.00000000 7552610.50000000 18764210.00000000 3112.27734375   301824.68750000 237640.65625000 
0.16500    11474322.00000000 7426501.50000000 18451202.00000000 3049.53637695   295643.25000000 232721.04687500 
0.16600    11284032.00000000 7303068.50000000 18144776.00000000 2987.52441406   289552.18750000 227877.31250000 
0.16700    11097497.00000000 7182186.00000000 17844306.00000000 2926.21484375   283552.43750000 223104.92187500 
0.16800    10914564.00000000 7063656.50000000 17550060.00000000 2865.66235352   277636.68750000 218402.37500000 
0.16900    10735305.00000000 6947622.50000000 17261530.00000000 2805.90600586   271807.12500000 213769.35937500 
0.17000    10559533.00000000 6833777.50000000 16978808.00000000 2746.92163086   266053.84375000 209200.59375000 
