# SAXS profile: number of points = 501, q_min = 0, q_max = 0.5, delta_q = 0.001
#    q    intensity 
0.00000    162238416.00000000 101201280.00000000 256272320.00000000 101517.49218750 8116682.50000000 6410533.00000000 
0.00100    162208272.00000000 101182984.00000000 256223696.00000000 101494.71093750 8115003.50000000 6409186.50000000 
0.00200    162118512.00000000 101126336.00000000 256080816.00000000 101424.62500000 8109899.00000000 6405201.50000000 
0.00300    161967072.00000000 101032160.00000000 255841152.00000000 101308.80468750 8101428.00000000 6398554.50000000 
0.00400    161754688.00000000 100900424.00000000 255506544.00000000 101145.81250000 8089622.00000000 6389186.00000000 
0.00500    161481712.00000000 100731032.00000000 255078880.00000000 100937.21875000 8074430.50000000 6377234.50000000 
0.00600    161148192.00000000 100524344.00000000 254552832.00000000 100683.03125000 8055843.00000000 6362660.00000000 
0.00700    160755520.00000000 100281456.00000000 253933728.00000000 100383.28906250 8034011.00000000 6345409.00000000 
0.00800    160303616.00000000 100000824.00000000 253223024.00000000 100038.57031250 8008870.50000000 6325621.50000000 
0.00900    159791952.00000000 99684872.00000000 252419280.00000000 99649.34375000  7980518.50000000 6303235.50000000 
0.01000    159222880.00000000 99332688.00000000 251524544.00000000 99215.83593750  7948889.50000000 6278373.00000000 
0.01100    158597952.00000000 98944200.00000000 250539024.00000000 98738.80468750  7914128.50000000 6250953.50000000 
0.01200    157915712.00000000 98521712.00000000 249464928.00000000 98219.60937500  7876185.00000000 6221070.50000000 
0.01300    157178880.00000000 98063864.00000000 248303312.00000000 97657.55468750  7835195.50000000 6188753.00000000 
0.01400    156385056.00000000 97572160.00000000 247053024.00000000 97054.28906250  7791139.00000000 6154060.00000000 
0.01500    155538304.00000000 97046920.00000000 245718960.00000000 96411.23437500  7744135.00000000 6117028.00000000 
0.01600    154637760.00000000 96489104.00000000 244301056.00000000 95727.82812500  7694169.50000000 6077660.50000000 
0.01700    153685456.00000000 95898080.00000000 242802400.00000000 95005.85937500  7641355.50000000 6036050.50000000 
0.01800    152682864.00000000 95275784.00000000 241222960.00000000 94245.90625000  7585746.00000000 5992236.50000000 
0.01900    151629232.00000000 94623240.00000000 239563728.00000000 93449.73437500  7527414.50000000 5946276.00000000 
0.02000    150528368.00000000 93940336.00000000 237828592.00000000 92617.34375000  7466421.50000000 5898262.00000000 
0.02100    149379472.00000000 93228456.00000000 236019184.00000000 91750.41406250  7402846.50000000 5848142.50000000 
0.02200    148184128.00000000 92486784.00000000 234138032.00000000 90850.23437500  7336778.00000000 5796076.50000000 
0.02300    146943952.00000000 91717608.00000000 232183840.00000000 89916.90625000  7268279.50000000 5742131.00000000 
0.02400    145661616.00000000 90922624.00000000 230163200.00000000 88952.84375000  7197452.50000000 5686281.00000000 
0.02500    144337040.00000000 90100384.00000000 228076384.00000000 87958.78125000  7124329.00000000 5628677.50000000 
0.02600    142969808.00000000 89253536.00000000 225926096.00000000 86936.35937500  7049059.00000000 5569400.50000000 
0.02700    141567056.00000000 88382632.00000000 223713728.00000000 85886.27343750  6971724.50000000 5508432.00000000 
0.02800    140125440.00000000 87488400.00000000 221442912.00000000 84810.21093750  6892364.50000000 5445934.00000000 
0.02900    138647664.00000000 86572296.00000000 219115808.00000000 83709.35156250  6811136.50000000 5381887.50000000 
0.03000    137135488.00000000 85634720.00000000 216734656.00000000 82585.23437500  6728058.00000000 5316461.50000000 
0.03100    135590880.00000000 84676568.00000000 214301856.00000000 81439.01562500  6643327.50000000 5249659.00000000 
0.03200    134015960.00000000 83698968.00000000 211820320.00000000 80272.27343750  6556939.50000000 5181600.50000000 
0.03300    132411544.00000000 82703528.00000000 209293408.00000000 79086.12500000  6469078.50000000 5112359.00000000 
0.03400    130779224.00000000 81691320.00000000 206722176.00000000 77882.76562500  6379757.50000000 5041964.50000000 
0.03500    129121040.00000000 80662768.00000000 204109728.00000000 76662.38281250  6289164.00000000 4970567.50000000 
0.03600    127439024.00000000 79618712.00000000 201459920.00000000 75427.27343750  6197323.50000000 4898200.50000000 
0.03700    125733992.00000000 78561512.00000000 198774144.00000000 74178.68750000  6104382.50000000 4824941.50000000 
0.03800    124008680.00000000 77490632.00000000 196055904.00000000 72918.49218750  6010419.00000000 4750886.50000000 
0.03900    122264456.00000000 76408168.00000000 193307200.00000000 71647.53906250  5915555.00000000 4676101.00000000 
0.04000    120502400.00000000 75315432.00000000 190531856.00000000 70367.39843750  5819822.00000000 4600688.50000000 
0.04100    118725648.00000000 74212520.00000000 187732128.00000000 69079.11718750  5723438.00000000 4524700.00000000 
0.04200    116934080.00000000 73100864.00000000 184910160.00000000 67784.57031250  5626409.00000000 4448213.50000000 
0.04300    115131536.00000000 71982160.00000000 182068960.00000000 66485.18750000  5528865.00000000 4371337.50000000 
0.04400    113317880.00000000 70856488.00000000 179211760.00000000 65181.95312500  5430915.00000000 4294116.50000000 
0.04500    111495464.00000000 69725672.00000000 176341280.00000000 63876.86328125  5332628.00000000 4216634.50000000 
0.04600    109667064.00000000 68591184.00000000 173459168.00000000 62570.53906250  5234142.00000000 4138988.75000000 
0.04700    107832720.00000000 67452544.00000000 170569968.00000000 61264.69921875  5135507.50000000 4061228.25000000 
0.04800    105994984.00000000 66311692.00000000 167673648.00000000 59960.72265625  5036823.50000000 3983437.00000000 
0.04900    104155560.00000000 65169536.00000000 164774304.00000000 58659.37109375  4938206.00000000 3905694.75000000 
0.05000    102315752.00000000 64027352.00000000 161874688.00000000 57362.44531250  4839733.00000000 3828038.25000000 
0.05100    100476240.00000000 62885672.00000000 158977600.00000000 56070.92187500  4741492.00000000 3750602.75000000 
0.05200    98640632.00000000 61745660.00000000 156083904.00000000 54785.84765625  4643555.50000000 3673378.00000000 
0.05300    96808632.00000000 60608368.00000000 153197264.00000000 53508.55859375  4546041.00000000 3596497.50000000 
0.05400    94983624.00000000 59474956.00000000 150318976.00000000 52240.43359375  4449017.50000000 3519994.75000000 
0.05500    93164744.00000000 58345312.00000000 147452944.00000000 50981.93359375  4352539.00000000 3443917.50000000 
0.05600    91354672.00000000 57221516.00000000 144600160.00000000 49734.56640625  4256720.50000000 3368367.00000000 
0.05700    89555224.00000000 56103992.00000000 141764592.00000000 48498.89453125  4161636.25000000 3293357.75000000 
0.05800    87767200.00000000 54993244.00000000 138947184.00000000 47276.36328125  4067348.00000000 3218987.25000000 
0.05900    85991688.00000000 53890268.00000000 136147616.00000000 46067.55468750  3973903.50000000 3145284.25000000 
0.06000    84230792.00000000 52796548.00000000 133370032.00000000 44873.66796875  3881393.75000000 3072311.50000000 
0.06100    82485112.00000000 51711764.00000000 130618296.00000000 43695.13281250  3789856.25000000 3000134.25000000 
0.06200    80755224.00000000 50637296.00000000 127892400.00000000 42533.00390625  3699422.25000000 2928761.00000000 
0.06300    79043584.00000000 49573956.00000000 125193424.00000000 41388.01953125  3610093.00000000 2858307.00000000 
0.06400    77350400.00000000 48521816.00000000 122524280.00000000 40260.93750000  3521901.25000000 2788728.50000000 
0.06500    75677176.00000000 47482036.00000000 119886048.00000000 39152.11718750  3434960.25000000 2720133.25000000 
0.06600    74024416.00000000 46454772.00000000 117280512.00000000 38062.38671875  3349290.75000000 2652546.00000000 
0.06700    72393512.00000000 45441376.00000000 114708944.00000000 36992.47265625  3264933.00000000 2586007.00000000 
0.06800    70785408.00000000 44441540.00000000 112172440.00000000 35942.29687500  3181956.75000000 2520495.00000000 
0.06900    69200192.00000000 43456900.00000000 109673264.00000000 34912.95703125  3100376.50000000 2456129.00000000 
0.07000    67639416.00000000 42486432.00000000 107212088.00000000 33904.54296875  3020242.00000000 2392877.00000000 
0.07100    66104008.00000000 41531764.00000000 104790400.00000000 32917.91406250  2941578.75000000 2330797.50000000 
0.07200    64593544.00000000 40592792.00000000 102409048.00000000 31952.59179688  2864444.00000000 2269893.75000000 
0.07300    63109644.00000000 39670684.00000000 100068984.00000000 31009.41406250  2788833.50000000 2210226.50000000 
0.07400    61652900.00000000 38764868.00000000 97771648.00000000 30088.82031250  2714781.50000000 2151771.25000000 
0.07500    60223772.00000000 37875624.00000000 95517112.00000000 29190.61914062  2642319.50000000 2094555.62500000 
0.07600    58822124.00000000 37004336.00000000 93306328.00000000 28315.10742188  2571467.00000000 2038621.62500000 
0.07700    57448960.00000000 36150308.00000000 91140896.00000000 27462.27929688  2502239.50000000 1983947.37500000 
0.07800    56104692.00000000 35314216.00000000 89019992.00000000 26632.26953125  2434639.00000000 1930558.00000000 
0.07900    54788980.00000000 34495840.00000000 86944656.00000000 25825.31640625  2368675.00000000 1878468.62500000 
0.08000    53503028.00000000 33695532.00000000 84915872.00000000 25041.18359375  2304377.75000000 1827675.50000000 
0.08100    52246464.00000000 32914022.00000000 82933504.00000000 24279.85156250  2241731.25000000 1778193.37500000 
0.08200    51019844.00000000 32150788.00000000 80998320.00000000 23541.16992188  2180717.00000000 1730006.87500000 
0.08300    49823100.00000000 31406162.00000000 79109968.00000000 22825.41210938  2121378.50000000 1683120.62500000 
0.08400    48656004.00000000 30679890.00000000 77268848.00000000 22131.96875000  2063700.50000000 1637540.37500000 
0.08500    47519164.00000000 29972334.00000000 75475024.00000000 21460.89062500  2007657.75000000 1593255.87500000 
0.08600    46412224.00000000 29283188.00000000 73728488.00000000 20811.78320312  1953251.75000000 1550267.37500000 
0.08700    45335308.00000000 28613138.00000000 72029200.00000000 20184.78710938  1900489.00000000 1508550.37500000 
0.08800    44288156.00000000 27961076.00000000 70376616.00000000 19579.20898438  1849321.50000000 1468107.12500000 
0.08900    43270704.00000000 27327926.00000000 68770992.00000000 18994.79492188  1799766.37500000 1428926.37500000 
0.09000    42283208.00000000 26712904.00000000 67211976.00000000 18431.39062500  1751774.12500000 1390984.25000000 
0.09100    41324628.00000000 26116126.00000000 65699248.00000000 17888.61523438  1705366.25000000 1354278.75000000 
0.09200    40395008.00000000 25537382.00000000 64232340.00000000 17365.90234375  1660488.12500000 1318791.25000000 
0.09300    39494456.00000000 24976516.00000000 62810628.00000000 16863.12890625  1617129.37500000 1284486.00000000 
0.09400    38622396.00000000 24433368.00000000 61434008.00000000 16379.48730469  1575249.50000000 1251353.37500000 
0.09500    37778280.00000000 23907680.00000000 60101600.00000000 15914.90917969  1534834.00000000 1219384.75000000 
0.09600    36961996.00000000 23399248.00000000 58813084.00000000 15468.68164062  1495871.12500000 1188539.62500000 
0.09700    36173244.00000000 22907734.00000000 57567560.00000000 15040.43750000  1458301.50000000 1158804.12500000 
0.09800    35410968.00000000 22432998.00000000 56364172.00000000 14629.70117188  1422117.25000000 1130155.50000000 
0.09900    34675044.00000000 21974660.00000000 55202424.00000000 14236.03613281  1387270.12500000 1102565.25000000 
0.10000    33965400.00000000 21532256.00000000 54081940.00000000 13858.62890625  1353724.87500000 1076007.00000000 
0.10100    33280642.00000000 21105722.00000000 53001060.00000000 13497.29980469  1321458.37500000 1050451.50000000 
0.10200    32620880.00000000 20694764.00000000 51959192.00000000 13151.36718750  1290446.50000000 1025878.81250000 
0.10300    31985268.00000000 20298606.00000000 50956000.00000000 12820.18359375  1260630.37500000 1002245.93750000 
0.10400    31373438.00000000 19917420.00000000 49989456.00000000 12503.42773438  1231982.00000000 979535.18750000 
0.10500    30784632.00000000 19550650.00000000 49059852.00000000 12200.44921875  1204461.62500000 957726.00000000 
0.10600    30218082.00000000 19197506.00000000 48165304.00000000 11910.56152344  1178030.50000000 936774.37500000 
0.10700    29673404.00000000 18858130.00000000 47305488.00000000 11633.49121094  1152653.87500000 916643.81250000 
0.10800    29150180.00000000 18531904.00000000 46478656.00000000 11368.52148438  1128297.12500000 897320.12500000 
0.10900    28647052.00000000 18218446.00000000 45684140.00000000 11115.10253906  1104909.37500000 878761.43750000 
0.11000    28163894.00000000 17917164.00000000 44920996.00000000 10872.82714844  1082464.25000000 860948.25000000 
0.11100    27699636.00000000 17628036.00000000 44188388.00000000 10640.90332031  1060914.12500000 843838.81250000 
0.11200    27254138.00000000 17350302.00000000 43484452.00000000 10419.07714844  1040224.18750000 827409.62500000 
0.11300    26826228.00000000 17083576.00000000 42808864.00000000 10206.59277344  1020349.56250000 811627.56250000 
0.11400    26415620.00000000 16827652.00000000 42160236.00000000 10003.07128906  1001266.37500000 796467.87500000 
0.11500    26021340.00000000 16581979.00000000 41537132.00000000 9808.01953125   982922.18750000 781887.37500000 
0.11600    25642888.00000000 16345946.00000000 40939736.00000000 9620.87792969   965284.43750000 767866.31250000 
0.11700    25279316.00000000 16119439.00000000 40365388.00000000 9441.20410156   948323.18750000 754378.00000000 
0.11800    24929990.00000000 15901770.00000000 39813892.00000000 9268.43261719   931982.43750000 741380.12500000 
0.11900    24594330.00000000 15692642.00000000 39283736.00000000 9102.17773438   916244.62500000 728866.06250000 
0.12000    24271696.00000000 15491597.00000000 38774268.00000000 8941.99707031   901063.06250000 716784.18750000 
0.12100    23961588.00000000 15298305.00000000 38284308.00000000 8787.46777344   886417.81250000 705120.75000000 
0.12200    23662932.00000000 15112259.00000000 37812848.00000000 8638.03710938   872258.31250000 693849.25000000 
0.12300    23375234.00000000 14933113.00000000 37358504.00000000 8493.47363281   858563.37500000 682943.75000000 
0.12400    23098104.00000000 14760322.00000000 36920948.00000000 8353.24902344   845286.00000000 672366.81250000 
0.12500    22830598.00000000 14593736.00000000 36498464.00000000 8217.09863281   832411.37500000 662106.31250000 
0.12600    22572232.00000000 14432854.00000000 36090576.00000000 8084.62988281   819903.68750000 652142.87500000 
0.12700    22322370.00000000 14277217.00000000 35696008.00000000 7955.44189453   807730.93750000 642437.62500000 
0.12800    22080434.00000000 14126586.00000000 35313916.00000000 7829.31884766   795867.50000000 632977.87500000 
0.12900    21845844.00000000 13980482.00000000 34943620.00000000 7705.84423828   784288.75000000 623741.81250000 
0.13000    21618182.00000000 13838627.00000000 34583904.00000000 7584.76855469   772958.75000000 614713.31250000 
0.13100    21396562.00000000 13700612.00000000 34234084.00000000 7465.86718750   761867.37500000 605855.81250000 
0.13200    21180804.00000000 13566291.00000000 33893496.00000000 7348.78906250   750984.06250000 597170.87500000 
0.13300    20970284.00000000 13435216.00000000 33560976.00000000 7233.38769531   740281.87500000 588634.12500000 
0.13400    20764502.00000000 13306900.00000000 33235884.00000000 7119.35839844   729747.37500000 580227.12500000 
0.13500    20562846.00000000 13181449.00000000 32917722.00000000 7006.57080078   719347.00000000 571930.43750000 
0.13600    20364996.00000000 13058307.00000000 32605314.00000000 6894.79150391   709086.68750000 563734.00000000 
0.13700    20170532.00000000 12937139.00000000 32298152.00000000 6783.88232422   698922.87500000 555621.25000000 
0.13800    19979080.00000000 12817808.00000000 31995734.00000000 6673.61621094   688854.62500000 547582.50000000 
0.13900    19790020.00000000 12700144.00000000 31697182.00000000 6563.96582031   678860.12500000 539606.87500000 
0.14000    19603268.00000000 12583811.00000000 31402338.00000000 6454.69287109   668925.06250000 531678.56250000 
0.14100    19418286.00000000 12468486.00000000 31110046.00000000 6345.84814453   659043.75000000 523785.62500000 
0.14200    19234768.00000000 12354131.00000000 30820368.00000000 6237.07177734   649196.75000000 515924.65625000 
0.14300    19052526.00000000 12240523.00000000 30532350.00000000 6128.55078125   639376.50000000 508086.15625000 
0.14400    18870996.00000000 12127317.00000000 30245428.00000000 6020.05712891   629572.12500000 500259.84375000 
0.14500    18690146.00000000 12014498.00000000 29959758.00000000 5911.66650391   619776.75000000 492440.21875000 
0.14600    18509564.00000000 11901846.00000000 29674272.00000000 5803.22216797   609982.12500000 484622.25000000 
0.14700    18329182.00000000 11789277.00000000 29389166.00000000 5694.76855469   600186.50000000 476801.68750000 
0.14800    18148638.00000000 11676485.00000000 29103632.00000000 5586.21142578   590368.43750000 468968.25000000 
0.14900    17967754.00000000 11563493.00000000 28817510.00000000 5477.61230469   580544.31250000 461127.15625000 
0.15000    17786356.00000000 11450139.00000000 28530740.00000000 5368.94970703   570696.87500000 453269.06250000 
0.15100    17604328.00000000 11336298.00000000 28242640.00000000 5260.30078125   560830.93750000 445394.31250000 
0.15200    17421504.00000000 11221976.00000000 27953480.00000000 5151.60253906   550944.68750000 437501.56250000 
0.15300    17237748.00000000 11107032.00000000 27662556.00000000 5042.93115234   541032.37500000 429593.46875000 
0.15400    17052842.00000000 10991268.00000000 27369926.00000000 4934.27832031   531094.37500000 421662.71875000 
0.15500    16867014.00000000 10874845.00000000 27075610.00000000 4825.76806641   521136.75000000 413716.78125000 
0.15600    16679781.00000000 10757559.00000000 26779152.00000000 4717.40185547   511150.31250000 405748.18750000 
0.15700    16491479.00000000 10639430.00000000 26480716.00000000 4609.28417969   501155.06250000 397772.40625000 
0.15800    16301644.00000000 10520351.00000000 26180032.00000000 4501.40722656   491134.34375000 389778.12500000 
0.15900    16110647.00000000 10400487.00000000 25877284.00000000 4393.89501953   481102.90625000 381774.78125000 
0.16000    15918180.00000000 10279594.00000000 25572174.00000000 4286.82324219   471060.93750000 373764.18750000 
0.16100    15724513.00000000 10157971.00000000 25265004.00000000 4180.25488281   461019.12500000 365748.93750000 
0.16200    15529474.00000000 10035206.00000000 24955542.00000000 4074.28588867   450973.00000000 357735.37500000 
0.16300    15333090.00000000 9911674.00000000 24643944.00000000 3968.95117188   440931.28125000 349722.81250000 
0.16400    15135369.00000000 9787258.00000000 24330120.00000000 3864.38623047   430899.40625000 341720.78125000 
0.16500    14936504.00000000 9661962.00000000 24014390.00000000 3760.67871094   420888.21875000 333728.71875000 
0.16600    14736495.00000000 9535924.00000000 23696804.00000000 3657.89086914   410897.75000000 325757.90625000 
0.16700    14535247.00000000 9408997.00000000 23377046.00000000 3556.06958008   400934.40625000 317809.03125000 
0.16800    14333014.00000000 9281366.00000000 23055578.00000000 3455.36694336   391005.71875000 309884.09375000 
0.16900    14129891.00000000 9153109.00000000 22732784.00000000 3355.85327148   381123.71875000 302000.62500000 
0.17000    13925879.00000000 9024182.00000000 22408300.00000000 3257.58618164   371289.68750000 294152.25000000 
