# SAXS profile: number of points = 501, q_min = 0, q_max = 0.5, delta_q = 0.001
#    q    intensity 
0.00000    162234432.00000000 101202264.00000000 256271520.00000000 92960.53125000  7767055.50000000 6134413.00000000 
0.00100    162206528.00000000 101183512.00000000 256222928.00000000 92937.50781250  7765390.50000000 6133099.50000000 
0.00200    162120752.00000000 101128328.00000000 256083520.00000000 92867.71093750  7760306.00000000 6129087.50000000 
0.00300    161973296.00000000 101036160.00000000 255847232.00000000 92751.17968750  7751827.00000000 6122450.50000000 
0.00400    161764368.00000000 100907248.00000000 255519600.00000000 92589.56250000  7739999.50000000 6113118.00000000 
0.00500    161493872.00000000 100741464.00000000 255098000.00000000 92381.92187500  7724787.50000000 6101193.00000000 
0.00600    161164720.00000000 100538256.00000000 254581712.00000000 92128.61718750  7706302.00000000 6086633.00000000 
0.00700    160778000.00000000 100300264.00000000 253975536.00000000 91830.03125000  7684487.00000000 6069550.50000000 
0.00800    160328032.00000000 100026832.00000000 253277888.00000000 91487.32031250  7659370.00000000 6049833.00000000 
0.00900    159824320.00000000 99718248.00000000 252488784.00000000 91100.72656250  7631067.00000000 6027598.50000000 
0.01000    159266352.00000000 99374488.00000000 251611424.00000000 90670.89062500  7599588.00000000 6002885.50000000 
0.01100    158652496.00000000 98996528.00000000 250647616.00000000 90198.39062500  7564952.00000000 5975695.50000000 
0.01200    157983936.00000000 98583536.00000000 249594512.00000000 89684.42968750  7527247.00000000 5946066.50000000 
0.01300    157257216.00000000 98137744.00000000 248456368.00000000 89130.15625000  7486561.50000000 5914081.50000000 
0.01400    156477856.00000000 97657936.00000000 247235392.00000000 88535.35156250  7442886.50000000 5879783.00000000 
0.01500    155647200.00000000 97146192.00000000 245931648.00000000 87901.89843750  7396287.00000000 5843178.00000000 
0.01600    154764416.00000000 96603816.00000000 244547552.00000000 87231.21875000  7346927.00000000 5804371.50000000 
0.01700    153832752.00000000 96030320.00000000 243084912.00000000 86523.67968750  7294766.00000000 5763404.00000000 
0.01800    152851920.00000000 95426728.00000000 241545264.00000000 85781.19531250  7239954.50000000 5720346.00000000 
0.01900    151821808.00000000 94793136.00000000 239931632.00000000 85004.35156250  7182541.50000000 5675234.00000000 
0.02000    150747904.00000000 94131048.00000000 238243776.00000000 84194.24218750  7122646.00000000 5628132.00000000 
0.02100    149627904.00000000 93441632.00000000 236485776.00000000 83353.06250000  7060304.00000000 5579128.00000000 
0.02200    148464016.00000000 92725152.00000000 234659040.00000000 82481.53906250  6995663.50000000 5528339.50000000 
0.02300    147258656.00000000 91982784.00000000 232767184.00000000 81581.39062500  6928762.50000000 5475783.50000000 
0.02400    146011888.00000000 91215240.00000000 230811248.00000000 80653.68750000  6859730.00000000 5421490.00000000 
0.02500    144727840.00000000 90423648.00000000 228794128.00000000 79699.81250000  6788626.00000000 5365638.00000000 
0.02600    143404896.00000000 89608432.00000000 226717344.00000000 78722.32031250  6715640.50000000 5308241.50000000 
0.02700    142047056.00000000 88771256.00000000 224584448.00000000 77721.10937500  6640751.50000000 5249366.50000000 
0.02800    140654384.00000000 87912688.00000000 222398240.00000000 76698.85937500  6564186.00000000 5189142.50000000 
0.02900    139230640.00000000 87033560.00000000 220160336.00000000 75656.82812500  6485938.00000000 5127619.50000000 
0.03000    137774592.00000000 86136264.00000000 217874352.00000000 74596.53906250  6406146.50000000 5064912.00000000 
0.03100    136289728.00000000 85220120.00000000 215543504.00000000 73519.50781250  6324952.00000000 5000996.00000000 
0.03200    134777728.00000000 84286856.00000000 213167536.00000000 72427.03906250  6242430.00000000 4936090.00000000 
0.03300    133240288.00000000 83338432.00000000 210750288.00000000 71320.58593750  6158698.00000000 4870201.00000000 
0.03400    131678912.00000000 82374208.00000000 208297408.00000000 70202.52343750  6073834.00000000 4803420.50000000 
0.03500    130095376.00000000 81396344.00000000 205808256.00000000 69073.34375000  5987998.50000000 4735859.00000000 
0.03600    128491304.00000000 80405672.00000000 203285888.00000000 67935.10156250  5901202.50000000 4667610.50000000 
0.03700    126869240.00000000 79403368.00000000 200736416.00000000 66789.47656250  5813690.50000000 4598700.00000000 
0.03800    125229328.00000000 78390728.00000000 198158464.00000000 65637.59375000  5725465.50000000 4529259.00000000 
0.03900    123575064.00000000 77368288.00000000 195556256.00000000 64481.03906250  5636619.50000000 4459327.00000000 
0.04000    121906768.00000000 76336200.00000000 192932848.00000000 63320.76562500  5547307.00000000 4389004.00000000 
0.04100    120226520.00000000 75297392.00000000 190289792.00000000 62158.82031250  5457601.00000000 4318354.00000000 
0.04200    118536256.00000000 74251648.00000000 187629872.00000000 60996.26562500  5367587.00000000 4247451.00000000 
0.04300    116837496.00000000 73200392.00000000 184958528.00000000 59834.03515625  5277407.50000000 4176395.25000000 
0.04400    115132752.00000000 72144872.00000000 182274368.00000000 58673.89843750  5187077.00000000 4105258.50000000 
0.04500    113421768.00000000 71085688.00000000 179583808.00000000 57517.09765625  5096740.50000000 4034117.50000000 
0.04600    111708128.00000000 70023904.00000000 176884832.00000000 56364.26562500  5006484.50000000 3962991.75000000 
0.04700    109992392.00000000 68960528.00000000 174182544.00000000 55217.20703125  4916432.00000000 3891988.25000000 
0.04800    108275136.00000000 67896456.00000000 171479744.00000000 54076.95312500  4826556.50000000 3821174.25000000 
0.04900    106559480.00000000 66832272.00000000 168777696.00000000 52944.02734375  4737061.50000000 3750619.00000000 
0.05000    104845904.00000000 65769688.00000000 166078704.00000000 51819.78906250  4647939.50000000 3680364.75000000 
0.05100    103136456.00000000 64709280.00000000 163385600.00000000 50705.16015625  4559339.50000000 3610475.50000000 
0.05200    101431264.00000000 63651476.00000000 160697504.00000000 49601.14453125  4471252.50000000 3541030.75000000 
0.05300    99733480.00000000 62597028.00000000 158022432.00000000 48508.23828125  4383812.50000000 3472059.50000000 
0.05400    98043168.00000000 61547192.00000000 155357248.00000000 47427.74609375  4297040.50000000 3403604.75000000 
0.05500    96360400.00000000 60502716.00000000 152707024.00000000 46360.14453125  4211033.00000000 3335748.75000000 
0.05600    94689192.00000000 59463784.00000000 150071632.00000000 45306.01171875  4125829.00000000 3268503.50000000 
0.05700    93028760.00000000 58431864.00000000 147454144.00000000 44266.27343750  4041475.75000000 3201963.50000000 
0.05800    91380416.00000000 57407120.00000000 144855680.00000000 43240.99609375  3958069.00000000 3136122.00000000 
0.05900    89746352.00000000 56390492.00000000 142276480.00000000 42231.57031250  3875603.25000000 3071010.25000000 
0.06000    88125864.00000000 55382376.00000000 139720624.00000000 41237.50781250  3794160.25000000 3006702.00000000 
0.06100    86520856.00000000 54383272.00000000 137188224.00000000 40260.11328125  3713773.00000000 2943231.50000000 
0.06200    84931800.00000000 53394132.00000000 134680656.00000000 39299.10937500  3634476.00000000 2880599.50000000 
0.06300    83360144.00000000 52415100.00000000 132199320.00000000 38354.83203125  3556331.25000000 2818865.75000000 
0.06400    81805576.00000000 51446848.00000000 129745304.00000000 37428.18750000  3479296.50000000 2758031.00000000 
0.06500    80269160.00000000 50489744.00000000 127320008.00000000 36519.00781250  3403508.50000000 2698105.75000000 
0.06600    78751632.00000000 49544408.00000000 124924960.00000000 35627.21093750  3328879.75000000 2639162.75000000 
0.06700    77255152.00000000 48610784.00000000 122560592.00000000 34753.30468750  3255518.25000000 2581183.25000000 
0.06800    75778248.00000000 47689500.00000000 120227432.00000000 33897.35937500  3183421.00000000 2524190.50000000 
0.06900    74322472.00000000 46781164.00000000 117928160.00000000 33059.30078125  3112597.00000000 2468188.50000000 
0.07000    72887784.00000000 45885804.00000000 115660840.00000000 32239.53515625  3043026.50000000 2413212.25000000 
0.07100    71474448.00000000 45003452.00000000 113427912.00000000 31437.42578125  2974789.25000000 2359254.25000000 
0.07200    70083832.00000000 44135184.00000000 111228816.00000000 30653.69335938  2907842.00000000 2306291.25000000 
0.07300    68715304.00000000 43279912.00000000 109066152.00000000 29887.78515625  2842190.25000000 2254399.75000000 
0.07400    67369056.00000000 42439508.00000000 106938248.00000000 29139.17968750  2777885.75000000 2203527.50000000 
0.07500    66046492.00000000 41612396.00000000 104846976.00000000 28408.47656250  2714891.50000000 2153676.00000000 
0.07600    64746456.00000000 40799904.00000000 102790928.00000000 27695.06250000  2653185.50000000 2104867.25000000 
0.07700    63469956.00000000 40001452.00000000 100772408.00000000 26998.89257812  2592786.75000000 2057089.25000000 
0.07800    62216344.00000000 39217924.00000000 98789928.00000000 26319.88085938  2533699.00000000 2010312.62500000 
0.07900    60986496.00000000 38448524.00000000 96844208.00000000 25657.41992188  2475891.75000000 1964573.25000000 
0.08000    59780072.00000000 37693836.00000000 94935496.00000000 25011.59179688  2419362.50000000 1919845.25000000 
0.08100    58597244.00000000 36953548.00000000 93064744.00000000 24381.99609375  2364129.75000000 1876125.00000000 
0.08200    57437424.00000000 36227932.00000000 91229712.00000000 23768.12109375  2310130.25000000 1833384.12500000 
0.08300    56300808.00000000 35516804.00000000 89431960.00000000 23170.19140625  2257365.50000000 1791615.50000000 
0.08400    55187852.00000000 34819800.00000000 87669160.00000000 22587.37304688  2205833.00000000 1750823.50000000 
0.08500    54097772.00000000 34137132.00000000 85944840.00000000 22019.55273438  2155502.50000000 1710971.37500000 
0.08600    53030368.00000000 33469302.00000000 84256016.00000000 21466.23242188  2106354.25000000 1672065.12500000 
0.08700    51985888.00000000 32815576.00000000 82602632.00000000 20927.42773438  2058372.12500000 1634068.87500000 
0.08800    50963908.00000000 32175502.00000000 80985208.00000000 20402.31835938  2011516.50000000 1596990.50000000 
0.08900    49963912.00000000 31549476.00000000 79402896.00000000 19890.89257812  1965808.12500000 1560784.87500000 
0.09000    48986176.00000000 30937132.00000000 77854992.00000000 19392.61328125  1921172.87500000 1525449.00000000 
0.09100    48030180.00000000 30338446.00000000 76341960.00000000 18907.05273438  1877623.75000000 1490964.25000000 
0.09200    47095392.00000000 29752836.00000000 74861672.00000000 18434.18750000  1835116.00000000 1457310.87500000 
0.09300    46181544.00000000 29180622.00000000 73415880.00000000 17973.30078125  1793645.37500000 1424470.87500000 
0.09400    45288436.00000000 28621356.00000000 72002336.00000000 17524.20312500  1753158.62500000 1392418.62500000 
0.09500    44415468.00000000 28074868.00000000 70620328.00000000 17086.37304688  1713658.50000000 1361138.75000000 
0.09600    43562248.00000000 27541100.00000000 69271392.00000000 16659.91406250  1675114.50000000 1330615.62500000 
0.09700    42729224.00000000 27019578.00000000 67952432.00000000 16244.22363281  1637486.87500000 1300834.00000000 
0.09800    41915052.00000000 26510006.00000000 66664700.00000000 15838.78515625  1600775.00000000 1271755.62500000 
0.09900    41120268.00000000 26012416.00000000 65406804.00000000 15443.53906250  1564920.87500000 1243378.00000000 
0.10000    40343196.00000000 25526482.00000000 64177560.00000000 15058.00585938  1529932.62500000 1215667.25000000 
0.10100    39584152.00000000 25051678.00000000 62977012.00000000 14681.92285156  1495754.50000000 1188610.00000000 
0.10200    38842904.00000000 24587986.00000000 61804696.00000000 14315.11132812  1462386.00000000 1162197.12500000 
0.10300    38118816.00000000 24135252.00000000 60659216.00000000 13957.14160156  1429807.00000000 1136387.87500000 
0.10400    37411508.00000000 23692982.00000000 59540868.00000000 13607.77832031  1397970.25000000 1111183.25000000 
0.10500    36720444.00000000 23261188.00000000 58448080.00000000 13266.82324219  1366877.62500000 1086565.62500000 
0.10600    36045480.00000000 22839248.00000000 57380552.00000000 12933.97558594  1336472.87500000 1062503.62500000 
0.10700    35385584.00000000 22427440.00000000 56337784.00000000 12608.98535156  1306773.62500000 1038989.00000000 
0.10800    34741316.00000000 22024942.00000000 55319192.00000000 12291.62500000  1277741.87500000 1016005.12500000 
0.10900    34111408.00000000 21631720.00000000 54323324.00000000 11981.60839844  1249341.00000000 993528.75000000 
0.11000    33495744.00000000 21247446.00000000 53350664.00000000 11678.94140625  1221579.37500000 971547.43750000 
0.11100    32893942.00000000 20872044.00000000 52400012.00000000 11383.11914062  1194430.50000000 950049.00000000 
0.11200    32305788.00000000 20505166.00000000 51470456.00000000 11094.12500000  1167857.12500000 929012.81250000 
0.11300    31730408.00000000 20146442.00000000 50561892.00000000 10811.84375000  1141865.00000000 908428.43750000 
0.11400    31167680.00000000 19795798.00000000 49673780.00000000 10536.00976562  1116417.87500000 888281.00000000 
0.11500    30617530.00000000 19452768.00000000 48804748.00000000 10266.50292969  1091512.87500000 868559.93750000 
0.11600    30079098.00000000 19117402.00000000 47954700.00000000 10003.16992188  1067121.75000000 849243.87500000 
0.11700    29552552.00000000 18789600.00000000 47123500.00000000 9745.84960938   1043241.37500000 830326.62500000 
0.11800    29036750.00000000 18468556.00000000 46309436.00000000 9494.31542969   1019846.50000000 811806.06250000 
0.11900    28532086.00000000 18154498.00000000 45513116.00000000 9248.59863281   996940.75000000 793653.12500000 
0.12000    28037814.00000000 17846882.00000000 44733220.00000000 9008.43164062   974489.06250000 775862.43750000 
0.12100    27553934.00000000 17546034.00000000 43969756.00000000 8773.85351562   952490.81250000 758439.81250000 
0.12200    27079924.00000000 17250916.00000000 43221592.00000000 8544.69726562   930934.68750000 741353.37500000 
0.12300    26615286.00000000 16962284.00000000 42489096.00000000 8320.87402344   909813.18750000 724610.75000000 
0.12400    26160230.00000000 16679359.00000000 41770952.00000000 8102.24121094   889099.62500000 708188.18750000 
0.12500    25713726.00000000 16401965.00000000 41067196.00000000 7888.74560547   868790.12500000 692087.06250000 
0.12600    25276324.00000000 16130188.00000000 40377440.00000000 7680.31152344   848891.50000000 676303.06250000 
0.12700    24847352.00000000 15863619.00000000 39700900.00000000 7476.83056641   829381.87500000 660826.37500000 
0.12800    24426568.00000000 15602208.00000000 39037228.00000000 7278.23486328   810247.81250000 645644.00000000 
0.12900    24013876.00000000 15345674.00000000 38386352.00000000 7084.47412109   791494.00000000 630753.93750000 
0.13000    23608738.00000000 15094062.00000000 37747476.00000000 6895.47216797   773099.50000000 616149.43750000 
0.13100    23211042.00000000 14846875.00000000 37120364.00000000 6711.10156250   755063.87500000 601825.93750000 
0.13200    22820668.00000000 14604367.00000000 36504928.00000000 6531.38232422   737386.00000000 587780.50000000 
0.13300    22437522.00000000 14366249.00000000 35900544.00000000 6356.21972656   720045.12500000 574004.00000000 
0.13400    22061170.00000000 14132245.00000000 35306644.00000000 6185.52246094   703054.18750000 560496.87500000 
0.13500    21691398.00000000 13902520.00000000 34723380.00000000 6019.19921875   686396.31250000 547240.37500000 
0.13600    21328202.00000000 13676603.00000000 34150440.00000000 5857.25195312   670063.12500000 534247.25000000 
0.13700    20971080.00000000 13454603.00000000 33587428.00000000 5699.56884766   654059.56250000 521504.50000000 
0.13800    20620388.00000000 13236494.00000000 33033768.00000000 5546.05615234   638361.81250000 509014.59375000 
0.13900    20275566.00000000 13021891.00000000 32489642.00000000 5396.80566406   622987.00000000 496767.90625000 
0.14000    19936804.00000000 12810996.00000000 31954678.00000000 5251.56738281   607920.62500000 484759.50000000 
0.14100    19603642.00000000 12603420.00000000 31428562.00000000 5110.37109375   593164.62500000 472994.71875000 
0.14200    19276006.00000000 12399270.00000000 30911184.00000000 4973.14306641   578703.81250000 461461.28125000 
0.14300    18954020.00000000 12198413.00000000 30402010.00000000 4839.74316406   564543.62500000 450164.00000000 
0.14400    18636960.00000000 12000748.00000000 29901340.00000000 4710.20410156   550672.37500000 439091.40625000 
0.14500    18325262.00000000 11806239.00000000 29408702.00000000 4584.44482422   537092.25000000 428246.87500000 
0.14600    18018744.00000000 11614828.00000000 28923960.00000000 4462.34228516   523803.84375000 417626.15625000 
0.14700    17717306.00000000 11426376.00000000 28447032.00000000 4343.83105469   510792.78125000 407228.50000000 
0.14800    17420596.00000000 11240774.00000000 27977406.00000000 4228.85058594   498059.81250000 397043.09375000 
0.14900    17128728.00000000 11058111.00000000 27515388.00000000 4117.31054688   485601.75000000 387072.53125000 
0.15000    16841496.00000000 10878174.00000000 27060590.00000000 4009.14965820   473413.71875000 377317.71875000 
0.15100    16558793.00000000 10701003.00000000 26612942.00000000 3904.29882812   461488.68750000 367769.78125000 
0.15200    16280854.00000000 10526609.00000000 26172158.00000000 3802.74853516   449836.46875000 358431.37500000 
0.15300    16007238.00000000 10354738.00000000 25738244.00000000 3704.26000977   438438.06250000 349293.46875000 
0.15400    15737927.00000000 10185518.00000000 25311264.00000000 3608.84985352   427294.50000000 340355.56250000 
0.15500    15473014.00000000 10018797.00000000 24890804.00000000 3516.43481445   416404.43750000 331619.96875000 
0.15600    15212237.00000000 9854604.00000000 24476644.00000000 3426.89013672   405761.68750000 323074.56250000 
0.15700    14955744.00000000 9692847.00000000 24069238.00000000 3340.22021484   395364.40625000 314726.15625000 
0.15800    14703150.00000000 9533549.00000000 23667666.00000000 3256.25000000   385207.34375000 306563.03125000 
0.15900    14454708.00000000 9376684.00000000 23272706.00000000 3174.96557617   375285.18750000 298590.06250000 
0.16000    14210184.00000000 9222092.00000000 22883674.00000000 3096.23535156   365593.46875000 290799.37500000 
0.16100    13969655.00000000 9069826.00000000 22500676.00000000 3020.02929688   356134.84375000 283191.34375000 
0.16200    13732964.00000000 8919816.00000000 22123682.00000000 2946.25195312   346899.15625000 275757.09375000 
0.16300    13499999.00000000 8772127.00000000 21752714.00000000 2874.74853516   337882.96875000 268498.43750000 
0.16400    13270849.00000000 8626614.00000000 21387188.00000000 2805.58300781   329082.43750000 261412.81250000 
0.16500    13045420.00000000 8483370.00000000 21027506.00000000 2738.57202148   320496.68750000 254493.82812500 
0.16600    12823605.00000000 8342177.50000000 20673416.00000000 2673.64697266   312115.65625000 247740.82812500 
0.16700    12605301.00000000 8203164.00000000 20325088.00000000 2610.75634766   303939.46875000 241150.15625000 
0.16800    12390551.00000000 8066197.50000000 19981882.00000000 2549.79858398   295954.65625000 234714.65625000 
0.16900    12179485.00000000 7931407.50000000 19644228.00000000 2490.77905273   288173.31250000 228438.57812500 
0.17000    11971633.00000000 7798652.00000000 19312038.00000000 2433.53808594   280579.56250000 222314.03125000 
