# SAXS profile: number of points = 501, q_min = 0, q_max = 0.5, delta_q = 0.001
#    q    intensity 
0.00000    162231360.00000000 101202224.00000000 256270064.00000000 110851.96875000 8481599.00000000 6698757.50000000 
0.00100    162193984.00000000 101175768.00000000 256203296.00000000 110814.00000000 8479049.00000000 6696753.00000000 
0.00200    162073744.00000000 101097480.00000000 256005184.00000000 110699.57031250 8471317.00000000 6690669.50000000 
0.00300    161865312.00000000 100967496.00000000 255673280.00000000 110510.68750000 8458440.00000000 6680591.00000000 
0.00400    161567328.00000000 100784688.00000000 255209456.00000000 110245.67968750 8440504.00000000 6666415.50000000 
0.00500    161186800.00000000 100549168.00000000 254613728.00000000 109907.42968750 8417521.00000000 6648280.00000000 
0.00600    160726672.00000000 100264808.00000000 253889600.00000000 109494.74218750 8389512.00000000 6626273.50000000 
0.00700    160176640.00000000 99929840.00000000 253036592.00000000 109009.71875000 8356524.50000000 6600346.50000000 
0.00800    159553968.00000000 99545088.00000000 252055984.00000000 108452.91406250 8318734.50000000 6570590.50000000 
0.00900    158851408.00000000 99111920.00000000 250951744.00000000 107826.77343750 8276083.50000000 6537048.50000000 
0.01000    158071776.00000000 98629920.00000000 249724592.00000000 107131.92968750 8228811.50000000 6499853.00000000 
0.01100    157216816.00000000 98099752.00000000 248376976.00000000 106370.62500000 8176963.50000000 6459028.00000000 
0.01200    156281264.00000000 97523568.00000000 246911664.00000000 105545.48437500 8120669.50000000 6414681.50000000 
0.01300    155277824.00000000 96902712.00000000 245331296.00000000 104656.94531250 8059958.00000000 6366943.50000000 
0.01400    154202304.00000000 96238016.00000000 243641408.00000000 103708.55468750 7995081.00000000 6315878.00000000 
0.01500    153058928.00000000 95531832.00000000 241842448.00000000 102700.92968750 7926170.00000000 6261625.00000000 
0.01600    151845648.00000000 94783632.00000000 239937488.00000000 101639.01562500 7853361.00000000 6204320.00000000 
0.01700    150571280.00000000 93994816.00000000 237933168.00000000 100522.64062500 7776738.00000000 6144025.00000000 
0.01800    149235664.00000000 93168536.00000000 235829424.00000000 99356.08593750  7696602.00000000 6080943.00000000 
0.01900    147838416.00000000 92305304.00000000 233634368.00000000 98142.00781250  7613085.50000000 6015135.00000000 
0.02000    146385184.00000000 91407344.00000000 231349456.00000000 96883.37500000  7526249.50000000 5946778.50000000 
0.02100    144878272.00000000 90474808.00000000 228978192.00000000 95582.36718750  7436383.50000000 5876033.00000000 
0.02200    143320240.00000000 89511480.00000000 226528096.00000000 94242.28906250  7343669.00000000 5802999.00000000 
0.02300    141713648.00000000 88517792.00000000 223999760.00000000 92865.97656250  7248270.50000000 5727864.50000000 
0.02400    140061312.00000000 87494992.00000000 221402160.00000000 91456.59375000  7150345.50000000 5650758.00000000 
0.02500    138368384.00000000 86445952.00000000 218734736.00000000 90017.47656250  7050138.50000000 5571866.00000000 
0.02600    136632912.00000000 85372128.00000000 216006912.00000000 88550.78125000  6947892.50000000 5491248.00000000 
0.02700    134862368.00000000 84276008.00000000 213220064.00000000 87061.42968750  6843710.50000000 5409181.00000000 
0.02800    133059648.00000000 83158448.00000000 210380080.00000000 85550.39843750  6737796.50000000 5325697.50000000 
0.02900    131224736.00000000 82021744.00000000 207492192.00000000 84021.49218750  6630376.00000000 5241080.50000000 
0.03000    129363232.00000000 80867672.00000000 204560720.00000000 82477.75781250  6521677.50000000 5155431.00000000 
0.03100    127476048.00000000 79698336.00000000 201588368.00000000 80923.12500000  6411852.50000000 5068878.50000000 
0.03200    125568832.00000000 78515360.00000000 198584864.00000000 79359.26562500  6301104.50000000 4981575.00000000 
0.03300    123642992.00000000 77321632.00000000 195552432.00000000 77789.06250000  6189651.50000000 4893708.50000000 
0.03400    121700200.00000000 76118192.00000000 192493104.00000000 76216.42968750  6077563.00000000 4805407.00000000 
0.03500    119747008.00000000 74904744.00000000 189413312.00000000 74642.78906250  5965237.50000000 4716787.50000000 
0.03600    117782424.00000000 73685536.00000000 186318224.00000000 73072.21093750  5852636.00000000 4628019.00000000 
0.03700    115812096.00000000 72461136.00000000 183213184.00000000 71505.35156250  5740067.50000000 4539236.50000000 
0.03800    113837784.00000000 71235536.00000000 180099296.00000000 69945.86718750  5627580.50000000 4450486.50000000 
0.03900    111861640.00000000 70007144.00000000 176983824.00000000 68396.78125000  5515468.00000000 4362075.50000000 
0.04000    109886256.00000000 68780128.00000000 173869680.00000000 66858.57031250  5403816.50000000 4274009.00000000 
0.04100    107915224.00000000 67554848.00000000 170763488.00000000 65334.14453125  5292823.00000000 4186389.50000000 
0.04200    105951272.00000000 66333084.00000000 167664992.00000000 63825.68359375  5182559.00000000 4099390.00000000 
0.04300    103995208.00000000 65116028.00000000 164579552.00000000 62335.37500000  5073214.00000000 4013100.00000000 
0.04400    102050848.00000000 63905920.00000000 161510496.00000000 60864.66406250  4964934.50000000 3927634.00000000 
0.04500    100118384.00000000 62703336.00000000 158462704.00000000 59414.83984375  4857771.50000000 3843051.00000000 
0.04600    98202312.00000000 61510356.00000000 155437200.00000000 57987.56640625  4751925.50000000 3759458.25000000 
0.04700    96302336.00000000 60327256.00000000 152440448.00000000 56584.76953125  4647427.00000000 3676970.25000000 
0.04800    94422448.00000000 59155852.00000000 149471184.00000000 55206.58203125  4544416.50000000 3595620.00000000 
0.04900    92562680.00000000 57997128.00000000 146535888.00000000 53854.92578125  4442954.00000000 3515511.75000000 
0.05000    90725280.00000000 56852536.00000000 143635728.00000000 52530.37109375  4343205.50000000 3436712.00000000 
0.05100    88913200.00000000 55721972.00000000 140773104.00000000 51234.16015625  4245131.50000000 3359251.25000000 
0.05200    87126344.00000000 54607160.00000000 137949696.00000000 49966.76562500  4148868.00000000 3283189.75000000 
0.05300    85366552.00000000 53509068.00000000 135170480.00000000 48728.57421875  4054457.50000000 3208618.00000000 
0.05400    83633776.00000000 52428308.00000000 132433176.00000000 47520.26562500  3961955.00000000 3135521.75000000 
0.05500    81930912.00000000 51365712.00000000 129743336.00000000 46342.03906250  3871423.00000000 3063985.25000000 
0.05600    80257952.00000000 50321880.00000000 127100288.00000000 45194.38671875  3782842.75000000 2994013.00000000 
0.05700    78617376.00000000 49296700.00000000 124505552.00000000 44077.24218750  3696324.50000000 2925629.25000000 
0.05800    77007008.00000000 48291364.00000000 121961792.00000000 42990.88281250  3611820.50000000 2858829.25000000 
0.05900    75429544.00000000 47306156.00000000 119468184.00000000 41934.57031250  3529391.50000000 2793683.25000000 
0.06000    73885712.00000000 46341736.00000000 117027384.00000000 40908.45703125  3448999.75000000 2730149.75000000 
0.06100    72375712.00000000 45397536.00000000 114640016.00000000 39912.17578125  3370671.75000000 2668251.50000000 
0.06200    70898984.00000000 44475400.00000000 112305160.00000000 38946.06250000  3294423.50000000 2607988.75000000 
0.06300    69455968.00000000 43573256.00000000 110023952.00000000 38008.48437500  3220206.00000000 2549318.00000000 
0.06400    68046984.00000000 42693192.00000000 107797832.00000000 37099.80468750  3148025.50000000 2492258.25000000 
0.06500    66674480.00000000 41834588.00000000 105625456.00000000 36218.82421875  3077870.00000000 2436797.75000000 
0.06600    65334664.00000000 40997524.00000000 103507720.00000000 35365.53125000  3009732.75000000 2382919.50000000 
0.06700    64029512.00000000 40181424.00000000 101444032.00000000 34539.08593750  2943539.50000000 2330584.50000000 
0.06800    62758688.00000000 39387260.00000000 99435456.00000000 33738.18750000  2879226.75000000 2279788.25000000 
0.06900    61522028.00000000 38614332.00000000 97479360.00000000 32963.03515625  2816861.25000000 2230501.00000000 
0.07000    60318268.00000000 37862468.00000000 95576704.00000000 32211.97070312  2756303.75000000 2182625.50000000 
0.07100    59148016.00000000 37131148.00000000 93726744.00000000 31484.23437500  2697558.75000000 2136210.75000000 
0.07200    58009804.00000000 36420912.00000000 91927888.00000000 30779.36914062  2640570.25000000 2091180.62500000 
0.07300    56904700.00000000 35730500.00000000 90180704.00000000 30096.59765625  2585316.75000000 2047531.50000000 
0.07400    55831012.00000000 35060200.00000000 88484288.00000000 29434.35351562  2531691.25000000 2005174.50000000 
0.07500    54788520.00000000 34409412.00000000 86837128.00000000 28792.36132812  2479679.50000000 1964095.75000000 
0.07600    53776396.00000000 33778052.00000000 85238424.00000000 28169.30664062  2429212.00000000 1924245.25000000 
0.07700    52793668.00000000 33165924.00000000 83686632.00000000 27564.85742188  2380247.50000000 1885580.62500000 
0.07800    51840584.00000000 32571574.00000000 82180472.00000000 26977.58789062  2332718.00000000 1848040.75000000 
0.07900    50915308.00000000 31995426.00000000 80720080.00000000 26406.83789062  2286571.00000000 1811617.75000000 
0.08000    50017208.00000000 31436402.00000000 79303224.00000000 25851.86523438  2241737.75000000 1776252.50000000 
0.08100    49145676.00000000 30894602.00000000 77929496.00000000 25311.54492188  2198195.00000000 1741874.00000000 
0.08200    48300540.00000000 30368982.00000000 76596232.00000000 24785.70312500  2155860.25000000 1708481.87500000 
0.08300    47480332.00000000 29859358.00000000 75302472.00000000 24272.68164062  2114677.25000000 1676003.62500000 
0.08400    46684028.00000000 29365214.00000000 74048344.00000000 23772.40820312  2074614.37500000 1644389.87500000 
0.08500    45911416.00000000 28885916.00000000 72831232.00000000 23283.94531250  2035576.00000000 1613615.37500000 
0.08600    45161284.00000000 28420982.00000000 71649816.00000000 22806.91992188  1997554.62500000 1583652.00000000 
0.08700    44432536.00000000 27969838.00000000 70503008.00000000 22340.30468750  1960470.25000000 1554422.62500000 
0.08800    43724620.00000000 27531948.00000000 69389608.00000000 21883.60156250  1924298.75000000 1525921.75000000 
0.08900    43036664.00000000 27106516.00000000 68307288.00000000 21436.29687500  1888973.00000000 1498083.00000000 
0.09000    42367952.00000000 26693736.00000000 67256544.00000000 20998.02148438  1854440.25000000 1470888.75000000 
0.09100    41717604.00000000 26292334.00000000 66233704.00000000 20567.94921875  1820696.25000000 1444286.00000000 
0.09200    41084744.00000000 25902030.00000000 65239764.00000000 20146.00781250  1787664.25000000 1418268.37500000 
0.09300    40468132.00000000 25522696.00000000 64271980.00000000 19731.68750000  1755311.87500000 1392782.00000000 
0.09400    39867784.00000000 25153228.00000000 63330088.00000000 19324.36914062  1723595.12500000 1367807.12500000 
0.09500    39282332.00000000 24793496.00000000 62411932.00000000 18924.16406250  1692496.00000000 1343317.75000000 
0.09600    38711440.00000000 24442918.00000000 61516524.00000000 18530.29492188  1661969.12500000 1319267.87500000 
0.09700    38154216.00000000 24101124.00000000 60643484.00000000 18142.92968750  1631984.37500000 1295649.87500000 
0.09800    37609792.00000000 23767520.00000000 59790752.00000000 17761.81445312  1602530.37500000 1272462.00000000 
0.09900    37077988.00000000 23441798.00000000 58958136.00000000 17386.49218750  1573557.87500000 1249638.25000000 
0.10000    36557448.00000000 23123638.00000000 58143672.00000000 17016.96679688  1545056.00000000 1227176.87500000 
0.10100    36048280.00000000 22811966.00000000 57346980.00000000 16652.95898438  1516983.62500000 1205060.12500000 
0.10200    35549080.00000000 22507372.00000000 56566568.00000000 16294.73828125  1489344.75000000 1183294.87500000 
0.10300    35059684.00000000 22208602.00000000 55801668.00000000 15941.66601562  1462115.75000000 1161810.25000000 
0.10400    34580488.00000000 21915856.00000000 55052228.00000000 15594.11425781  1435262.62500000 1140644.50000000 
0.10500    34110024.00000000 21628574.00000000 54316416.00000000 15251.97265625  1408784.75000000 1119770.62500000 
0.10600    33647464.00000000 21346806.00000000 53593788.00000000 14914.97851562  1382664.00000000 1099162.12500000 
0.10700    33192892.00000000 21069576.00000000 52883860.00000000 14583.38671875  1356906.87500000 1078839.12500000 
0.10800    32745728.00000000 20797184.00000000 52185440.00000000 14257.10937500  1331479.62500000 1058752.00000000 
0.10900    32305664.00000000 20529034.00000000 51497944.00000000 13936.13378906  1306360.12500000 1038937.50000000 
0.11000    31872214.00000000 20264758.00000000 50821000.00000000 13620.63183594  1281592.12500000 1019362.50000000 
0.11100    31445298.00000000 20004632.00000000 50154084.00000000 13310.41015625  1257141.87500000 1000034.06250000 
0.11200    31024240.00000000 19748044.00000000 49496288.00000000 13005.51464844  1232982.37500000 980944.43750000 
0.11300    30608794.00000000 19494632.00000000 48846920.00000000 12706.15136719  1209142.25000000 962080.00000000 
0.11400    30198780.00000000 19244590.00000000 48206136.00000000 12412.27441406  1185618.00000000 943465.37500000 
0.11500    29793844.00000000 18997702.00000000 47572928.00000000 12123.82910156  1162370.75000000 925069.31250000 
0.11600    29393806.00000000 18753386.00000000 46947704.00000000 11840.99609375  1139441.00000000 906905.06250000 
0.11700    28998356.00000000 18512018.00000000 46329268.00000000 11563.70410156  1116815.87500000 888970.43750000 
0.11800    28607486.00000000 18273062.00000000 45717224.00000000 11291.98535156  1094476.12500000 871265.56250000 
0.11900    28220774.00000000 18036454.00000000 45112400.00000000 11025.90917969  1072442.75000000 853785.25000000 
0.12000    27838146.00000000 17802220.00000000 44512824.00000000 10765.30468750  1050698.12500000 836531.06250000 
0.12100    27459394.00000000 17570146.00000000 43920004.00000000 10510.52832031  1029266.50000000 819517.56250000 
0.12200    27084462.00000000 17340288.00000000 43332480.00000000 10261.26464844  1008127.93750000 802733.31250000 
0.12300    26713266.00000000 17112394.00000000 42750472.00000000 10017.66992188  987295.81250000 786177.75000000 
0.12400    26345488.00000000 16886272.00000000 42173440.00000000 9779.43261719   966758.68750000 769853.37500000 
0.12500    25981204.00000000 16662002.00000000 41601664.00000000 9546.83203125   946530.56250000 753758.31250000 
0.12600    25620302.00000000 16439807.00000000 41034972.00000000 9319.82617188   926611.12500000 737904.56250000 
0.12700    25262818.00000000 16219191.00000000 40472572.00000000 9097.99902344   906990.62500000 722285.12500000 
0.12800    24908376.00000000 16000352.00000000 39915580.00000000 8881.72363281   887673.81250000 706898.81250000 
0.12900    24557150.00000000 15783217.00000000 39362840.00000000 8670.61718750   868660.87500000 691752.06250000 
0.13000    24209030.00000000 15567665.00000000 38815052.00000000 8464.78613281   849955.00000000 676843.56250000 
0.13100    23864000.00000000 15353817.00000000 38271304.00000000 8263.96777344   831554.93750000 662171.06250000 
0.13200    23521836.00000000 15141504.00000000 37732336.00000000 8068.19775391   813459.81250000 647735.68750000 
0.13300    23182872.00000000 14931014.00000000 37197576.00000000 7877.25390625   795669.06250000 633540.31250000 
0.13400    22846696.00000000 14721718.00000000 36667104.00000000 7691.03759766   778172.87500000 619576.68750000 
0.13500    22513814.00000000 14514343.00000000 36140868.00000000 7509.63574219   760985.37500000 605856.00000000 
0.13600    22183684.00000000 14308378.00000000 35619496.00000000 7332.68359375   744096.81250000 592369.18750000 
0.13700    21856606.00000000 14103969.00000000 35102180.00000000 7160.12304688   727505.31250000 579119.37500000 
0.13800    21532310.00000000 13901163.00000000 34589024.00000000 6991.77099609   711211.25000000 566093.43750000 
0.13900    21210870.00000000 13699920.00000000 34080128.00000000 6827.52001953   695204.06250000 553305.87500000 
0.14000    20892714.00000000 13500271.00000000 33575980.00000000 6667.33154297   679489.81250000 540749.62500000 
0.14100    20577276.00000000 13302281.00000000 33076352.00000000 6510.91406250   664064.50000000 528421.87500000 
0.14200    20264786.00000000 13105865.00000000 32580876.00000000 6358.26318359   648927.12500000 516319.06250000 
0.14300    19955432.00000000 12911111.00000000 32089566.00000000 6209.16650391   634064.37500000 504441.00000000 
0.14400    19648590.00000000 12717827.00000000 31602644.00000000 6063.44042969   619483.18750000 492780.37500000 
0.14500    19345252.00000000 12526439.00000000 31120568.00000000 5921.07470703   605172.43750000 481342.15625000 
0.14600    19044682.00000000 12336651.00000000 30642848.00000000 5781.84619141   591138.75000000 470119.81250000 
0.14700    18747164.00000000 12148508.00000000 30169620.00000000 5645.71923828   577371.87500000 459111.40625000 
0.14800    18452650.00000000 11962027.00000000 29701000.00000000 5512.41796875   563863.31250000 448312.28125000 
0.14900    18160958.00000000 11777381.00000000 29236904.00000000 5381.97460938   550613.68750000 437717.15625000 
0.15000    17872570.00000000 11594396.00000000 28777430.00000000 5254.27929688   537617.75000000 427329.59375000 
0.15100    17587296.00000000 11413254.00000000 28322488.00000000 5129.10107422   524867.12500000 417141.21875000 
0.15200    17304982.00000000 11233851.00000000 27872490.00000000 5006.50976562   512373.03125000 407157.12500000 
0.15300    17025738.00000000 11056305.00000000 27427176.00000000 4886.27490234   500118.65625000 397359.65625000 
0.15400    16749539.00000000 10880479.00000000 26986420.00000000 4768.38574219   488097.37500000 387757.03125000 
0.15500    16476718.00000000 10706561.00000000 26550524.00000000 4652.77832031   476315.06250000 378339.90625000 
0.15600    16206831.00000000 10534396.00000000 26119688.00000000 4539.34667969   464757.50000000 369114.56250000 
0.15700    15940024.00000000 10364198.00000000 25693648.00000000 4428.03857422   453431.12500000 360068.31250000 
0.15800    15676360.00000000 10195783.00000000 25272042.00000000 4318.82324219   442325.21875000 351199.18750000 
0.15900    15416010.00000000 10029348.00000000 24855652.00000000 4211.68945312   431437.96875000 342509.15625000 
0.16000    15158595.00000000 9864816.00000000 24444262.00000000 4106.51611328   420767.12500000 333990.90625000 
0.16100    14904674.00000000 9702260.00000000 24037840.00000000 4003.32226562   410312.56250000 325648.40625000 
0.16200    14653764.00000000 9541568.00000000 23636324.00000000 3902.11108398   400062.40625000 317469.31250000 
0.16300    14406136.00000000 9382861.00000000 23239864.00000000 3802.76953125   390020.90625000 309457.28125000 
0.16400    14161654.00000000 9226023.00000000 22848244.00000000 3705.43334961   380184.03125000 301609.40625000 
0.16500    13920389.00000000 9071286.00000000 22462062.00000000 3609.98852539   370545.93750000 293921.40625000 
0.16600    13682386.00000000 8918529.00000000 22080462.00000000 3516.46069336   361104.53125000 286391.81250000 
0.16700    13447567.00000000 8767595.00000000 21704312.00000000 3424.77807617   351856.59375000 279015.25000000 
0.16800    13215942.00000000 8618664.00000000 21332848.00000000 3335.04687500   342800.81250000 271791.96875000 
0.16900    12987634.00000000 8471799.00000000 20966712.00000000 3247.24658203   333933.62500000 264724.78125000 
0.17000    12762461.00000000 8326927.50000000 20605600.00000000 3161.37597656   325256.50000000 257800.50000000 
