# SAXS profile: number of points = 501, q_min = 0, q_max = 0.5, delta_q = 0.001
#    q    intensity 
0.00000    162235104.00000000 101201448.00000000 256270992.00000000 100536.87500000 8077370.00000000 6379475.50000000 
0.00100    162209200.00000000 101184144.00000000 256225840.00000000 100511.56250000 8075653.00000000 6378144.50000000 
0.00200    162126208.00000000 101132304.00000000 256094160.00000000 100437.41406250 8070524.50000000 6374093.00000000 
0.00300    161988128.00000000 101045504.00000000 255872912.00000000 100313.63281250 8061938.00000000 6367382.50000000 
0.00400    161789680.00000000 100923768.00000000 255563568.00000000 100140.36718750 8049927.00000000 6357952.00000000 
0.00500    161535584.00000000 100767080.00000000 255164768.00000000 99918.42187500  8034583.00000000 6345869.50000000 
0.00600    161225488.00000000 100577032.00000000 254678656.00000000 99647.81250000  8015845.00000000 6331139.50000000 
0.00700    160860208.00000000 100351384.00000000 254105488.00000000 99329.20312500  7993747.00000000 6313765.50000000 
0.00800    160440272.00000000 100093176.00000000 253446864.00000000 98962.53125000  7968339.00000000 6293787.50000000 
0.00900    159960784.00000000 99801176.00000000 252702064.00000000 98548.71093750  7939682.00000000 6271260.50000000 
0.01000    159433712.00000000 99476744.00000000 251874464.00000000 98088.33593750  7907720.50000000 6246129.00000000 
0.01100    158852560.00000000 99118512.00000000 250960192.00000000 97582.46093750  7872624.50000000 6218574.50000000 
0.01200    158218480.00000000 98728208.00000000 249965120.00000000 97031.78125000  7834321.00000000 6188431.00000000 
0.01300    157533504.00000000 98305712.00000000 248887184.00000000 96436.66406250  7792997.50000000 6155952.50000000 
0.01400    156794672.00000000 97851928.00000000 247729616.00000000 95798.21093750  7748517.00000000 6121003.00000000 
0.01500    156006816.00000000 97366728.00000000 246493872.00000000 95118.28125000  7701124.00000000 6083749.00000000 
0.01600    155168208.00000000 96850952.00000000 245179440.00000000 94396.45312500  7650812.50000000 6044214.00000000 
0.01700    154282784.00000000 96305448.00000000 243789056.00000000 93634.43750000  7597633.50000000 6002373.00000000 
0.01800    153349440.00000000 95730296.00000000 242324720.00000000 92834.46875000  7541698.50000000 5958415.50000000 
0.01900    152370528.00000000 95127688.00000000 240786544.00000000 91995.86718750  7483005.00000000 5912307.00000000 
0.02000    151344704.00000000 94496208.00000000 239177616.00000000 91120.78906250  7421720.50000000 5864105.00000000 
0.02100    150275040.00000000 93837864.00000000 237499280.00000000 90210.86718750  7357880.50000000 5813914.50000000 
0.02200    149163392.00000000 93152624.00000000 235754944.00000000 89267.27343750  7291563.50000000 5761749.50000000 
0.02300    148010336.00000000 92442120.00000000 233942672.00000000 88291.10156250  7222914.00000000 5707745.00000000 
0.02400    146815360.00000000 91706648.00000000 232067776.00000000 87283.50781250  7151922.50000000 5651897.00000000 
0.02500    145581824.00000000 90946496.00000000 230131376.00000000 86246.57812500  7078730.50000000 5594369.50000000 
0.02600    144310640.00000000 90162992.00000000 228135200.00000000 85181.98437500  7003448.50000000 5535137.00000000 
0.02700    143003088.00000000 89356880.00000000 226081936.00000000 84090.35156250  6926130.00000000 5474350.50000000 
0.02800    141659824.00000000 88529728.00000000 223972688.00000000 82973.96093750  6846931.00000000 5412008.50000000 
0.02900    140283888.00000000 87680856.00000000 221811456.00000000 81834.25000000  6765873.00000000 5348269.50000000 
0.03000    138875584.00000000 86812584.00000000 219599216.00000000 80672.18750000  6683104.00000000 5283164.50000000 
0.03100    137436656.00000000 85924432.00000000 217338976.00000000 79489.83593750  6598704.00000000 5216767.50000000 
0.03200    135967056.00000000 85018592.00000000 215032032.00000000 78289.01562500  6512812.50000000 5149188.00000000 
0.03300    134472288.00000000 84095800.00000000 212682032.00000000 77071.15625000  6425481.50000000 5080467.50000000 
0.03400    132949576.00000000 83155800.00000000 210290368.00000000 75837.66406250  6336834.50000000 5010672.50000000 
0.03500    131402944.00000000 82200728.00000000 207858976.00000000 74589.96875000  6246965.00000000 4939964.50000000 
0.03600    129832728.00000000 81231624.00000000 205392512.00000000 73329.81250000  6155995.00000000 4868361.00000000 
0.03700    128241072.00000000 80249320.00000000 202890400.00000000 72059.53125000  6064037.00000000 4795944.50000000 
0.03800    126629560.00000000 79253992.00000000 200357072.00000000 70779.46875000  5971159.50000000 4722833.00000000 
0.03900    125000024.00000000 78246736.00000000 197794768.00000000 69492.04687500  5877438.50000000 4649081.00000000 
0.04000    123353288.00000000 77229432.00000000 195206224.00000000 68198.37500000  5783056.50000000 4574743.00000000 
0.04100    121691040.00000000 76202176.00000000 192592896.00000000 66899.97656250  5688055.00000000 4499998.50000000 
0.04200    120015112.00000000 75167200.00000000 189958416.00000000 65598.95312500  5592595.50000000 4424772.50000000 
0.04300    118327000.00000000 74123344.00000000 187303392.00000000 64296.01171875  5496685.00000000 4349229.50000000 
0.04400    116627624.00000000 73072280.00000000 184630992.00000000 62992.88671875  5400481.00000000 4273461.00000000 
0.04500    114920040.00000000 72015984.00000000 181943728.00000000 61691.19921875  5304067.50000000 4197525.00000000 
0.04600    113204176.00000000 70953976.00000000 179243888.00000000 60392.08984375  5207567.00000000 4121448.00000000 
0.04700    111482072.00000000 69887992.00000000 176534704.00000000 59096.77343750  5110984.00000000 4045366.50000000 
0.04800    109755296.00000000 68818840.00000000 173817248.00000000 57806.77343750  5014495.00000000 3969339.50000000 
0.04900    108025600.00000000 67747680.00000000 171093680.00000000 56523.35156250  4918173.50000000 3893426.00000000 
0.05000    106293288.00000000 66674864.00000000 168367488.00000000 55247.46093750  4822057.00000000 3817664.00000000 
0.05100    104560968.00000000 65601548.00000000 165640272.00000000 53980.60937500  4726268.50000000 3742170.25000000 
0.05200    102829360.00000000 64528260.00000000 162913792.00000000 52724.01171875  4630879.50000000 3666986.00000000 
0.05300    101100176.00000000 63455936.00000000 160189136.00000000 51478.07031250  4536022.00000000 3592175.50000000 
0.05400    99373208.00000000 62386020.00000000 157470944.00000000 50244.49218750  4441707.00000000 3517802.75000000 
0.05500    97652312.00000000 61318148.00000000 154759664.00000000 49024.00000000  4348001.50000000 3443917.00000000 
0.05600    95936992.00000000 60254000.00000000 152057872.00000000 47817.53906250  4255005.00000000 3370551.75000000 
0.05700    94229232.00000000 59194252.00000000 149366176.00000000 46625.97656250  4162809.75000000 3297817.50000000 
0.05800    92529296.00000000 58139008.00000000 146688144.00000000 45450.58984375  4071404.50000000 3225725.00000000 
0.05900    90838896.00000000 57089392.00000000 144024448.00000000 44291.14453125  3980923.75000000 3154316.75000000 
0.06000    89159240.00000000 56046148.00000000 141376624.00000000 43149.07812500  3891424.00000000 3083681.75000000 
0.06100    87491456.00000000 55009880.00000000 138746960.00000000 42025.00000000  3802902.00000000 3013822.50000000 
0.06200    85835968.00000000 53980972.00000000 136137408.00000000 40919.51562500  3715463.75000000 2944792.00000000 
0.06300    84194904.00000000 52960780.00000000 133548416.00000000 39833.41796875  3629128.00000000 2876663.75000000 
0.06400    82567960.00000000 51948520.00000000 130982888.00000000 38766.63671875  3543967.50000000 2809421.25000000 
0.06500    80956736.00000000 50946292.00000000 128440416.00000000 37719.71093750  3460002.75000000 2743110.25000000 
0.06600    79360632.00000000 49953916.00000000 125923376.00000000 36693.67968750  3377279.00000000 2677782.75000000 
0.06700    77782600.00000000 48971500.00000000 123433880.00000000 35688.26171875  3295876.75000000 2613471.75000000 
0.06800    76222664.00000000 48000308.00000000 120971696.00000000 34703.57812500  3215739.75000000 2550172.75000000 
0.06900    74681024.00000000 47040492.00000000 118538512.00000000 33740.85937500  3136973.25000000 2487945.25000000 
0.07000    73159200.00000000 46092188.00000000 116135776.00000000 32799.53125000  3059571.00000000 2426789.25000000 
0.07100    71656664.00000000 45156432.00000000 113764272.00000000 31880.07812500  2983584.00000000 2366728.75000000 
0.07200    70175016.00000000 44232800.00000000 111423984.00000000 30982.28710938  2909005.25000000 2307789.75000000 
0.07300    68715176.00000000 43322152.00000000 109118048.00000000 30106.58398438  2835892.50000000 2249986.25000000 
0.07400    67275472.00000000 42424828.00000000 106845360.00000000 29252.68945312  2764206.00000000 2193304.00000000 
0.07500    65859068.00000000 41541088.00000000 104606728.00000000 28420.78710938  2694000.25000000 2137785.50000000 
0.07600    64464908.00000000 40670764.00000000 102404152.00000000 27610.81054688  2625272.75000000 2083431.37500000 
0.07700    63093460.00000000 39814956.00000000 100237152.00000000 26822.50195312  2558042.75000000 2030248.62500000 
0.07800    61745512.00000000 38973312.00000000 98106672.00000000 26055.93164062  2492285.00000000 1978241.25000000 
0.07900    60420836.00000000 38145928.00000000 96013088.00000000 25310.78320312  2428041.25000000 1927412.75000000 
0.08000    59120236.00000000 37333428.00000000 93956752.00000000 24586.71093750  2365267.50000000 1877736.00000000 
0.08100    57843620.00000000 36535524.00000000 91938472.00000000 23883.83203125  2303991.25000000 1829254.62500000 
0.08200    56591132.00000000 35752980.00000000 89958368.00000000 23201.72851562  2244204.50000000 1781925.37500000 
0.08300    55362676.00000000 34985124.00000000 88016032.00000000 22540.08789062  2185887.50000000 1735778.12500000 
0.08400    54159492.00000000 34232452.00000000 86112432.00000000 21898.40429688  2129047.50000000 1690774.87500000 
0.08500    52980356.00000000 33495412.00000000 84247744.00000000 21276.80078125  2073681.25000000 1646922.75000000 
0.08600    51826140.00000000 32773066.00000000 82421304.00000000 20674.43359375  2019743.12500000 1604222.12500000 
0.08700    50696260.00000000 32066208.00000000 80634088.00000000 20091.21484375  1967242.87500000 1562647.62500000 
0.08800    49591072.00000000 31374526.00000000 78885648.00000000 19526.52343750  1916155.50000000 1522176.12500000 
0.08900    48510732.00000000 30698302.00000000 77174904.00000000 18980.19335938  1866466.37500000 1482804.62500000 
0.09000    47454516.00000000 30036972.00000000 75503832.00000000 18451.50585938  1818156.50000000 1444534.12500000 
0.09100    46422812.00000000 29390782.00000000 73871160.00000000 17940.21289062  1771190.00000000 1407332.25000000 
0.09200    45415228.00000000 28759842.00000000 72276040.00000000 17445.83984375  1725570.50000000 1371174.75000000 
0.09300    44431728.00000000 28143750.00000000 70719400.00000000 16967.89843750  1681250.87500000 1336057.12500000 
0.09400    43472140.00000000 27542530.00000000 69200024.00000000 16505.91601562  1638224.12500000 1301955.62500000 
0.09500    42536088.00000000 26956082.00000000 67718088.00000000 16059.22070312  1596451.62500000 1268842.75000000 
0.09600    41623368.00000000 26383992.00000000 66272640.00000000 15627.64257812  1555914.87500000 1236711.87500000 
0.09700    40734268.00000000 25826788.00000000 64864364.00000000 15210.55761719  1516595.75000000 1205535.25000000 
0.09800    39867768.00000000 25283622.00000000 63492248.00000000 14807.44238281  1478441.12500000 1175298.50000000 
0.09900    39023544.00000000 24754490.00000000 62155700.00000000 14417.87792969  1441441.50000000 1145961.12500000 
0.10000    38201708.00000000 24239380.00000000 60854276.00000000 14041.38378906  1405573.00000000 1117513.25000000 
0.10100    37401764.00000000 23737784.00000000 59587428.00000000 13677.38476562  1370795.12500000 1089933.25000000 
0.10200    36623516.00000000 23249766.00000000 58354692.00000000 13325.51074219  1337074.37500000 1063189.37500000 
0.10300    35866288.00000000 22775082.00000000 57155332.00000000 12985.19238281  1304382.50000000 1037261.43750000 
0.10400    35129732.00000000 22313612.00000000 55989308.00000000 12656.11132812  1272713.37500000 1012138.37500000 
0.10500    34413772.00000000 21864700.00000000 54855464.00000000 12337.74121094  1242007.00000000 987789.81250000 
0.10600    33717752.00000000 21428438.00000000 53753156.00000000 12029.59375000  1212239.50000000 964172.75000000 
0.10700    33041282.00000000 21004474.00000000 52682068.00000000 11731.29101562  1183394.50000000 941297.43750000 
0.10800    32384330.00000000 20592568.00000000 51641048.00000000 11442.42871094  1155427.25000000 919111.56250000 
0.10900    31745940.00000000 20192430.00000000 50630424.00000000 11162.47656250  1128326.12500000 897605.37500000 
0.11000    31125816.00000000 19803876.00000000 49648408.00000000 10891.10839844  1102045.50000000 876755.43750000 
0.11100    30523676.00000000 19426466.00000000 48694992.00000000 10628.10742188  1076572.25000000 856544.25000000 
0.11200    29939042.00000000 19060218.00000000 47768984.00000000 10372.83398438  1051855.62500000 836929.62500000 
0.11300    29371136.00000000 18704468.00000000 46870100.00000000 10125.09082031  1027881.00000000 817912.43750000 
0.11400    28819902.00000000 18359302.00000000 45997600.00000000 9884.47949219   1004626.06250000 799461.50000000 
0.11500    28284864.00000000 18024110.00000000 45150400.00000000 9650.66113281   982054.25000000 781556.37500000 
0.11600    27765416.00000000 17698838.00000000 44328292.00000000 9423.43261719   960149.43750000 764163.75000000 
0.11700    27261168.00000000 17383128.00000000 43530040.00000000 9202.32519531   938873.87500000 747286.56250000 
0.11800    26771658.00000000 17076858.00000000 42755104.00000000 8987.11621094   918211.06250000 730888.50000000 
0.11900    26296342.00000000 16779496.00000000 42003180.00000000 8777.51562500   898129.68750000 714954.43750000 
0.12000    25834830.00000000 16490740.00000000 41273032.00000000 8573.40820312   878614.68750000 699464.68750000 
0.12100    25386814.00000000 16210686.00000000 40564508.00000000 8374.37890625   859635.75000000 684400.25000000 
0.12200    24951804.00000000 15938701.00000000 39876308.00000000 8180.27246094   841176.06250000 669743.50000000 
0.12300    24529338.00000000 15674539.00000000 39208128.00000000 7990.89550781   823211.25000000 655489.75000000 
0.12400    24118850.00000000 15418090.00000000 38558816.00000000 7805.99414062   805722.93750000 641600.68750000 
0.12500    23719996.00000000 15168910.00000000 37928268.00000000 7625.42382812   788680.06250000 628075.62500000 
0.12600    23332420.00000000 14926883.00000000 37315456.00000000 7448.98046875   772082.62500000 614889.50000000 
0.12700    22955764.00000000 14691701.00000000 36720056.00000000 7276.49951172   755897.93750000 602037.68750000 
0.12800    22589490.00000000 14462954.00000000 36141000.00000000 7107.91992188   740109.31250000 589504.18750000 
0.12900    22233326.00000000 14240697.00000000 35578168.00000000 6943.01904297   724706.31250000 577265.62500000 
0.13000    21886844.00000000 14024354.00000000 35030280.00000000 6781.63427734   709670.12500000 565321.87500000 
0.13100    21549426.00000000 13813886.00000000 34497080.00000000 6623.76416016   694979.12500000 553654.12500000 
0.13200    21220770.00000000 13608993.00000000 33978240.00000000 6469.20800781   680626.37500000 542245.68750000 
0.13300    20900992.00000000 13409525.00000000 33472824.00000000 6317.94628906   666597.56250000 531091.37500000 
0.13400    20589142.00000000 13215091.00000000 32980182.00000000 6169.81591797   652876.56250000 520185.06250000 
0.13500    20285104.00000000 13025474.00000000 32499866.00000000 6024.79931641   639450.06250000 509507.65625000 
0.13600    19988574.00000000 12840573.00000000 32031382.00000000 5882.80078125   626305.68750000 499053.15625000 
0.13700    19699266.00000000 12660225.00000000 31574216.00000000 5743.77539062   613432.37500000 488811.78125000 
0.13800    19416570.00000000 12483944.00000000 31127718.00000000 5607.62744141   600821.25000000 478779.65625000 
0.13900    19140554.00000000 12311825.00000000 30691608.00000000 5474.32177734   588465.00000000 468942.68750000 
0.14000    18870588.00000000 12143566.00000000 30265194.00000000 5343.82910156   576346.93750000 459293.43750000 
0.14100    18606760.00000000 11979047.00000000 29848168.00000000 5216.07617188   564468.56250000 449828.81250000 
0.14200    18348404.00000000 11817859.00000000 29439896.00000000 5091.11523438   552806.31250000 440541.12500000 
0.14300    18095484.00000000 11660042.00000000 29040068.00000000 4968.83935547   541364.00000000 431419.93750000 
0.14400    17847350.00000000 11505324.00000000 28648096.00000000 4849.16748047   530133.68750000 422464.78125000 
0.14500    17604334.00000000 11353637.00000000 28264006.00000000 4732.19140625   519104.06250000 413666.34375000 
0.14600    17365886.00000000 11204702.00000000 27886836.00000000 4617.80859375   508268.75000000 405026.46875000 
0.14700    17131636.00000000 11058499.00000000 27516714.00000000 4506.06103516   497629.75000000 396531.84375000 
0.14800    16901624.00000000 10914722.00000000 27152826.00000000 4396.82714844   487172.65625000 388177.65625000 
0.14900    16675573.00000000 10773282.00000000 26794986.00000000 4290.16992188   476890.50000000 379967.03125000 
0.15000    16453102.00000000 10634152.00000000 26443040.00000000 4186.00683594   466786.59375000 371889.90625000 
0.15100    16234144.00000000 10497085.00000000 26096452.00000000 4084.40454102   456851.18750000 363948.75000000 
0.15200    16018626.00000000 10362055.00000000 25755230.00000000 3985.30590820   447083.68750000 356137.62500000 
0.15300    15806104.00000000 10228897.00000000 25418448.00000000 3888.64062500   437478.09375000 348447.93750000 
0.15400    15596579.00000000 10097413.00000000 25086556.00000000 3794.42163086   428026.81250000 340882.62500000 
0.15500    15389962.00000000 9967659.00000000 24758866.00000000 3702.64160156   418730.40625000 333440.18750000 
0.15600    15185804.00000000 9839463.00000000 24435136.00000000 3613.21215820   409587.71875000 326109.12500000 
0.15700    14984161.00000000 9712690.00000000 24115450.00000000 3526.21582031   400592.28125000 318899.46875000 
0.15800    14784951.00000000 9587276.00000000 23799106.00000000 3441.49658203   391738.18750000 311799.65625000 
0.15900    14587856.00000000 9463109.00000000 23486174.00000000 3359.15063477   383032.09375000 304813.81250000 
0.16000    14392929.00000000 9340232.00000000 23176414.00000000 3279.04345703   374462.03125000 297933.71875000 
0.16100    14200032.00000000 9218420.00000000 22869962.00000000 3201.25146484   366030.71875000 291162.18750000 
0.16200    14008997.00000000 9097665.00000000 22566014.00000000 3125.61523438   357735.59375000 284498.00000000 
0.16300    13819658.00000000 8978021.00000000 22264794.00000000 3052.17187500   349570.84375000 277938.34375000 
0.16400    13632025.00000000 8859232.00000000 21966198.00000000 2980.89086914   341538.65625000 271479.96875000 
0.16500    13445944.00000000 8741345.00000000 21669870.00000000 2911.69238281   333635.84375000 265122.90625000 
0.16600    13261542.00000000 8624306.00000000 21375936.00000000 2844.55981445   325859.21875000 258866.90625000 
0.16700    13078340.00000000 8508068.00000000 21083950.00000000 2779.40747070   318204.87500000 252707.10937500 
0.16800    12896612.00000000 8392417.00000000 20793992.00000000 2716.20922852   310676.40625000 246642.46875000 
0.16900    12716185.00000000 8277613.00000000 20506082.00000000 2654.97656250   303270.90625000 240679.12500000 
0.17000    12536983.00000000 8163467.00000000 20219976.00000000 2595.57836914   295980.15625000 234807.03125000 
