# SAXS profile: number of points = 501, q_min = 0, q_max = 0.5, delta_q = 0.001
#    q    intensity 
0.00000    162234752.00000000 101201856.00000000 256270416.00000000 110724.53906250 8476835.00000000 6694920.50000000 
0.00100    162194576.00000000 101174936.00000000 256202992.00000000 110687.52343750 8474220.00000000 6692915.00000000 
0.00200    162067136.00000000 101093880.00000000 255997824.00000000 110577.03906250 8466528.00000000 6686883.00000000 
0.00300    161852848.00000000 100960384.00000000 255657360.00000000 110392.75000000 8453767.00000000 6676846.00000000 
0.00400    161549136.00000000 100773336.00000000 255180176.00000000 110136.53125000 8435920.00000000 6662796.00000000 
0.00500    161157968.00000000 100532216.00000000 254569296.00000000 109806.93750000 8413075.00000000 6644842.50000000 
0.00600    160682672.00000000 100237976.00000000 253820640.00000000 109406.39062500 8385239.50000000 6622989.00000000 
0.00700    160121808.00000000 99893112.00000000 252943792.00000000 108934.84375000 8352504.00000000 6597192.50000000 
0.00800    159474464.00000000 99497752.00000000 251935520.00000000 108392.95312500 8314900.00000000 6567599.50000000 
0.00900    158752224.00000000 99051512.00000000 250798800.00000000 107783.70312500 8272479.50000000 6534251.00000000 
0.01000    157949344.00000000 98556384.00000000 249533264.00000000 107106.34375000 8225435.00000000 6497236.00000000 
0.01100    157067840.00000000 98009864.00000000 248144688.00000000 106363.88281250 8173747.00000000 6456628.00000000 
0.01200    156106480.00000000 97416384.00000000 246634656.00000000 105558.08593750 8117575.00000000 6412416.50000000 
0.01300    155067840.00000000 96775784.00000000 245004576.00000000 104689.60156250 8057029.00000000 6364832.50000000 
0.01400    153956224.00000000 96089952.00000000 243259280.00000000 103761.26562500 7992259.00000000 6313847.50000000 
0.01500    152774240.00000000 95360120.00000000 241400848.00000000 102774.80468750 7923319.00000000 6259649.50000000 
0.01600    151523456.00000000 94586880.00000000 239433024.00000000 101731.87500000 7850429.00000000 6202337.50000000 
0.01700    150202304.00000000 93771688.00000000 237359184.00000000 100635.69531250 7773704.50000000 6141966.50000000 
0.01800    148818272.00000000 92916312.00000000 235181504.00000000 99488.77343750  7693272.00000000 6078696.00000000 
0.01900    147370896.00000000 92023440.00000000 232906736.00000000 98291.98437500  7609313.50000000 6012644.00000000 
0.02000    145863488.00000000 91091424.00000000 230537296.00000000 97049.20312500  7521970.50000000 5943933.50000000 
0.02100    144299264.00000000 90125352.00000000 228078000.00000000 95762.41406250  7431493.00000000 5872695.50000000 
0.02200    142680080.00000000 89125184.00000000 225532944.00000000 94434.59375000  7337946.50000000 5799120.00000000 
0.02300    141009536.00000000 88092224.00000000 222904800.00000000 93068.83593750  7241579.00000000 5723253.50000000 
0.02400    139288096.00000000 87029088.00000000 220201040.00000000 91666.95312500  7142526.50000000 5645313.50000000 
0.02500    137523232.00000000 85937456.00000000 217424832.00000000 90232.72656250  7040997.00000000 5565438.00000000 
0.02600    135714208.00000000 84818728.00000000 214577840.00000000 88768.46875000  6937165.00000000 5483667.00000000 
0.02700    133864936.00000000 83674688.00000000 211670000.00000000 87276.78906250  6831268.50000000 5400293.50000000 
0.02800    131978800.00000000 82508760.00000000 208703136.00000000 85761.39062500  6723382.50000000 5315379.50000000 
0.02900    130058432.00000000 81320528.00000000 205682672.00000000 84224.60156250  6613836.00000000 5229086.00000000 
0.03000    128108832.00000000 80113864.00000000 202614480.00000000 82669.16406250  6502745.00000000 5141632.50000000 
0.03100    126129856.00000000 78889136.00000000 199501552.00000000 81098.12500000  6390255.00000000 5053060.00000000 
0.03200    124127152.00000000 77648432.00000000 196347392.00000000 79513.85937500  6276592.00000000 4963578.50000000 
0.03300    122102408.00000000 76395000.00000000 193161504.00000000 77919.96875000  6162011.50000000 4873354.00000000 
0.03400    120058808.00000000 75130152.00000000 189947376.00000000 76318.92187500  6046637.00000000 4782475.50000000 
0.03500    118000896.00000000 73855880.00000000 186706720.00000000 74713.06250000  5930693.50000000 4691136.00000000 
0.03600    115929648.00000000 72573552.00000000 183447040.00000000 73104.87500000  5814292.50000000 4599437.50000000 
0.03700    113849368.00000000 71284320.00000000 180171232.00000000 71497.65625000  5697709.00000000 4507580.50000000 
0.03800    111763064.00000000 69991176.00000000 176885984.00000000 69893.26562500  5580989.00000000 4415616.00000000 
0.03900    109672720.00000000 68695032.00000000 173594144.00000000 68295.01562500  5464459.50000000 4323757.50000000 
0.04000    107581152.00000000 67397840.00000000 170299936.00000000 66704.11718750  5348079.00000000 4232065.00000000 
0.04100    105493312.00000000 66102576.00000000 167011744.00000000 65123.07031250  5232212.00000000 4140710.25000000 
0.04200    103409440.00000000 64809508.00000000 163729984.00000000 63554.50390625  5116935.50000000 4049792.25000000 
0.04300    101333504.00000000 63521120.00000000 160457152.00000000 62000.43750000  5002450.00000000 3959487.50000000 
0.04400    99267464.00000000 62238512.00000000 157200624.00000000 60462.87890625  4888720.50000000 3869854.75000000 
0.04500    97213776.00000000 60963592.00000000 153964832.00000000 58943.00781250  4776075.00000000 3781012.50000000 
0.04600    95175568.00000000 59697640.00000000 150751520.00000000 57443.02343750  4664592.50000000 3693073.25000000 
0.04700    93154608.00000000 58442480.00000000 147564720.00000000 55964.91796875  4554378.00000000 3606122.25000000 
0.04800    91152800.00000000 57198304.00000000 144408816.00000000 54509.90234375  4445534.50000000 3520269.75000000 
0.04900    89172680.00000000 55967800.00000000 141286688.00000000 53079.51562500  4338240.50000000 3435594.25000000 
0.05000    87216736.00000000 54751028.00000000 138202656.00000000 51674.84765625  4232569.50000000 3352182.25000000 
0.05100    85286040.00000000 53550360.00000000 135157168.00000000 50296.82421875  4128542.50000000 3270122.50000000 
0.05200    83382000.00000000 52366332.00000000 132155064.00000000 48947.21875000  4026351.75000000 3189452.75000000 
0.05300    81507800.00000000 51200012.00000000 129197064.00000000 47626.30078125  3926038.75000000 3110251.75000000 
0.05400    79663720.00000000 50052436.00000000 126288080.00000000 46335.60937500  3827668.00000000 3032595.25000000 
0.05500    77851496.00000000 48924488.00000000 123428896.00000000 45075.19531250  3731358.75000000 2956522.50000000 
0.05600    76073200.00000000 47816964.00000000 120621976.00000000 43845.89062500  3637088.75000000 2882099.75000000 
0.05700    74330008.00000000 46731056.00000000 117869504.00000000 42648.50390625  3544988.00000000 2809332.00000000 
0.05800    72621912.00000000 45666656.00000000 115173384.00000000 41482.92578125  3455038.00000000 2738282.75000000 
0.05900    70950448.00000000 44625236.00000000 112534984.00000000 40349.77734375  3367336.75000000 2668988.50000000 
0.06000    69317288.00000000 43607504.00000000 109955936.00000000 39249.23437500  3281884.00000000 2601472.50000000 
0.06100    67722960.00000000 42613208.00000000 107436680.00000000 38181.29687500  3198686.50000000 2535713.75000000 
0.06200    66166580.00000000 41642740.00000000 104979416.00000000 37145.72265625  3117790.25000000 2471779.50000000 
0.06300    64650288.00000000 40697224.00000000 102585216.00000000 36143.06640625  3039217.75000000 2409682.25000000 
0.06400    63175084.00000000 39776672.00000000 100253632.00000000 35171.87500000  2962941.75000000 2349374.75000000 
0.06500    61739220.00000000 38881176.00000000 97985360.00000000 34233.36328125  2888950.00000000 2290877.75000000 
0.06600    60344716.00000000 38010424.00000000 95782112.00000000 33325.94531250  2817297.00000000 2234226.00000000 
0.06700    58991380.00000000 37165204.00000000 93642736.00000000 32450.06640625  2747903.00000000 2179324.00000000 
0.06800    57678412.00000000 36345536.00000000 91567784.00000000 31604.65625000  2680794.50000000 2126255.25000000 
0.06900    56406572.00000000 35551204.00000000 89557392.00000000 30789.87695312  2615927.75000000 2074936.75000000 
0.07000    55175592.00000000 34782108.00000000 87611608.00000000 30004.13085938  2553252.50000000 2025369.12500000 
0.07100    53984580.00000000 34038064.00000000 85729112.00000000 29247.35546875  2492772.00000000 1977536.62500000 
0.07200    52833728.00000000 33319674.00000000 83909424.00000000 28518.25781250  2434440.50000000 1931392.87500000 
0.07300    51722784.00000000 32625506.00000000 82153536.00000000 27817.24218750  2378192.00000000 1886899.87500000 
0.07400    50651468.00000000 31956050.00000000 80460304.00000000 27142.21679688  2324006.50000000 1844040.00000000 
0.07500    49618316.00000000 31311040.00000000 78826784.00000000 26492.92187500  2271855.50000000 1802756.00000000 
0.07600    48623444.00000000 30689520.00000000 77254264.00000000 25868.53320312  2221638.75000000 1763022.62500000 
0.07700    47666072.00000000 30091364.00000000 75740560.00000000 25267.93750000  2173350.25000000 1724798.75000000 
0.07800    46745020.00000000 29516258.00000000 74285600.00000000 24690.36914062  2126866.25000000 1688030.87500000 
0.07900    45860136.00000000 28963542.00000000 72886000.00000000 24134.93554688  2082180.12500000 1652669.25000000 
0.08000    45010164.00000000 28432844.00000000 71542504.00000000 23600.52343750  2039236.25000000 1618688.62500000 
0.08100    44194304.00000000 27923470.00000000 70253384.00000000 23086.39843750  1997941.37500000 1586014.25000000 
0.08200    43411260.00000000 27434834.00000000 69015632.00000000 22591.29492188  1958232.50000000 1554609.25000000 
0.08300    42660560.00000000 26966452.00000000 67830704.00000000 22114.66406250  1920083.37500000 1524412.00000000 
0.08400    41940720.00000000 26517586.00000000 66693500.00000000 21655.28906250  1883360.62500000 1495378.62500000 
0.08500    41251280.00000000 26087746.00000000 65604700.00000000 21212.50195312  1848074.25000000 1467459.12500000 
0.08600    40590544.00000000 25676328.00000000 64561636.00000000 20785.41601562  1814102.87500000 1440598.62500000 
0.08700    39957912.00000000 25282226.00000000 63562324.00000000 20372.52343750  1781417.25000000 1414735.62500000 
0.08800    39351580.00000000 24904912.00000000 62605588.00000000 19973.68750000  1749912.87500000 1389835.62500000 
0.08900    38771252.00000000 24544084.00000000 61690408.00000000 19587.66601562  1719566.50000000 1365845.62500000 
0.09000    38214804.00000000 24198700.00000000 60813796.00000000 19213.82226562  1690291.00000000 1342695.37500000 
0.09100    37682100.00000000 23867898.00000000 59974136.00000000 18851.37304688  1662017.75000000 1320345.25000000 
0.09200    37171480.00000000 23551218.00000000 59170400.00000000 18499.26367188  1634686.62500000 1298749.75000000 
0.09300    36682060.00000000 23247832.00000000 58399064.00000000 18157.14843750  1608255.12500000 1277861.75000000 
0.09400    36212836.00000000 22957196.00000000 57659880.00000000 17824.15820312  1582643.25000000 1257630.37500000 
0.09500    35761848.00000000 22678370.00000000 56950508.00000000 17499.53515625  1557800.25000000 1238008.25000000 
0.09600    35328856.00000000 22410852.00000000 56269876.00000000 17182.57226562  1533683.50000000 1218959.37500000 
0.09700    34912344.00000000 22153976.00000000 55615592.00000000 16873.10351562  1510213.00000000 1200435.25000000 
0.09800    34511280.00000000 21906784.00000000 54985712.00000000 16570.12304688  1487362.62500000 1182390.50000000 
0.09900    34124724.00000000 21668880.00000000 54378980.00000000 16273.45703125  1465067.87500000 1164792.37500000 
0.10000    33751360.00000000 21439426.00000000 53793380.00000000 15982.28710938  1443281.00000000 1147590.87500000 
0.10100    33390654.00000000 21217898.00000000 53227656.00000000 15696.35058594  1421962.25000000 1130759.00000000 
0.10200    33040992.00000000 21003670.00000000 52680340.00000000 15415.26171875  1401059.50000000 1114266.50000000 
0.10300    32701968.00000000 20795932.00000000 52149256.00000000 15138.56542969  1380556.75000000 1098075.87500000 
0.10400    32372390.00000000 20594462.00000000 51633660.00000000 14865.80273438  1360379.87500000 1082173.00000000 
0.10500    32051874.00000000 20398376.00000000 51132096.00000000 14596.99218750  1340528.37500000 1066498.25000000 
0.10600    31738594.00000000 20207154.00000000 50642380.00000000 14331.54785156  1320937.50000000 1051031.37500000 
0.10700    31432332.00000000 20020416.00000000 50163816.00000000 14069.31835938  1301604.75000000 1035765.68750000 
0.10800    31132230.00000000 19837622.00000000 49695056.00000000 13809.99609375  1282476.25000000 1020676.12500000 
0.10900    30837578.00000000 19658284.00000000 49235416.00000000 13553.63476562  1263538.12500000 1005722.81250000 
0.11000    30547544.00000000 19481730.00000000 48782732.00000000 13299.87695312  1244775.87500000 990898.43750000 
0.11100    30261594.00000000 19307790.00000000 48336376.00000000 13048.61328125  1226146.12500000 976195.00000000 
0.11200    29979152.00000000 19135980.00000000 47895344.00000000 12799.77832031  1207650.25000000 961577.62500000 
0.11300    29699310.00000000 18965808.00000000 47458876.00000000 12553.21484375  1189253.87500000 947045.43750000 
0.11400    29421800.00000000 18797022.00000000 47025872.00000000 12309.14648438  1170967.37500000 932583.31250000 
0.11500    29145764.00000000 18629534.00000000 46595360.00000000 12067.01464844  1152751.87500000 918183.06250000 
0.11600    28871120.00000000 18462220.00000000 46166808.00000000 11827.12109375  1134602.37500000 903823.12500000 
0.11700    28597522.00000000 18295556.00000000 45739488.00000000 11589.61132812  1116521.12500000 889521.00000000 
0.11800    28323804.00000000 18129104.00000000 45312428.00000000 11354.06445312  1098485.25000000 875238.75000000 
0.11900    28050256.00000000 17962478.00000000 44885108.00000000 11120.88574219  1080502.62500000 861002.56250000 
0.12000    27776438.00000000 17795560.00000000 44457316.00000000 10889.79882812  1062550.50000000 846791.56250000 
0.12100    27501948.00000000 17628208.00000000 44028404.00000000 10661.12109375  1044666.06250000 832609.18750000 
0.12200    27226738.00000000 17460150.00000000 43597780.00000000 10434.78710938  1026801.18750000 818448.87500000 
0.12300    26950320.00000000 17291158.00000000 43165464.00000000 10210.83886719  1008985.62500000 804315.68750000 
0.12400    26672556.00000000 17121032.00000000 42730436.00000000 9989.25390625   991214.81250000 790212.87500000 
0.12500    26393374.00000000 16949840.00000000 42292996.00000000 9770.25878906   973479.25000000 776136.25000000 
0.12600    26112620.00000000 16777708.00000000 41853496.00000000 9553.94433594   955809.87500000 762097.87500000 
0.12700    25830198.00000000 16604110.00000000 41409820.00000000 9340.19238281   938179.87500000 748092.31250000 
0.12800    25546002.00000000 16429196.00000000 40963796.00000000 9129.28320312   920613.68750000 734127.06250000 
0.12900    25259764.00000000 16252987.00000000 40514628.00000000 8921.10644531   903117.75000000 720209.50000000 
0.13000    24972022.00000000 16075295.00000000 40062016.00000000 8715.88281250   885692.37500000 706337.75000000 
0.13100    24682216.00000000 15896189.00000000 39606072.00000000 8513.57421875   868342.43750000 692527.43750000 
0.13200    24390496.00000000 15715667.00000000 39147140.00000000 8314.26855469   851082.81250000 678779.37500000 
0.13300    24097394.00000000 15533870.00000000 38685084.00000000 8118.18652344   833919.12500000 665100.75000000 
0.13400    23802154.00000000 15350622.00000000 38220180.00000000 7925.21289062   816860.37500000 651499.75000000 
0.13500    23505494.00000000 15166196.00000000 37751800.00000000 7735.47119141   799914.87500000 637978.37500000 
0.13600    23207414.00000000 14980499.00000000 37281412.00000000 7548.96435547   783086.75000000 624553.37500000 
0.13700    22907640.00000000 14793733.00000000 36807764.00000000 7365.81933594   766391.37500000 611225.81250000 
0.13800    22606824.00000000 14605704.00000000 36332156.00000000 7185.95605469   749834.31250000 598001.12500000 
0.13900    22304788.00000000 14416853.00000000 35854344.00000000 7009.57226562   733430.62500000 584887.50000000 
0.14000    22001700.00000000 14226971.00000000 35374348.00000000 6836.56835938   717179.50000000 571898.12500000 
0.14100    21697886.00000000 14036412.00000000 34892968.00000000 6667.03613281   701096.93750000 559039.50000000 
0.14200    21393458.00000000 13845124.00000000 34410356.00000000 6500.88476562   685184.87500000 546310.31250000 
0.14300    21088640.00000000 13653343.00000000 33926404.00000000 6338.26513672   669459.62500000 533725.56250000 
0.14400    20783170.00000000 13461029.00000000 33441614.00000000 6179.06250000   653929.12500000 521281.62500000 
0.14500    20477828.00000000 13268400.00000000 32956562.00000000 6023.37695312   638590.87500000 508999.34375000 
0.14600    20172696.00000000 13075626.00000000 32471084.00000000 5871.08300781   623461.12500000 496875.25000000 
0.14700    19867822.00000000 12882704.00000000 31986082.00000000 5722.33203125   608539.81250000 484918.25000000 
0.14800    19563356.00000000 12689923.00000000 31501324.00000000 5576.98291016   593837.75000000 473131.00000000 
0.14900    19259532.00000000 12497285.00000000 31017448.00000000 5434.94970703   579357.68750000 461518.37500000 
0.15000    18956578.00000000 12305035.00000000 30534794.00000000 5296.36132812   565110.68750000 450085.68750000 
0.15100    18654940.00000000 12113187.00000000 30053416.00000000 5161.04931641   551099.37500000 438839.68750000 
0.15200    18354466.00000000 11921995.00000000 29574154.00000000 5029.13867188   537322.56250000 427790.40625000 
0.15300    18055570.00000000 11731512.00000000 29096668.00000000 4900.42480469   523802.34375000 416924.78125000 
0.15400    17758368.00000000 11541792.00000000 28621598.00000000 4774.99169922   510517.46875000 406252.21875000 
0.15500    17462914.00000000 11353169.00000000 28149374.00000000 4652.63671875   497485.12500000 395783.65625000 
0.15600    17169630.00000000 11165506.00000000 27680154.00000000 4533.46484375   484705.81250000 385518.25000000 
0.15700    16878494.00000000 10979115.00000000 27214276.00000000 4417.40527344   472187.62500000 375453.12500000 
0.15800    16589941.00000000 10794102.00000000 26751760.00000000 4304.25097656   459914.28125000 365594.15625000 
0.15900    16303887.00000000 10610515.00000000 26293434.00000000 4194.13183594   447908.12500000 355936.87500000 
0.16000    16020432.00000000 10428512.00000000 25839146.00000000 4086.88842773   436158.87500000 346490.28125000 
0.16100    15739940.00000000 10248111.00000000 25389366.00000000 3982.62426758   424672.15625000 337251.96875000 
0.16200    15462493.00000000 10069522.00000000 24943768.00000000 3881.05175781   413442.37500000 328219.65625000 
0.16300    15188212.00000000 9892717.00000000 24503430.00000000 3782.21850586   402472.21875000 319393.40625000 
0.16400    14917134.00000000 9718027.00000000 24068200.00000000 3686.11718750   391762.87500000 310779.34375000 
0.16500    14649511.00000000 9545230.00000000 23637922.00000000 3592.63989258   381308.71875000 302365.43750000 
0.16600    14385373.00000000 9374519.00000000 23213240.00000000 3501.70751953   371110.03125000 294160.18750000 
0.16700    14124958.00000000 9205950.00000000 22794224.00000000 3413.30688477   361163.68750000 286158.93750000 
0.16800    13868152.00000000 9039762.00000000 22381014.00000000 3327.37548828   351470.75000000 278354.90625000 
0.16900    13615255.00000000 8875934.00000000 21973710.00000000 3243.89038086   342028.31250000 270760.21875000 
0.17000    13366108.00000000 8714389.00000000 21572432.00000000 3162.72143555   332832.09375000 263356.43750000 
