# SAXS profile: number of points = 501, q_min = 0, q_max = 0.5, delta_q = 0.001
#    q    intensity 
0.00000    162236432.00000000 101202112.00000000 256271424.00000000 100634.36718750 8081306.50000000 6382587.50000000 
0.00100    162197104.00000000 101176296.00000000 256206080.00000000 100604.04687500 8079026.50000000 6380814.00000000 
0.00200    162074992.00000000 101099168.00000000 256010416.00000000 100513.50781250 8072250.00000000 6375455.50000000 
0.00300    161868528.00000000 100969840.00000000 255682992.00000000 100363.09375000 8061022.00000000 6366628.00000000 
0.00400    161577056.00000000 100790208.00000000 255225856.00000000 100153.05468750 8045294.00000000 6354225.50000000 
0.00500    161205600.00000000 100559808.00000000 254641440.00000000 99883.13281250  8025144.00000000 6338362.00000000 
0.00600    160750624.00000000 100277272.00000000 253924208.00000000 99554.84375000  8000567.50000000 6318992.00000000 
0.00700    160216320.00000000 99946512.00000000 253085744.00000000 99168.50781250  7971697.50000000 6296234.50000000 
0.00800    159598640.00000000 99566424.00000000 252118736.00000000 98724.68750000  7938445.00000000 6270082.50000000 
0.00900    158907360.00000000 99137464.00000000 251029216.00000000 98224.93750000  7901038.00000000 6240600.50000000 
0.01000    158139088.00000000 98661440.00000000 249817920.00000000 97669.23437500  7859427.50000000 6207839.50000000 
0.01100    157295024.00000000 98137296.00000000 248487232.00000000 97059.79687500  7813708.50000000 6171837.50000000 
0.01200    156376592.00000000 97567584.00000000 247039856.00000000 96397.14062500  7764081.50000000 6132715.50000000 
0.01300    155382624.00000000 96952216.00000000 245476816.00000000 95682.40625000  7710506.50000000 6090489.50000000 
0.01400    154320624.00000000 96292888.00000000 243803184.00000000 94917.47656250  7653111.00000000 6045291.50000000 
0.01500    153188784.00000000 95590840.00000000 242021696.00000000 94104.11718750  7592019.00000000 5997185.50000000 
0.01600    151990784.00000000 94848152.00000000 240133888.00000000 93242.90625000  7527391.00000000 5946290.50000000 
0.01700    150727744.00000000 94065336.00000000 238143776.00000000 92337.30468750  7459297.50000000 5892579.50000000 
0.01800    149400432.00000000 93242952.00000000 236055888.00000000 91387.09375000  7387883.00000000 5836368.50000000 
0.01900    148015968.00000000 92382120.00000000 233871584.00000000 90395.14062500  7313243.50000000 5777568.50000000 
0.02000    146569888.00000000 91486984.00000000 231596688.00000000 89363.60937500  7235559.50000000 5716326.00000000 
0.02100    145069584.00000000 90556496.00000000 229234512.00000000 88293.71093750  7154945.50000000 5652842.50000000 
0.02200    143517488.00000000 89593600.00000000 226789152.00000000 87188.06250000  7071542.50000000 5587116.50000000 
0.02300    141915152.00000000 88599696.00000000 224263104.00000000 86048.07031250  6985574.50000000 5519318.50000000 
0.02400    140263728.00000000 87575440.00000000 221663600.00000000 84876.65625000  6897039.50000000 5449572.50000000 
0.02500    138568256.00000000 86524064.00000000 218991824.00000000 83675.39843750  6806211.50000000 5378016.00000000 
0.02600    136831488.00000000 85445416.00000000 216254944.00000000 82446.43750000  6713233.50000000 5304711.50000000 
0.02700    135053728.00000000 84342672.00000000 213455920.00000000 81192.16406250  6618225.00000000 5229856.00000000 
0.02800    133240272.00000000 83217952.00000000 210599232.00000000 79914.86718750  6521393.00000000 5153545.50000000 
0.02900    131393832.00000000 82070568.00000000 207687696.00000000 78616.66406250  6422802.50000000 5075868.50000000 
0.03000    129515976.00000000 80905776.00000000 204729824.00000000 77299.67968750  6322730.50000000 4996923.00000000 
0.03100    127611000.00000000 79723400.00000000 201727856.00000000 75966.32031250  6221329.50000000 4917020.50000000 
0.03200    125681088.00000000 78525496.00000000 198685728.00000000 74618.46875000  6118691.00000000 4836120.00000000 
0.03300    123728584.00000000 77313128.00000000 195609568.00000000 73258.82031250  6014998.50000000 4754405.00000000 
0.03400    121757992.00000000 76089464.00000000 192504624.00000000 71888.72656250  5910449.00000000 4671952.50000000 
0.03500    119770792.00000000 74855576.00000000 189372576.00000000 70511.26562500  5805198.50000000 4588953.00000000 
0.03600    117770568.00000000 73613568.00000000 186220768.00000000 69128.54687500  5699342.50000000 4505491.00000000 
0.03700    115759832.00000000 72365208.00000000 183050752.00000000 67742.03125000  5593091.00000000 4421719.00000000 
0.03800    113741632.00000000 71111984.00000000 179869824.00000000 66354.00000000  5486560.00000000 4337735.50000000 
0.03900    111718288.00000000 69855176.00000000 176679360.00000000 64965.95703125  5379924.00000000 4253684.00000000 
0.04000    109693032.00000000 68595840.00000000 173486400.00000000 63580.87500000  5273331.00000000 4169578.75000000 
0.04100    107668096.00000000 67337976.00000000 170293648.00000000 62199.93359375  5166913.00000000 4085654.50000000 
0.04200    105646224.00000000 66081180.00000000 167106704.00000000 60824.76953125  5060792.50000000 4001955.00000000 
0.04300    103629712.00000000 64827972.00000000 163927728.00000000 59457.60156250  4955181.00000000 3918625.25000000 
0.04400    101621880.00000000 63579668.00000000 160760896.00000000 58100.21875000  4850106.50000000 3835739.00000000 
0.04500    99624632.00000000 62337952.00000000 157610144.00000000 56753.84765625  4745745.50000000 3753414.75000000 
0.04600    97638896.00000000 61103296.00000000 154480032.00000000 55420.18359375  4642146.50000000 3671711.00000000 
0.04700    95668664.00000000 59878324.00000000 151372288.00000000 54100.83203125  4539571.50000000 3590762.00000000 
0.04800    93715968.00000000 58663616.00000000 148290992.00000000 52796.83203125  4437998.50000000 3510611.75000000 
0.04900    91781192.00000000 57460892.00000000 145241392.00000000 51510.00781250  4337570.00000000 3431413.75000000 
0.05000    89868120.00000000 56270704.00000000 142222016.00000000 50241.11718750  4238401.50000000 3353143.50000000 
0.05100    87978360.00000000 55094856.00000000 139239424.00000000 48991.41796875  4140613.75000000 3275956.75000000 
0.05200    86111408.00000000 53933852.00000000 136296608.00000000 47762.11328125  4044208.00000000 3199881.50000000 
0.05300    84272088.00000000 52788844.00000000 133394296.00000000 46554.08593750  3949327.25000000 3124972.25000000 
0.05400    82459344.00000000 51661200.00000000 130535272.00000000 45368.10937500  3856019.25000000 3051351.25000000 
0.05500    80676136.00000000 50551172.00000000 127721640.00000000 44205.16406250  3764378.00000000 2978989.00000000 
0.05600    78923184.00000000 49460428.00000000 124956024.00000000 43065.90625000  3674417.50000000 2907998.00000000 
0.05700    77202552.00000000 48388984.00000000 122240024.00000000 41950.98046875  3586267.75000000 2838384.00000000 
0.05800    75513552.00000000 47337956.00000000 119575712.00000000 40861.02734375  3499911.25000000 2770203.50000000 
0.05900    73858792.00000000 46307936.00000000 116963656.00000000 39795.98046875  3415402.00000000 2703500.00000000 
0.06000    72238608.00000000 45299316.00000000 114407288.00000000 38757.39453125  3332796.00000000 2638282.75000000 
0.06100    70653968.00000000 44312632.00000000 111906816.00000000 37744.01171875  3252131.75000000 2574582.00000000 
0.06200    69105192.00000000 43348184.00000000 109462312.00000000 36757.39453125  3173434.00000000 2512428.00000000 
0.06300    67593848.00000000 42406668.00000000 107075856.00000000 35796.78906250  3096697.00000000 2451826.00000000 
0.06400    66118364.00000000 41488140.00000000 104748008.00000000 34862.44921875  3021960.50000000 2392794.00000000 
0.06500    64681212.00000000 40592580.00000000 102478480.00000000 33954.83593750  2949210.75000000 2335334.75000000 
0.06600    63281772.00000000 39721048.00000000 100269664.00000000 33073.35546875  2878471.00000000 2279471.25000000 
0.06700    61919460.00000000 38873360.00000000 98120096.00000000 32218.31835938  2809722.00000000 2225173.25000000 
0.06800    60595600.00000000 38048748.00000000 96030048.00000000 31389.12500000  2742986.00000000 2172472.50000000 
0.06900    59309824.00000000 37247812.00000000 94001152.00000000 30585.82617188  2678231.25000000 2121310.00000000 
0.07000    58061996.00000000 36470748.00000000 92031352.00000000 29807.94531250  2615451.25000000 2071700.75000000 
0.07100    56851844.00000000 35717116.00000000 90121088.00000000 29055.33593750  2554603.75000000 2023655.25000000 
0.07200    55678796.00000000 34986752.00000000 88269280.00000000 28327.00390625  2495691.50000000 1977117.00000000 
0.07300    54543396.00000000 34279396.00000000 86477368.00000000 27623.18750000  2438650.25000000 1932095.12500000 
0.07400    53444216.00000000 33595260.00000000 84743104.00000000 26943.00000000  2383522.00000000 1888534.75000000 
0.07500    52381324.00000000 32933816.00000000 83065816.00000000 26285.81250000  2330212.75000000 1846410.87500000 
0.07600    51353808.00000000 32294368.00000000 81444792.00000000 25651.28515625  2278679.50000000 1805709.37500000 
0.07700    50361852.00000000 31677164.00000000 79879680.00000000 25038.86328125  2228892.50000000 1766401.62500000 
0.07800    49404140.00000000 31081152.00000000 78368464.00000000 24447.57226562  2180857.00000000 1728440.50000000 
0.07900    48479776.00000000 30506414.00000000 76910568.00000000 23877.14257812  2134426.75000000 1691803.75000000 
0.08000    47588448.00000000 29952352.00000000 75504416.00000000 23326.64648438  2089668.00000000 1656436.37500000 
0.08100    46729124.00000000 29418010.00000000 74149648.00000000 22795.58398438  2046470.75000000 1622314.50000000 
0.08200    45901096.00000000 28903456.00000000 72844352.00000000 22282.91601562  2004769.62500000 1589396.25000000 
0.08300    45103028.00000000 28407702.00000000 71585632.00000000 21788.15429688  1964540.87500000 1557621.75000000 
0.08400    44334668.00000000 27930644.00000000 70374848.00000000 21310.75585938  1925716.00000000 1526978.00000000 
0.08500    43594172.00000000 27471358.00000000 69208784.00000000 20849.64453125  1888247.25000000 1497396.12500000 
0.08600    42881816.00000000 27029334.00000000 68086096.00000000 20404.18750000  1852076.25000000 1468837.75000000 
0.08700    42195544.00000000 26603670.00000000 67004820.00000000 19973.72265625  1817157.12500000 1441279.62500000 
0.08800    41534380.00000000 26194054.00000000 65964148.00000000 19557.38671875  1783424.62500000 1414664.87500000 
0.08900    40897848.00000000 25799854.00000000 64962176.00000000 19154.84375000  1750826.87500000 1388933.37500000 
0.09000    40284532.00000000 25420416.00000000 63997312.00000000 18764.99609375  1719302.37500000 1364053.37500000 
0.09100    39693452.00000000 25055046.00000000 63067156.00000000 18387.47265625  1688803.37500000 1339999.12500000 
0.09200    39123604.00000000 24702946.00000000 62171416.00000000 18021.31250000  1659276.50000000 1316699.50000000 
0.09300    38573876.00000000 24363598.00000000 61307440.00000000 17665.89648438  1630655.62500000 1294145.25000000 
0.09400    38043104.00000000 24036152.00000000 60473404.00000000 17320.66015625  1602901.50000000 1272244.62500000 
0.09500    37530652.00000000 23720196.00000000 59668432.00000000 16985.11328125  1575954.00000000 1250995.62500000 
0.09600    37035032.00000000 23415080.00000000 58891168.00000000 16658.53710938  1549776.25000000 1230352.75000000 
0.09700    36556016.00000000 23120128.00000000 58138788.00000000 16340.29394531  1524293.12500000 1210271.87500000 
0.09800    36091972.00000000 22834712.00000000 57410700.00000000 16029.97460938  1499497.37500000 1190710.25000000 
0.09900    35641700.00000000 22558420.00000000 56705104.00000000 15726.94921875  1475298.25000000 1171647.75000000 
0.10000    35205056.00000000 22290086.00000000 56020320.00000000 15430.75292969  1451680.25000000 1153030.87500000 
0.10100    34780432.00000000 22029784.00000000 55355000.00000000 15140.76757812  1428592.50000000 1134833.50000000 
0.10200    34367140.00000000 21776416.00000000 54707916.00000000 14857.09375000  1406003.25000000 1117026.12500000 
0.10300    33964276.00000000 21529906.00000000 54077404.00000000 14578.69921875  1383848.25000000 1099573.75000000 
0.10400    33571532.00000000 21289408.00000000 53462684.00000000 14305.44140625  1362126.12500000 1082458.12500000 
0.10500    33187342.00000000 21054648.00000000 52862068.00000000 14037.06933594  1340779.37500000 1065639.12500000 
0.10600    32811336.00000000 20824912.00000000 52273744.00000000 13772.97363281  1319798.50000000 1049090.37500000 
0.10700    32442694.00000000 20599866.00000000 51697472.00000000 13513.08105469  1299118.12500000 1032792.43750000 
0.10800    32080982.00000000 20378960.00000000 51131800.00000000 13257.07910156  1278723.00000000 1016722.43750000 
0.10900    31725070.00000000 20161856.00000000 50575764.00000000 13004.65820312  1258598.25000000 1000853.62500000 
0.11000    31374424.00000000 19948114.00000000 50028136.00000000 12755.62011719  1238725.00000000 985183.00000000 
0.11100    31028616.00000000 19737480.00000000 49487852.00000000 12509.70312500  1219053.25000000 969665.06250000 
0.11200    30687186.00000000 19529302.00000000 48954072.00000000 12266.93066406  1199582.62500000 954310.93750000 
0.11300    30349260.00000000 19323502.00000000 48426720.00000000 12026.90234375  1180284.75000000 939095.56250000 
0.11400    30014750.00000000 19119612.00000000 47904436.00000000 11789.70996094  1161145.62500000 923998.25000000 
0.11500    29683060.00000000 18917444.00000000 47385996.00000000 11555.05761719  1142170.12500000 909014.25000000 
0.11600    29353652.00000000 18716706.00000000 46871484.00000000 11322.97656250  1123336.62500000 894140.81250000 
0.11700    29026294.00000000 18517048.00000000 46360368.00000000 11093.35644531  1104607.25000000 879359.93750000 
0.11800    28700578.00000000 18318296.00000000 45851192.00000000 10866.13867188  1085995.25000000 864655.75000000 
0.11900    28375992.00000000 18120492.00000000 45344264.00000000 10641.20117188  1067496.62500000 850040.43750000 
0.12000    28052726.00000000 17923114.00000000 44838496.00000000 10418.69042969  1049099.00000000 835495.93750000 
0.12100    27730374.00000000 17726198.00000000 44334384.00000000 10198.54101562  1030802.18750000 821035.81250000 
0.12200    27408502.00000000 17529372.00000000 43830812.00000000 9980.63964844   1012597.31250000 806629.56250000 
0.12300    27086994.00000000 17332894.00000000 43327988.00000000 9765.17187500   994488.43750000 792298.87500000 
0.12400    26765868.00000000 17136386.00000000 42825096.00000000 9552.03515625   976473.50000000 778030.62500000 
0.12500    26444842.00000000 16939614.00000000 42322500.00000000 9341.35546875   958534.06250000 763830.31250000 
0.12600    26123976.00000000 16742884.00000000 41819860.00000000 9133.11621094   940709.93750000 749706.00000000 
0.12700    25803074.00000000 16546067.00000000 41316448.00000000 8927.39257812   922971.93750000 735648.18750000 
0.12800    25482220.00000000 16348900.00000000 40813396.00000000 8724.20019531   905339.50000000 721662.93750000 
0.12900    25161216.00000000 16151564.00000000 40309564.00000000 8523.59765625   887814.18750000 707756.12500000 
0.13000    24840134.00000000 15953908.00000000 39805716.00000000 8325.78320312   870391.68750000 693929.75000000 
0.13100    24518950.00000000 15756012.00000000 39301308.00000000 8130.53564453   853083.18750000 680189.81250000 
0.13200    24197942.00000000 15557780.00000000 38796536.00000000 7938.15380859   835900.62500000 666534.31250000 
0.13300    23876816.00000000 15359503.00000000 38291324.00000000 7748.57373047   818844.31250000 652978.81250000 
0.13400    23555666.00000000 15160990.00000000 37786412.00000000 7561.94384766   801918.62500000 639518.68750000 
0.13500    23234960.00000000 14962409.00000000 37281420.00000000 7378.29052734   785130.00000000 626167.62500000 
0.13600    22914282.00000000 14763668.00000000 36776376.00000000 7197.61865234   768494.50000000 612924.93750000 
0.13700    22594056.00000000 14564997.00000000 36271864.00000000 7019.94824219   752011.62500000 599803.50000000 
0.13800    22274358.00000000 14366346.00000000 35767600.00000000 6845.46630859   735688.12500000 586798.12500000 
0.13900    21955320.00000000 14167888.00000000 35263916.00000000 6674.15185547   719534.25000000 573931.50000000 
0.14000    21636896.00000000 13969603.00000000 34761328.00000000 6506.01464844   703558.87500000 561192.18750000 
0.14100    21319434.00000000 13771645.00000000 34259704.00000000 6341.12255859   687770.37500000 548597.68750000 
0.14200    21002940.00000000 13574019.00000000 33759172.00000000 6179.40380859   672164.37500000 536146.68750000 
0.14300    20687750.00000000 13376893.00000000 33260802.00000000 6021.03466797   656763.25000000 523850.56250000 
0.14400    20373700.00000000 13180314.00000000 32763706.00000000 5865.88476562   641553.43750000 511701.56250000 
0.14500    20061240.00000000 12984556.00000000 32268782.00000000 5714.11816406   626560.18750000 499722.75000000 
0.14600    19750170.00000000 12789403.00000000 31775850.00000000 5565.57812500   611778.06250000 487910.59375000 
0.14700    19441086.00000000 12595237.00000000 31285644.00000000 5420.37304688   597218.25000000 476269.40625000 
0.14800    19133884.00000000 12401977.00000000 30797988.00000000 5278.42236328   582881.12500000 464800.68750000 
0.14900    18828460.00000000 12209723.00000000 30313378.00000000 5139.73828125   568772.12500000 453511.28125000 
0.15000    18525224.00000000 12018607.00000000 29831924.00000000 5004.27636719   554895.75000000 442406.31250000 
0.15100    18224666.00000000 11828765.00000000 29353660.00000000 4872.10791016   541255.43750000 431484.62500000 
0.15200    17926254.00000000 11640312.00000000 28879566.00000000 4743.10302734   527862.62500000 420755.03125000 
0.15300    17630488.00000000 11453126.00000000 28408814.00000000 4617.21289062   514704.50000000 410212.93750000 
0.15400    17337332.00000000 11267499.00000000 27942150.00000000 4494.45898438   501785.34375000 399859.62500000 
0.15500    17046986.00000000 11083501.00000000 27479882.00000000 4374.72607422   489116.00000000 389707.18750000 
0.15600    16759603.00000000 10900987.00000000 27021808.00000000 4258.00390625   476695.56250000 379743.84375000 
0.15700    16475310.00000000 10720313.00000000 26568238.00000000 4144.26757812   464522.31250000 369981.68750000 
0.15800    16194036.00000000 10541350.00000000 26119334.00000000 4033.35253906   452592.84375000 360409.37500000 
0.15900    15915932.00000000 10364253.00000000 25675488.00000000 3925.31152344   440911.09375000 351039.59375000 
0.16000    15641188.00000000 10189041.00000000 25236530.00000000 3820.01342773   429474.68750000 341862.71875000 
0.16100    15369759.00000000 10015788.00000000 24802964.00000000 3717.47094727   418289.06250000 332882.59375000 
0.16200    15101849.00000000 9844619.00000000 24374446.00000000 3617.52978516   407340.65625000 324098.87500000 
0.16300    14837341.00000000 9675415.00000000 23951190.00000000 3520.15039062   396640.40625000 315502.31250000 
0.16400    14576375.00000000 9508398.00000000 23533598.00000000 3425.28027344   386178.15625000 307103.40625000 
0.16500    14319017.00000000 9343512.00000000 23121608.00000000 3332.84155273   375952.90625000 298895.21875000 
0.16600    14065296.00000000 9180839.00000000 22715208.00000000 3242.77197266   365964.15625000 290871.71875000 
0.16700    13815160.00000000 9020245.00000000 22314374.00000000 3154.95605469   356198.59375000 283038.68750000 
0.16800    13568707.00000000 8861884.00000000 21919170.00000000 3069.35229492   346668.90625000 275382.43750000 
0.16900    13326063.00000000 8705874.00000000 21530058.00000000 2985.97607422   337366.53125000 267915.31250000 
0.17000    13087108.00000000 8552046.00000000 21146500.00000000 2904.63159180   328283.81250000 260622.34375000 
