# SAXS profile: number of points = 501, q_min = 0, q_max = 0.5, delta_q = 0.001
#    q    intensity 
0.00000    162234096.00000000 101202680.00000000 256269392.00000000 100010.01562500 8056191.50000000 6362763.50000000 
0.00100    162203104.00000000 101181024.00000000 256217136.00000000 99981.59375000  8054191.50000000 6361157.50000000 
0.00200    162106400.00000000 101119128.00000000 256060752.00000000 99896.85156250  8048209.50000000 6356551.50000000 
0.00300    161942192.00000000 101016392.00000000 255796800.00000000 99755.39062500  8038335.50000000 6348759.50000000 
0.00400    161707136.00000000 100871840.00000000 255429184.00000000 99558.17187500  8024478.00000000 6337846.50000000 
0.00500    161404912.00000000 100686488.00000000 254957216.00000000 99305.17968750  8006713.00000000 6323906.00000000 
0.00600    161035472.00000000 100458488.00000000 254378816.00000000 98997.11718750  7985068.50000000 6306876.00000000 
0.00700    160601824.00000000 100192976.00000000 253702032.00000000 98634.86718750  7959530.50000000 6286869.00000000 
0.00800    160099760.00000000 99886592.00000000 252920592.00000000 98218.28125000  7930294.50000000 6263839.50000000 
0.00900    159537280.00000000 99542000.00000000 252039616.00000000 97749.27343750  7897244.50000000 6237905.00000000 
0.01000    158912880.00000000 99157712.00000000 251058400.00000000 97227.39062500  7860490.50000000 6209029.00000000 
0.01100    158227968.00000000 98734824.00000000 249979248.00000000 96654.65625000  7820107.50000000 6177341.50000000 
0.01200    157479744.00000000 98273856.00000000 248805264.00000000 96031.72656250  7776207.00000000 6142823.50000000 
0.01300    156669216.00000000 97776352.00000000 247536112.00000000 95360.68750000  7728723.00000000 6105574.00000000 
0.01400    155800160.00000000 97241184.00000000 246173728.00000000 94641.82812500  7677929.00000000 6065604.50000000 
0.01500    154874256.00000000 96671424.00000000 244721184.00000000 93877.12500000  7623744.50000000 6023055.50000000 
0.01600    153893120.00000000 96067008.00000000 243178944.00000000 93067.04687500  7566395.00000000 5977983.50000000 
0.01700    152855440.00000000 95429368.00000000 241553744.00000000 92214.29687500  7505918.50000000 5930445.00000000 
0.01800    151765168.00000000 94758608.00000000 239842144.00000000 91320.35937500  7442351.00000000 5880519.50000000 
0.01900    150623344.00000000 94055144.00000000 238047584.00000000 90386.24218750  7375876.50000000 5828270.50000000 
0.02000    149430384.00000000 93320064.00000000 236176992.00000000 89413.89843750  7306622.50000000 5773783.00000000 
0.02100    148189600.00000000 92556320.00000000 234228224.00000000 88405.31250000  7234609.00000000 5717280.00000000 
0.02200    146901120.00000000 91762480.00000000 232206208.00000000 87362.64062500  7160037.50000000 5658582.50000000 
0.02300    145567456.00000000 90941112.00000000 230113632.00000000 86286.71093750  7082987.50000000 5598028.00000000 
0.02400    144189280.00000000 90093072.00000000 227953024.00000000 85179.71093750  7003575.50000000 5535641.00000000 
0.02500    142774256.00000000 89219688.00000000 225725824.00000000 84044.21875000  6921962.00000000 5471414.00000000 
0.02600    141316976.00000000 88321432.00000000 223439088.00000000 82881.84375000  6838205.00000000 5405586.00000000 
0.02700    139822448.00000000 87400104.00000000 221091808.00000000 81695.11718750  6752556.00000000 5338241.50000000 
0.02800    138292176.00000000 86456296.00000000 218689504.00000000 80484.67187500  6665003.50000000 5269356.50000000 
0.02900    136729120.00000000 85492928.00000000 216233824.00000000 79254.14062500  6575794.50000000 5199180.50000000 
0.03000    135135344.00000000 84508720.00000000 213728032.00000000 78004.28125000  6484938.00000000 5127724.50000000 
0.03100    133510384.00000000 83506872.00000000 211177552.00000000 76737.03125000  6392634.00000000 5055112.00000000 
0.03200    131859488.00000000 82487248.00000000 208583072.00000000 75455.73437500  6299071.00000000 4981479.50000000 
0.03300    130183280.00000000 81452584.00000000 205949568.00000000 74161.03125000  6204300.00000000 4906900.00000000 
0.03400    128484168.00000000 80403128.00000000 203277792.00000000 72855.86718750  6108508.00000000 4831486.50000000 
0.03500    126764136.00000000 79340304.00000000 200573824.00000000 71541.32031250  6011740.50000000 4755323.50000000 
0.03600    125024616.00000000 78266016.00000000 197838448.00000000 70220.31250000  5914193.50000000 4678554.00000000 
0.03700    123268336.00000000 77181360.00000000 195078800.00000000 68893.86718750  5815984.50000000 4601255.00000000 
0.03800    121497752.00000000 76087264.00000000 192292928.00000000 67563.67968750  5717280.50000000 4523521.00000000 
0.03900    119713648.00000000 74983384.00000000 189487408.00000000 66232.29687500  5618108.50000000 4445453.00000000 
0.04000    117918208.00000000 73873048.00000000 186663744.00000000 64901.00000000  5518686.00000000 4367122.50000000 
0.04100    116115328.00000000 72757624.00000000 183825536.00000000 63571.24218750  5419080.00000000 4288668.00000000 
0.04200    114305368.00000000 71636256.00000000 180978288.00000000 62245.51562500  5319405.50000000 4210146.00000000 
0.04300    112490456.00000000 70512544.00000000 178121120.00000000 60924.53906250  5219766.50000000 4131650.00000000 
0.04400    110671776.00000000 69386776.00000000 175259104.00000000 59610.63671875  5120299.00000000 4053262.75000000 
0.04500    108851912.00000000 68259968.00000000 172395376.00000000 58304.54296875  5021153.00000000 3975116.25000000 
0.04600    107033144.00000000 67132752.00000000 169531648.00000000 57008.41796875  4922393.50000000 3897238.25000000 
0.04700    105216976.00000000 66006584.00000000 166671232.00000000 55722.69531250  4824068.50000000 3819737.75000000 
0.04800    103404792.00000000 64882676.00000000 163815872.00000000 54449.39453125  4726357.00000000 3742674.00000000 
0.04900    101597600.00000000 63762020.00000000 160969680.00000000 53189.31640625  4629304.50000000 3666156.50000000 
0.05000    99798400.00000000 62645616.00000000 158134224.00000000 51944.11718750  4532978.50000000 3590205.25000000 
0.05100    98007864.00000000 61534100.00000000 155313168.00000000 50714.42187500  4437559.00000000 3514890.50000000 
0.05200    96227288.00000000 60428940.00000000 152506928.00000000 49501.27343750  4343013.50000000 3440322.50000000 
0.05300    94458992.00000000 59330408.00000000 149719120.00000000 48305.51953125  4249468.00000000 3366502.25000000 
0.05400    92704104.00000000 58239980.00000000 146954160.00000000 47128.17968750  4157013.75000000 3293523.50000000 
0.05500    90963200.00000000 57157976.00000000 144208864.00000000 45970.01562500  4065672.25000000 3221432.50000000 
0.05600    89238752.00000000 56085464.00000000 141489072.00000000 44831.21484375  3975538.00000000 3150280.25000000 
0.05700    87530816.00000000 55023612.00000000 138795408.00000000 43713.30078125  3886675.50000000 3080104.00000000 
0.05800    85840456.00000000 53972096.00000000 136128992.00000000 42616.22265625  3799102.00000000 3010944.00000000 
0.05900    84169288.00000000 52931988.00000000 133492616.00000000 41540.36328125  3712879.50000000 2942857.50000000 
0.06000    82518400.00000000 51904764.00000000 130887992.00000000 40486.30468750  3628072.75000000 2875865.50000000 
0.06100    80889856.00000000 50889708.00000000 128316712.00000000 39454.62890625  3544724.25000000 2809996.00000000 
0.06200    79282048.00000000 49888336.00000000 125778240.00000000 38445.26562500  3462804.50000000 2745286.50000000 
0.06300    77697376.00000000 48900976.00000000 123276792.00000000 37458.84765625  3382416.75000000 2681747.50000000 
0.06400    76136416.00000000 47927796.00000000 120811408.00000000 36495.04296875  3303553.75000000 2619416.00000000 
0.06500    74598696.00000000 46969380.00000000 118383168.00000000 35553.88671875  3226230.00000000 2558299.25000000 
0.06600    73086728.00000000 46026088.00000000 115994768.00000000 34635.89453125  3150515.25000000 2498412.50000000 
0.06700    71599728.00000000 45098324.00000000 113645912.00000000 33740.71875000  3076389.50000000 2439812.75000000 
0.06800    70138472.00000000 44186376.00000000 111336992.00000000 32868.90625000  3003828.25000000 2382445.00000000 
0.06900    68703328.00000000 43290564.00000000 109068736.00000000 32019.15625000  2932892.00000000 2326329.25000000 
0.07000    67295008.00000000 42410816.00000000 106842760.00000000 31191.88281250  2863566.00000000 2271480.25000000 
0.07100    65913592.00000000 41548132.00000000 104659512.00000000 30387.36328125  2795836.00000000 2217923.25000000 
0.07200    64559500.00000000 40701728.00000000 102518168.00000000 29604.57617188  2729735.50000000 2165605.75000000 
0.07300    63232328.00000000 39872500.00000000 100419784.00000000 28843.82812500  2665229.50000000 2114540.75000000 
0.07400    61932780.00000000 39059920.00000000 98364976.00000000 28104.45507812  2602309.00000000 2064772.62500000 
0.07500    60660796.00000000 38264560.00000000 96353336.00000000 27386.07617188  2540951.00000000 2016217.00000000 
0.07600    59416180.00000000 37486492.00000000 94385368.00000000 26688.28320312  2481169.25000000 1968902.00000000 
0.07700    58199336.00000000 36725536.00000000 92459960.00000000 26010.89062500  2422941.00000000 1922811.75000000 
0.07800    57010104.00000000 35981652.00000000 90579464.00000000 25353.38085938  2366240.50000000 1877935.62500000 
0.07900    55848388.00000000 35254428.00000000 88741328.00000000 24715.23632812  2311047.25000000 1834229.75000000 
0.08000    54713964.00000000 34544640.00000000 86946264.00000000 24096.01367188  2257339.75000000 1791701.37500000 
0.08100    53606536.00000000 33851300.00000000 85193360.00000000 23495.01953125  2205074.75000000 1750335.87500000 
0.08200    52525808.00000000 33175142.00000000 83483808.00000000 22912.18359375  2154266.00000000 1710098.75000000 
0.08300    51471988.00000000 32515510.00000000 81815768.00000000 22346.64648438  2104847.25000000 1670953.87500000 
0.08400    50444296.00000000 31872226.00000000 80189296.00000000 21798.02734375  2056794.37500000 1632908.00000000 
0.08500    49442752.00000000 31245228.00000000 78604264.00000000 21265.96093750  2010083.75000000 1595924.25000000 
0.08600    48466436.00000000 30633866.00000000 77059496.00000000 20749.60156250  1964702.12500000 1559984.37500000 
0.08700    47515824.00000000 30038630.00000000 75555128.00000000 20248.43359375  1920590.25000000 1525055.50000000 
0.08800    46589572.00000000 29459058.00000000 74089520.00000000 19762.22265625  1877697.62500000 1491101.50000000 
0.08900    45688532.00000000 28894602.00000000 72662992.00000000 19290.27148438  1836046.75000000 1458103.87500000 
0.09000    44810540.00000000 28345218.00000000 71274000.00000000 18832.13085938  1795554.62500000 1426046.25000000 
0.09100    43956596.00000000 27810622.00000000 69922496.00000000 18387.29296875  1756214.62500000 1394883.87500000 
0.09200    43125268.00000000 27290438.00000000 68606968.00000000 17955.25585938  1717978.00000000 1364613.25000000 
0.09300    42316288.00000000 26784334.00000000 67327336.00000000 17535.35156250  1680816.62500000 1335185.25000000 
0.09400    41529608.00000000 26292100.00000000 66082872.00000000 17127.39062500  1644674.87500000 1306580.75000000 
0.09500    40764412.00000000 25813324.00000000 64872020.00000000 16730.81445312  1609557.00000000 1278767.62500000 
0.09600    40019872.00000000 25347692.00000000 63694756.00000000 16345.04785156  1575392.25000000 1251736.62500000 
0.09700    39295484.00000000 24895136.00000000 62549932.00000000 15969.97656250  1542180.37500000 1225430.75000000 
0.09800    38591320.00000000 24454784.00000000 61435876.00000000 15604.91699219  1509860.75000000 1199854.50000000 
0.09900    37906396.00000000 24026814.00000000 60352824.00000000 15249.50878906  1478409.62500000 1174970.50000000 
0.10000    37240100.00000000 23610504.00000000 59299336.00000000 14903.39160156  1447806.25000000 1150739.50000000 
0.10100    36592136.00000000 23205756.00000000 58274748.00000000 14566.32128906  1417995.50000000 1127142.25000000 
0.10200    35961028.00000000 22812062.00000000 57277940.00000000 14237.75292969  1388975.62500000 1104163.00000000 
0.10300    35347396.00000000 22429106.00000000 56308072.00000000 13917.49414062  1360685.75000000 1081792.37500000 
0.10400    34750096.00000000 22056448.00000000 55364528.00000000 13605.05175781  1333126.62500000 1059969.87500000 
0.10500    34169000.00000000 21694048.00000000 54446696.00000000 13300.46093750  1306250.25000000 1038707.50000000 
0.10600    33603056.00000000 21341198.00000000 53552860.00000000 13003.05175781  1280043.37500000 1017960.81250000 
0.10700    33051686.00000000 20997930.00000000 52682712.00000000 12712.79687500  1254457.25000000 997724.31250000 
0.10800    32514974.00000000 20663516.00000000 51835272.00000000 12429.43164062  1229493.50000000 977965.50000000 
0.10900    31991820.00000000 20337854.00000000 51009364.00000000 12152.52539062  1205105.12500000 958663.68750000 
0.11000    31482052.00000000 20020602.00000000 50204992.00000000 11882.14843750  1181288.50000000 939817.18750000 
0.11100    30984786.00000000 19711302.00000000 49420748.00000000 11617.89648438  1158001.37500000 921387.93750000 
0.11200    30500028.00000000 19409826.00000000 48656032.00000000 11359.63964844  1135240.37500000 903373.37500000 
0.11300    30026906.00000000 19115720.00000000 47910264.00000000 11107.14453125  1112985.75000000 885745.31250000 
0.11400    29565158.00000000 18828958.00000000 47181904.00000000 10860.41894531  1091195.00000000 868499.37500000 
0.11500    29114266.00000000 18548806.00000000 46471044.00000000 10619.08593750  1069867.50000000 851615.75000000 
0.11600    28673682.00000000 18275170.00000000 45776884.00000000 10383.08398438  1048988.25000000 835084.43750000 
0.11700    28243172.00000000 18008018.00000000 45098212.00000000 10152.39062500  1028544.62500000 818888.93750000 
0.11800    27822148.00000000 17746822.00000000 44434496.00000000 9926.60742188   1008493.56250000 802997.31250000 
0.11900    27410376.00000000 17491304.00000000 43785704.00000000 9705.93554688   988846.68750000 787436.50000000 
0.12000    27006902.00000000 17241318.00000000 43150672.00000000 9489.99023438   969578.81250000 772170.06250000 
0.12100    26612238.00000000 16996560.00000000 42528836.00000000 9278.92871094   950687.12500000 757188.93750000 
0.12200    26225542.00000000 16756638.00000000 41919340.00000000 9072.43359375   932145.62500000 742490.37500000 
0.12300    25846418.00000000 16521685.00000000 41322352.00000000 8870.51953125   913953.62500000 728060.75000000 
0.12400    25474582.00000000 16291216.00000000 40736540.00000000 8673.08984375   896091.93750000 713889.56250000 
0.12500    25109840.00000000 16065075.00000000 40161656.00000000 8480.01660156   878557.25000000 699966.62500000 
0.12600    24751700.00000000 15843034.00000000 39597724.00000000 8291.28906250   861333.93750000 686296.43750000 
0.12700    24399926.00000000 15625082.00000000 39043780.00000000 8106.82568359   844417.87500000 672860.37500000 
0.12800    24054114.00000000 15410648.00000000 38499252.00000000 7926.50244141   827800.93750000 659654.87500000 
0.12900    23714492.00000000 15200034.00000000 37963620.00000000 7750.25976562   811468.18750000 646678.62500000 
0.13000    23380344.00000000 14992679.00000000 37436856.00000000 7578.11279297   795424.68750000 633919.37500000 
0.13100    23051412.00000000 14788523.00000000 36918548.00000000 7409.83398438   779650.75000000 621369.43750000 
0.13200    22727640.00000000 14587563.00000000 36408240.00000000 7245.45605469   764146.93750000 609029.87500000 
0.13300    22408674.00000000 14389578.00000000 35905368.00000000 7084.97216797   748908.93750000 596895.31250000 
0.13400    22094454.00000000 14194381.00000000 35409908.00000000 6928.11474609   733923.12500000 584958.56250000 
0.13500    21784582.00000000 14001868.00000000 34921212.00000000 6775.02099609   719189.00000000 573216.75000000 
0.13600    21479188.00000000 13811809.00000000 34439404.00000000 6625.47070312   704705.00000000 561665.75000000 
0.13700    21177964.00000000 13624235.00000000 33963396.00000000 6479.47900391   690459.56250000 550299.12500000 
0.13800    20880488.00000000 13439124.00000000 33494218.00000000 6336.86865234   676453.56250000 539119.87500000 
0.13900    20586824.00000000 13256163.00000000 33030188.00000000 6197.76318359   662678.81250000 528117.37500000 
0.14000    20296924.00000000 13075273.00000000 32572220.00000000 6061.91748047   649130.12500000 517299.37500000 
0.14100    20010680.00000000 12896592.00000000 32119478.00000000 5929.31152344   635811.31250000 506650.68750000 
0.14200    19727598.00000000 12719779.00000000 31671988.00000000 5799.83886719   622708.50000000 496173.68750000 
0.14300    19447914.00000000 12544993.00000000 31229608.00000000 5673.41699219   609824.75000000 485865.96875000 
0.14400    19171328.00000000 12371916.00000000 30791830.00000000 5550.01318359   597147.87500000 475721.81250000 
0.14500    18897732.00000000 12200610.00000000 30358774.00000000 5429.54394531   584692.00000000 465743.71875000 
0.14600    18627218.00000000 12031063.00000000 29930374.00000000 5311.87646484   572433.75000000 455930.62500000 
0.14700    18359774.00000000 11863240.00000000 29506208.00000000 5196.99169922   560387.68750000 446272.03125000 
0.14800    18094904.00000000 11696940.00000000 29086400.00000000 5084.77685547   548534.50000000 436772.43750000 
0.14900    17832880.00000000 11532197.00000000 28670636.00000000 4975.05859375   536875.31250000 427420.90625000 
0.15000    17573484.00000000 11368941.00000000 28258900.00000000 4867.89013672   525419.00000000 418225.21875000 
0.15100    17316668.00000000 11207269.00000000 27851172.00000000 4763.15625000   514145.56250000 409179.59375000 
0.15200    17062576.00000000 11046909.00000000 27447498.00000000 4660.72412109   503063.00000000 400282.12500000 
0.15300    16810800.00000000 10888082.00000000 27047418.00000000 4560.56542969   492167.87500000 391530.65625000 
0.15400    16561808.00000000 10730585.00000000 26650946.00000000 4462.54248047   481449.31250000 382919.12500000 
0.15500    16314983.00000000 10574487.00000000 26258244.00000000 4366.63085938   470910.12500000 374453.28125000 
0.15600    16070675.00000000 10419784.00000000 25869204.00000000 4272.73681641   460544.75000000 366120.09375000 
0.15700    15828666.00000000 10266407.00000000 25483896.00000000 4180.79443359   450356.18750000 357932.28125000 
0.15800    15588830.00000000 10114284.00000000 25101774.00000000 4090.66577148   440335.56250000 349871.68750000 
0.15900    15351528.00000000 9963516.00000000 24723270.00000000 4002.36645508   430478.75000000 341948.37500000 
0.16000    15116407.00000000 9813992.00000000 24348070.00000000 3915.76904297   420789.90625000 334155.40625000 
0.16100    14883589.00000000 9665812.00000000 23976520.00000000 3830.87402344   411263.00000000 326492.65625000 
0.16200    14652994.00000000 9518916.00000000 23608300.00000000 3747.56323242   401892.15625000 318953.84375000 
0.16300    14424632.00000000 9373311.00000000 23243608.00000000 3665.77490234   392678.78125000 311542.84375000 
0.16400    14198517.00000000 9229023.00000000 22882316.00000000 3585.45483398   383619.00000000 304254.40625000 
0.16500    13974702.00000000 9085963.00000000 22524212.00000000 3506.56005859   374709.65625000 297087.31250000 
0.16600    13753026.00000000 8944332.00000000 22169724.00000000 3429.06274414   365949.96875000 290042.15625000 
0.16700    13533495.00000000 8803760.00000000 21818390.00000000 3352.83276367   357334.28125000 283111.09375000 
0.16800    13316204.00000000 8664647.00000000 21470660.00000000 3277.90625000   348861.81250000 276299.75000000 
0.16900    13101208.00000000 8526904.00000000 21126232.00000000 3204.24731445   340531.25000000 269602.56250000 
0.17000    12888355.00000000 8390298.00000000 20785260.00000000 3131.74951172   332338.09375000 263015.34375000 
