# SAXS profile: number of points = 501, q_min = 0, q_max = 0.5, delta_q = 0.001
#    q    intensity 
0.00000    162236208.00000000 101201552.00000000 256271536.00000000 105887.91406250 8289543.00000000 6547071.00000000 
0.00100    162208112.00000000 101183920.00000000 256224816.00000000 105861.46875000 8287788.00000000 6545670.50000000 
0.00200    162122096.00000000 101130032.00000000 256088208.00000000 105782.95312500 8282371.00000000 6541446.00000000 
0.00300    161977744.00000000 101040512.00000000 255858272.00000000 105652.30468750 8273431.50000000 6534441.00000000 
0.00400    161772096.00000000 100914328.00000000 255537424.00000000 105468.70312500 8260905.50000000 6524639.00000000 
0.00500    161507152.00000000 100753104.00000000 255124576.00000000 105233.68750000 8244824.00000000 6512031.00000000 
0.00600    161184512.00000000 100556784.00000000 254621376.00000000 104947.35156250 8225229.00000000 6496698.00000000 
0.00700    160805392.00000000 100324312.00000000 254028240.00000000 104610.04687500 8202155.50000000 6478566.50000000 
0.00800    160367312.00000000 100057456.00000000 253346544.00000000 104221.99218750 8175608.00000000 6457781.50000000 
0.00900    159872752.00000000 99756648.00000000 252574624.00000000 103784.57812500 8145609.50000000 6434299.50000000 
0.01000    159323488.00000000 99421352.00000000 251716288.00000000 103297.94531250 8112243.00000000 6408166.00000000 
0.01100    158719792.00000000 99052840.00000000 250772160.00000000 102762.63281250 8075564.00000000 6379423.00000000 
0.01200    158062576.00000000 98649992.00000000 249742032.00000000 102179.75781250 8035567.00000000 6348106.50000000 
0.01300    157350512.00000000 98214192.00000000 248627232.00000000 101551.29687500 7992361.00000000 6314248.00000000 
0.01400    156583776.00000000 97746136.00000000 247430032.00000000 100876.47656250 7946049.00000000 6277900.50000000 
0.01500    155766752.00000000 97246616.00000000 246152048.00000000 100157.65625000 7896588.00000000 6239155.50000000 
0.01600    154898384.00000000 96715464.00000000 244794320.00000000 99395.10156250  7844132.50000000 6198037.00000000 
0.01700    153979488.00000000 96154208.00000000 243358288.00000000 98590.78125000  7788649.00000000 6154584.00000000 
0.01800    153013936.00000000 95562832.00000000 241847136.00000000 97745.59375000  7730358.50000000 6108861.00000000 
0.01900    151999216.00000000 94942688.00000000 240260176.00000000 96860.28125000  7669246.50000000 6061006.00000000 
0.02000    150937520.00000000 94293680.00000000 238600192.00000000 95937.19531250  7605436.50000000 6010994.50000000 
0.02100    149832544.00000000 93616896.00000000 236869904.00000000 94977.74218750  7538985.00000000 5958927.50000000 
0.02200    148683040.00000000 92913736.00000000 235070096.00000000 93981.98437500  7470058.50000000 5904829.50000000 
0.02300    147490208.00000000 92183432.00000000 233204304.00000000 92953.11718750  7398649.00000000 5848822.00000000 
0.02400    146257520.00000000 91428920.00000000 231274848.00000000 91891.71875000  7324940.50000000 5790997.50000000 
0.02500    144983392.00000000 90649088.00000000 229282976.00000000 90799.72656250  7248915.00000000 5731431.00000000 
0.02600    143672992.00000000 89845336.00000000 227229584.00000000 89678.50000000  7170782.50000000 5670117.50000000 
0.02700    142324896.00000000 89019528.00000000 225119280.00000000 88529.35156250  7090621.00000000 5607257.50000000 
0.02800    140942400.00000000 88172528.00000000 222953856.00000000 87354.85937500  7008507.00000000 5542809.00000000 
0.02900    139526160.00000000 87303448.00000000 220735264.00000000 86156.39843750  6924544.50000000 5476928.00000000 
0.03000    138076656.00000000 86415488.00000000 218466112.00000000 84935.21875000  6838884.50000000 5409721.00000000 
0.03100    136597952.00000000 85507960.00000000 216149104.00000000 83693.35156250  6751623.50000000 5341207.00000000 
0.03200    135089824.00000000 84582096.00000000 213786352.00000000 82431.89062500  6662834.50000000 5271531.00000000 
0.03300    133554120.00000000 83640280.00000000 211380960.00000000 81153.58593750  6572615.50000000 5200718.00000000 
0.03400    131993856.00000000 82681824.00000000 208934736.00000000 79859.32031250  6481144.00000000 5128871.00000000 
0.03500    130408832.00000000 81708752.00000000 206449888.00000000 78550.75781250  6388483.50000000 5056087.00000000 
0.03600    128801664.00000000 80721464.00000000 203930464.00000000 77230.70312500  6294729.00000000 4982463.50000000 
0.03700    127174344.00000000 79721160.00000000 201378848.00000000 75899.86718750  6200042.00000000 4908086.00000000 
0.03800    125526720.00000000 78708096.00000000 198796432.00000000 74559.72656250  6104474.00000000 4833011.50000000 
0.03900    123863344.00000000 77685376.00000000 196185744.00000000 73212.75781250  6008184.50000000 4757361.50000000 
0.04000    122183296.00000000 76652384.00000000 193550720.00000000 71860.04687500  5911221.50000000 4681174.50000000 
0.04100    120489648.00000000 75610224.00000000 190893744.00000000 70502.79687500  5813778.00000000 4604567.50000000 
0.04200    118783344.00000000 74560408.00000000 188215984.00000000 69144.41406250  5715883.50000000 4527617.00000000 
0.04300    117066216.00000000 73502776.00000000 185520496.00000000 67783.96093750  5617655.00000000 4450381.50000000 
0.04400    115340336.00000000 72439480.00000000 182810400.00000000 66424.56250000  5519202.00000000 4372928.00000000 
0.04500    113606488.00000000 71370360.00000000 180088432.00000000 65066.86718750  5420632.50000000 4295384.00000000 
0.04600    111866608.00000000 70297104.00000000 177355616.00000000 63712.69140625  5322021.00000000 4217812.00000000 
0.04700    110122496.00000000 69221032.00000000 174615552.00000000 62363.62890625  5223492.00000000 4140259.50000000 
0.04800    108374808.00000000 68142560.00000000 171869696.00000000 61020.80468750  5125076.50000000 4062831.75000000 
0.04900    106625520.00000000 67062724.00000000 169121376.00000000 59686.14843750  5026947.00000000 3985595.75000000 
0.05000    104876776.00000000 65982568.00000000 166371776.00000000 58359.33203125  4929186.00000000 3908584.50000000 
0.05100    103129832.00000000 64902540.00000000 163623856.00000000 57042.87109375  4831825.00000000 3831879.25000000 
0.05200    101384896.00000000 63824240.00000000 160879632.00000000 55737.58593750  4734903.00000000 3755599.25000000 
0.05300    99644056.00000000 62747356.00000000 158141040.00000000 54444.49218750  4638650.50000000 3679726.25000000 
0.05400    97908896.00000000 61673724.00000000 155410496.00000000 53164.85156250  4543010.00000000 3604361.00000000 
0.05500    96180432.00000000 60603400.00000000 152690000.00000000 51899.16796875  4448155.00000000 3529570.50000000 
0.05600    94459856.00000000 59537528.00000000 149982480.00000000 50649.20703125  4354051.50000000 3455369.00000000 
0.05700    92748496.00000000 58477232.00000000 147287152.00000000 49415.01953125  4260850.50000000 3381861.25000000 
0.05800    91046816.00000000 57422388.00000000 144608432.00000000 48198.12500000  4168553.25000000 3309058.25000000 
0.05900    89357176.00000000 56373956.00000000 141946304.00000000 46998.40625000  4077250.50000000 3237017.00000000 
0.06000    87680416.00000000 55332964.00000000 139303136.00000000 45817.43750000  3986991.50000000 3165794.25000000 
0.06100    86016464.00000000 54299980.00000000 136680944.00000000 44655.55468750  3897856.00000000 3095433.25000000 
0.06200    84367312.00000000 53275168.00000000 134080848.00000000 43513.07421875  3809862.50000000 3025920.00000000 
0.06300    82733560.00000000 52259672.00000000 131505976.00000000 42391.12890625  3723051.00000000 2957367.25000000 
0.06400    81116184.00000000 51253436.00000000 128953776.00000000 41289.07421875  3637496.75000000 2889773.25000000 
0.06500    79516112.00000000 50257772.00000000 126428872.00000000 40208.68750000  3553212.75000000 2823177.25000000 
0.06600    77933416.00000000 49272864.00000000 123932160.00000000 39149.72265625  3470260.75000000 2757579.50000000 
0.06700    76370216.00000000 48298728.00000000 121463752.00000000 38112.14453125  3388637.00000000 2693051.75000000 
0.06800    74826328.00000000 47336600.00000000 119025512.00000000 37096.97265625  3308384.00000000 2629584.00000000 
0.06900    73302176.00000000 46386048.00000000 116618032.00000000 36103.64062500  3229545.75000000 2567190.00000000 
0.07000    71799072.00000000 45448072.00000000 114242984.00000000 35132.57031250  3152116.50000000 2505942.75000000 
0.07100    70317208.00000000 44522796.00000000 111900808.00000000 34184.48828125  3076155.00000000 2445803.00000000 
0.07200    68856584.00000000 43610560.00000000 109592048.00000000 33258.44140625  3001648.00000000 2386790.00000000 
0.07300    67418592.00000000 42711980.00000000 107318440.00000000 32355.07812500  2928608.25000000 2328947.75000000 
0.07400    66003496.00000000 41826860.00000000 105080152.00000000 31474.26367188  2857049.00000000 2272255.25000000 
0.07500    64610716.00000000 40955916.00000000 102877088.00000000 30615.90625000  2786982.00000000 2216733.00000000 
0.07600    63241920.00000000 40098964.00000000 100710712.00000000 29779.75781250  2718410.75000000 2162364.00000000 
0.07700    61896568.00000000 39256292.00000000 98580680.00000000 28965.75390625  2651331.00000000 2109180.50000000 
0.07800    60575144.00000000 38428296.00000000 96488752.00000000 28173.72070312  2585747.75000000 2057157.00000000 
0.07900    59278052.00000000 37614804.00000000 94433944.00000000 27403.27539062  2521661.00000000 2006312.62500000 
0.08000    58004968.00000000 36816276.00000000 92416984.00000000 26654.53125000  2459045.00000000 1956623.87500000 
0.08100    56756332.00000000 36032396.00000000 90438872.00000000 25926.71679688  2397922.25000000 1908116.50000000 
0.08200    55532220.00000000 35263748.00000000 88498880.00000000 25220.10937500  2338265.75000000 1860740.25000000 
0.08300    54332684.00000000 34510288.00000000 86596536.00000000 24533.63671875  2280090.50000000 1814507.12500000 
0.08400    53157884.00000000 33771400.00000000 84734072.00000000 23867.39648438  2223334.00000000 1769411.62500000 
0.08500    52007512.00000000 33048264.00000000 82909248.00000000 23221.04296875  2167979.75000000 1725447.25000000 
0.08600    50881700.00000000 32340066.00000000 81123384.00000000 22593.89257812  2114073.75000000 1682593.00000000 
0.08700    49780764.00000000 31646684.00000000 79375632.00000000 21985.77539062  2061541.50000000 1640820.37500000 
0.08800    48703600.00000000 30968550.00000000 77665720.00000000 21396.07812500  2010373.12500000 1600121.75000000 
0.08900    47650712.00000000 30305222.00000000 75994856.00000000 20824.43554688  1960555.00000000 1560506.25000000 
0.09000    46621964.00000000 29656832.00000000 74360352.00000000 20270.25195312  1912059.25000000 1521918.12500000 
0.09100    45616960.00000000 29023068.00000000 72764584.00000000 19733.27734375  1864877.50000000 1484352.75000000 
0.09200    44635648.00000000 28404088.00000000 71205456.00000000 19212.89453125  1818941.12500000 1447805.25000000 
0.09300    43677852.00000000 27799720.00000000 69683472.00000000 18708.46484375  1774269.12500000 1412229.50000000 
0.09400    42743080.00000000 27209452.00000000 68197992.00000000 18219.72851562  1730810.50000000 1377633.62500000 
0.09500    41830908.00000000 26633610.00000000 66748772.00000000 17746.06640625  1688553.12500000 1343971.50000000 
0.09600    40941620.00000000 26071788.00000000 65334868.00000000 17287.13476562  1647451.62500000 1311231.12500000 
0.09700    40074528.00000000 25524028.00000000 63955600.00000000 16842.14453125  1607490.37500000 1279391.12500000 
0.09800    39229188.00000000 24989618.00000000 62611420.00000000 16411.07031250  1568631.87500000 1248435.75000000 
0.09900    38405484.00000000 24468848.00000000 61301660.00000000 15993.02343750  1530849.62500000 1218325.62500000 
0.10000    37602672.00000000 23961412.00000000 60024976.00000000 15587.55957031  1494121.50000000 1189052.75000000 
0.10100    36820936.00000000 23466910.00000000 58781412.00000000 15194.39355469  1458404.75000000 1160582.87500000 
0.10200    36059436.00000000 22985346.00000000 57570040.00000000 14812.91503906  1423695.25000000 1132906.62500000 
0.10300    35317696.00000000 22516234.00000000 56390476.00000000 14442.66796875  1389916.62500000 1105990.62500000 
0.10400    34595928.00000000 22059612.00000000 55242120.00000000 14083.43750000  1357095.50000000 1079825.50000000 
0.10500    33893524.00000000 21615100.00000000 54124492.00000000 13734.56445312  1325170.12500000 1054369.12500000 
0.10600    33209412.00000000 21182468.00000000 53036420.00000000 13395.43261719  1294112.00000000 1029602.56250000 
0.10700    32544142.00000000 20761458.00000000 51977576.00000000 13066.11718750  1263898.62500000 1005517.62500000 
0.10800    31896530.00000000 20351700.00000000 50947172.00000000 12745.97949219  1234514.87500000 982083.50000000 
0.10900    31266492.00000000 19952806.00000000 49944916.00000000 12434.47363281  1205911.00000000 959279.00000000 
0.11000    30653752.00000000 19565256.00000000 48969644.00000000 12131.54003906  1178075.12500000 937090.37500000 
0.11100    30057388.00000000 19187922.00000000 48021132.00000000 11836.66210938  1150974.62500000 915489.43750000 
0.11200    29477330.00000000 18821138.00000000 47098520.00000000 11549.50585938  1124591.00000000 894460.56250000 
0.11300    28913132.00000000 18463996.00000000 46200504.00000000 11269.77832031  1098906.25000000 873973.12500000 
0.11400    28364152.00000000 18117084.00000000 45327728.00000000 10997.20996094  1073863.12500000 854028.06250000 
0.11500    27830408.00000000 17779574.00000000 44478524.00000000 10731.46093750  1049481.87500000 834591.50000000 
0.11600    27310812.00000000 17451264.00000000 43652740.00000000 10472.24414062  1025712.25000000 815647.12500000 
0.11700    26805552.00000000 17132104.00000000 42849428.00000000 10219.41113281  1002538.75000000 797186.43750000 
0.11800    26313996.00000000 16821494.00000000 42067776.00000000 9972.45605469   979946.00000000 779185.06250000 
0.11900    25835636.00000000 16519383.00000000 41307312.00000000 9731.47851562   957908.93750000 761623.43750000 
0.12000    25370232.00000000 16225475.00000000 40567464.00000000 9495.99218750   936398.12500000 744500.06250000 
0.12100    24917248.00000000 15939655.00000000 39847744.00000000 9266.04589844   915420.62500000 727793.31250000 
0.12200    24476356.00000000 15661541.00000000 39147624.00000000 9041.29980469   894939.25000000 711484.75000000 
0.12300    24047286.00000000 15391047.00000000 38465748.00000000 8821.58691406   874940.31250000 695564.06250000 
0.12400    23629446.00000000 15127623.00000000 37802464.00000000 8606.80468750   855408.43750000 680016.81250000 
0.12500    23222550.00000000 14871282.00000000 37156716.00000000 8396.75585938   836330.37500000 664833.81250000 
0.12600    22826580.00000000 14621793.00000000 36527784.00000000 8191.27636719   817698.50000000 650005.50000000 
0.12700    22440680.00000000 14378937.00000000 35915376.00000000 7990.39697266   799488.87500000 635510.81250000 
0.12800    22064548.00000000 14142315.00000000 35318692.00000000 7793.89404297   781688.81250000 621347.31250000 
0.12900    21698316.00000000 13911884.00000000 34737588.00000000 7601.64404297   764287.68750000 607508.68750000 
0.13000    21341160.00000000 13687421.00000000 34171488.00000000 7413.66943359   747272.37500000 593973.75000000 
0.13100    20992962.00000000 13468631.00000000 33619580.00000000 7229.70605469   730634.12500000 580741.37500000 
0.13200    20653604.00000000 13255331.00000000 33080950.00000000 7049.83300781   714360.56250000 567800.18750000 
0.13300    20322568.00000000 13047512.00000000 32556236.00000000 6873.93554688   698452.00000000 555147.25000000 
0.13400    19999352.00000000 12844627.00000000 32044096.00000000 6701.97656250   682882.50000000 542769.87500000 
0.13500    19684104.00000000 12646897.00000000 31544532.00000000 6533.84960938   667654.31250000 530660.00000000 
0.13600    19376368.00000000 12453851.00000000 31057040.00000000 6369.53173828   652759.56250000 518812.65625000 
0.13700    19075626.00000000 12265326.00000000 30580934.00000000 6208.97021484   638185.00000000 507222.18750000 
0.13800    18782114.00000000 12081265.00000000 30116040.00000000 6052.11669922   623917.43750000 495883.03125000 
0.13900    18495382.00000000 11901479.00000000 29661828.00000000 5898.97167969   609968.62500000 484790.09375000 
0.14000    18214910.00000000 11725884.00000000 29217816.00000000 5749.52294922   596317.81250000 473937.62500000 
0.14100    17940960.00000000 11554189.00000000 28784122.00000000 5603.66015625   582971.31250000 463320.78125000 
0.14200    17672808.00000000 11386220.00000000 28359770.00000000 5461.40283203   569905.18750000 452928.12500000 
0.14300    17410744.00000000 11222071.00000000 27944504.00000000 5322.69726562   557128.75000000 442763.68750000 
0.14400    17154142.00000000 11061298.00000000 27538286.00000000 5187.51708984   544625.00000000 432819.00000000 
0.14500    16902880.00000000 10904074.00000000 27140846.00000000 5055.81445312   532400.56250000 423095.31250000 
0.14600    16656986.00000000 10749934.00000000 26751390.00000000 4927.68017578   520448.59375000 413578.34375000 
0.14700    16416086.00000000 10598986.00000000 26370016.00000000 4802.92529297   508758.21875000 404275.00000000 
0.14800    16180100.00000000 10451144.00000000 25996198.00000000 4681.62255859   497328.93750000 395172.53125000 
0.14900    15948667.00000000 10306063.00000000 25629652.00000000 4563.65234375   486151.31250000 386276.40625000 
0.15000    15721771.00000000 10163819.00000000 25270334.00000000 4449.04101562   475229.25000000 377574.65625000 
0.15100    15499139.00000000 10024193.00000000 24917774.00000000 4337.74218750   464551.75000000 369069.40625000 
0.15200    15280835.00000000 9887316.00000000 24571778.00000000 4229.76464844   454126.25000000 360755.68750000 
0.15300    15066610.00000000 9752751.00000000 24232224.00000000 4124.95800781   443930.37500000 352631.18750000 
0.15400    14856127.00000000 9620527.00000000 23898374.00000000 4023.36450195   433972.62500000 344687.53125000 
0.15500    14649438.00000000 9490671.00000000 23570714.00000000 3924.93017578   424245.46875000 336927.75000000 
0.15600    14446275.00000000 9362993.00000000 23248476.00000000 3829.56640625   414740.50000000 329341.75000000 
0.15700    14246756.00000000 9237386.00000000 22931828.00000000 3737.24804688   405465.68750000 321936.43750000 
0.15800    14050404.00000000 9113744.00000000 22620112.00000000 3647.90161133   396400.34375000 314698.25000000 
0.15900    13857404.00000000 8992104.00000000 22313768.00000000 3561.48632812   387555.18750000 307630.06250000 
0.16000    13667468.00000000 8872339.00000000 22011948.00000000 3477.92309570   378915.81250000 300721.50000000 
0.16100    13480532.00000000 8754355.00000000 21714952.00000000 3397.20288086   370487.62500000 293980.59375000 
0.16200    13296401.00000000 8638072.00000000 21422158.00000000 3319.19921875   362254.40625000 287397.65625000 
0.16300    13115213.00000000 8523320.00000000 21133948.00000000 3243.83715820   354220.21875000 280967.15625000 
0.16400    12936677.00000000 8410326.00000000 20849570.00000000 3171.08374023   346377.71875000 274686.78125000 
0.16500    12760561.00000000 8298736.00000000 20569312.00000000 3100.84936523   338724.21875000 268553.43750000 
0.16600    12587121.00000000 8188714.00000000 20292832.00000000 3033.05053711   331250.03125000 262565.93750000 
0.16700    12415885.00000000 8079961.50000000 20020008.00000000 2967.59838867   323952.21875000 256716.34375000 
0.16800    12246943.00000000 7972590.50000000 19750630.00000000 2904.44384766   316830.96875000 251002.95312500 
0.16900    12080369.00000000 7866582.00000000 19484702.00000000 2843.49194336   309877.09375000 245423.37500000 
0.17000    11915909.00000000 7761721.00000000 19221978.00000000 2784.64453125   303084.93750000 239971.32812500 
