# SAXS profile: number of points = 501, q_min = 0, q_max = 0.5, delta_q = 0.001
#    q    intensity 
0.00000    162238176.00000000 101201424.00000000 256271984.00000000 111617.10937500 8510856.00000000 6721870.50000000 
0.00100    162207808.00000000 101182832.00000000 256223232.00000000 111590.28125000 8508992.00000000 6720385.50000000 
0.00200    162115376.00000000 101125288.00000000 256077424.00000000 111509.03125000 8503433.00000000 6716032.00000000 
0.00300    161961584.00000000 101029504.00000000 255833584.00000000 111374.21875000 8494160.00000000 6708708.50000000 
0.00400    161744016.00000000 100896024.00000000 255492592.00000000 111185.09375000 8481222.00000000 6698543.50000000 
0.00500    161465664.00000000 100724072.00000000 255055760.00000000 110942.90625000 8464538.00000000 6685480.00000000 
0.00600    161125376.00000000 100514760.00000000 254521568.00000000 110647.07031250 8444282.00000000 6669517.50000000 
0.00700    160724352.00000000 100266960.00000000 253890848.00000000 110298.85156250 8420382.00000000 6650748.50000000 
0.00800    160262448.00000000 99983104.00000000 253167568.00000000 109898.29687500 8392893.00000000 6629131.50000000 
0.00900    159739776.00000000 99662024.00000000 252349840.00000000 109446.51562500 8361800.50000000 6604738.50000000 
0.01000    159158592.00000000 99304416.00000000 251438416.00000000 108943.00781250 8327205.50000000 6577546.00000000 
0.01100    158519648.00000000 98911200.00000000 250435968.00000000 108389.62500000 8289185.00000000 6547672.50000000 
0.01200    157823632.00000000 98482696.00000000 249342752.00000000 107786.35937500 8247697.00000000 6515051.50000000 
0.01300    157072432.00000000 98018200.00000000 248159872.00000000 107135.09375000 8202866.00000000 6479850.00000000 
0.01400    156263952.00000000 97519640.00000000 246889280.00000000 106435.30468750 8154725.00000000 6442017.50000000 
0.01500    155397664.00000000 96986808.00000000 245532544.00000000 105689.25000000 8103340.50000000 6401601.00000000 
0.01600    154478704.00000000 96420640.00000000 244089472.00000000 104897.79687500 8048785.00000000 6358674.50000000 
0.01700    153508032.00000000 95822040.00000000 242564416.00000000 104061.19531250 7991077.00000000 6313364.00000000 
0.01800    152485472.00000000 95190864.00000000 240958544.00000000 103181.82812500 7930362.50000000 6265637.00000000 
0.01900    151411264.00000000 94529552.00000000 239272768.00000000 102259.00000000 7866667.00000000 6215604.50000000 
0.02000    150287808.00000000 93837584.00000000 237508720.00000000 101296.08593750 7800151.50000000 6163265.50000000 
0.02100    149116720.00000000 93115424.00000000 235670288.00000000 100293.53125000 7730789.00000000 6108757.50000000 
0.02200    147899968.00000000 92364520.00000000 233757712.00000000 99252.57031250  7658741.00000000 6052104.00000000 
0.02300    146637008.00000000 91585816.00000000 231773712.00000000 98174.74218750  7584071.00000000 5993405.50000000 
0.02400    145329504.00000000 90779600.00000000 229720992.00000000 97061.98437500  7506873.00000000 5932713.00000000 
0.02500    143979776.00000000 89947704.00000000 227602224.00000000 95914.86718750  7427280.00000000 5870152.00000000 
0.02600    142590400.00000000 89090576.00000000 225419440.00000000 94735.82812500  7345338.50000000 5805699.50000000 
0.02700    141161856.00000000 88209056.00000000 223174224.00000000 93525.54687500  7261137.50000000 5739506.00000000 
0.02800    139694960.00000000 87303608.00000000 220870736.00000000 92285.66406250  7174893.00000000 5671639.50000000 
0.02900    138191872.00000000 86376712.00000000 218508336.00000000 91019.09375000  7086548.50000000 5602201.50000000 
0.03000    136654704.00000000 85428504.00000000 216093792.00000000 89726.32812500  6996324.50000000 5531243.00000000 
0.03100    135085024.00000000 84459464.00000000 213627760.00000000 88408.67187500  6904294.50000000 5458845.00000000 
0.03200    133484552.00000000 83471296.00000000 211112928.00000000 87068.83593750  6810562.50000000 5385118.50000000 
0.03300    131854704.00000000 82465352.00000000 208551296.00000000 85708.37500000  6715255.50000000 5310128.50000000 
0.03400    130197432.00000000 81442240.00000000 205945488.00000000 84328.15625000  6618438.50000000 5233984.00000000 
0.03500    128514184.00000000 80403168.00000000 203301184.00000000 82930.98437500  6520286.00000000 5156752.50000000 
0.03600    126807728.00000000 79348888.00000000 200619008.00000000 81517.70312500  6420880.00000000 5078521.50000000 
0.03700    125078808.00000000 78280696.00000000 197901152.00000000 80090.20312500  6320316.00000000 4999425.50000000 
0.03800    123329584.00000000 77200184.00000000 195151296.00000000 78650.71093750  6218716.00000000 4919461.00000000 
0.03900    121561288.00000000 76107976.00000000 192371808.00000000 77199.85156250  6116212.00000000 4838792.50000000 
0.04000    119776808.00000000 75004760.00000000 189566320.00000000 75740.98437500  6012901.50000000 4757456.50000000 
0.04100    117977584.00000000 73893144.00000000 186736336.00000000 74274.36718750  5908867.00000000 4675618.00000000 
0.04200    116164944.00000000 72772072.00000000 183885872.00000000 72801.89843750  5804344.50000000 4593292.00000000 
0.04300    114341128.00000000 71644600.00000000 181016816.00000000 71325.70312500  5699224.00000000 4510565.00000000 
0.04400    112507320.00000000 70510376.00000000 178133264.00000000 69847.21875000  5593812.50000000 4427558.50000000 
0.04500    110666200.00000000 69371344.00000000 175237344.00000000 68367.77343750  5488169.00000000 4344334.00000000 
0.04600    108818392.00000000 68229024.00000000 172330912.00000000 66889.36718750  5382329.50000000 4261004.00000000 
0.04700    106966232.00000000 67083196.00000000 169416080.00000000 65412.73828125  5276461.50000000 4177626.00000000 
0.04800    105111608.00000000 65934876.00000000 166498496.00000000 63940.99218750  5170601.50000000 4094266.50000000 
0.04900    103256184.00000000 64786208.00000000 163578368.00000000 62473.88671875  5064966.00000000 4011020.00000000 
0.05000    101400992.00000000 63637800.00000000 160658272.00000000 61013.69921875  4959583.00000000 3927982.00000000 
0.05100    99548280.00000000 62490160.00000000 157742256.00000000 59561.87109375  4854552.00000000 3845222.50000000 
0.05200    97699408.00000000 61344744.00000000 154831936.00000000 58119.37890625  4749948.50000000 3762774.50000000 
0.05300    95855688.00000000 60202200.00000000 151929344.00000000 56687.98437500  4645868.00000000 3680754.75000000 
0.05400    94019104.00000000 59063992.00000000 149037632.00000000 55268.45312500  4542433.00000000 3599230.50000000 
0.05500    92190784.00000000 57930804.00000000 146158544.00000000 53862.80859375  4439740.50000000 3518266.25000000 
0.05600    90372200.00000000 56803080.00000000 143295200.00000000 52471.34375000  4337787.00000000 3437909.25000000 
0.05700    88565272.00000000 55682168.00000000 140447216.00000000 51095.61718750  4236789.00000000 3358245.25000000 
0.05800    86770488.00000000 54568632.00000000 137619840.00000000 49737.04296875  4136723.50000000 3279322.50000000 
0.05900    84989512.00000000 53463788.00000000 134814064.00000000 48395.87109375  4037697.75000000 3201197.50000000 
0.06000    83224624.00000000 52367664.00000000 132032520.00000000 47073.65625000  3939759.00000000 3123945.00000000 
0.06100    81475152.00000000 51281644.00000000 129275560.00000000 45771.16015625  3843016.75000000 3047619.25000000 
0.06200    79743264.00000000 50206120.00000000 126546480.00000000 44489.46093750  3747522.25000000 2972242.75000000 
0.06300    78031112.00000000 49142136.00000000 123846384.00000000 43228.87500000  3653322.75000000 2897883.75000000 
0.06400    76337824.00000000 48089980.00000000 121176696.00000000 41990.62890625  3560483.50000000 2824576.50000000 
0.06500    74665936.00000000 47050388.00000000 118539600.00000000 40775.20703125  3469057.25000000 2752415.50000000 
0.06600    73015488.00000000 46024132.00000000 115936360.00000000 39583.41796875  3379106.50000000 2681370.75000000 
0.06700    71387344.00000000 45011588.00000000 113369144.00000000 38415.82812500  3290654.25000000 2611524.00000000 
0.06800    69783544.00000000 44013536.00000000 110838032.00000000 37272.38281250  3203797.25000000 2542880.75000000 
0.06900    68203856.00000000 43030068.00000000 108344856.00000000 36154.36718750  3118503.25000000 2475514.75000000 
0.07000    66649072.00000000 42062052.00000000 105891904.00000000 35061.98046875  3034874.50000000 2409423.25000000 
0.07100    65120376.00000000 41110184.00000000 103478864.00000000 33995.33593750  2952920.50000000 2344624.00000000 
0.07200    63618480.00000000 40173976.00000000 101107256.00000000 32954.83984375  2872665.25000000 2281173.25000000 
0.07300    62143260.00000000 39254820.00000000 98777928.00000000 31940.98437500  2794131.00000000 2219086.00000000 
0.07400    60696364.00000000 38352440.00000000 96492688.00000000 30953.65234375  2717366.50000000 2158348.25000000 
0.07500    59277132.00000000 37467336.00000000 94251080.00000000 29993.03906250  2642366.75000000 2099015.50000000 
0.07600    57886768.00000000 36599532.00000000 92054176.00000000 29059.51562500  2569156.50000000 2041090.75000000 
0.07700    56525376.00000000 35749884.00000000 89902816.00000000 28152.96875000  2497748.50000000 1984567.75000000 
0.07800    55193276.00000000 34918048.00000000 87797392.00000000 27273.35156250  2428154.75000000 1929469.12500000 
0.07900    53890924.00000000 34104204.00000000 85737720.00000000 26420.79296875  2360377.00000000 1875808.12500000 
0.08000    52618496.00000000 33308936.00000000 83725952.00000000 25594.75976562  2294422.00000000 1823567.75000000 
0.08100    51376320.00000000 32531920.00000000 81761280.00000000 24795.54882812  2230273.75000000 1772764.25000000 
0.08200    50163796.00000000 31773820.00000000 79843000.00000000 24022.72851562  2167982.00000000 1723388.00000000 
0.08300    48981652.00000000 31034212.00000000 77973224.00000000 23276.17773438  2107481.00000000 1675428.87500000 
0.08400    47829880.00000000 30313042.00000000 76149944.00000000 22555.41601562  2048783.87500000 1628903.12500000 
0.08500    46708732.00000000 29610790.00000000 74375504.00000000 21860.66601562  1991904.25000000 1583786.12500000 
0.08600    45617360.00000000 28926990.00000000 72647320.00000000 21191.02148438  1936779.25000000 1540061.87500000 
0.08700    44556280.00000000 28261778.00000000 70967320.00000000 20546.36718750  1883428.50000000 1497726.87500000 
0.08800    43525076.00000000 27615146.00000000 69333960.00000000 19926.23437500  1831818.87500000 1456763.87500000 
0.08900    42523920.00000000 26986796.00000000 67747392.00000000 19330.12890625  1781940.00000000 1417157.25000000 
0.09000    41552232.00000000 26376916.00000000 66207436.00000000 18757.84765625  1733759.87500000 1378893.75000000 
0.09100    40609668.00000000 25785128.00000000 64713624.00000000 18208.36914062  1687241.00000000 1341943.87500000 
0.09200    39696160.00000000 25211008.00000000 63265492.00000000 17681.62500000  1642379.12500000 1306282.50000000 
0.09300    38811452.00000000 24655000.00000000 61862092.00000000 17176.92968750  1599130.00000000 1271905.87500000 
0.09400    37954784.00000000 24116288.00000000 60503240.00000000 16693.52148438  1557472.62500000 1238781.25000000 
0.09500    37126016.00000000 23594860.00000000 59188828.00000000 16231.17578125  1517351.87500000 1206872.50000000 
0.09600    36324936.00000000 23090700.00000000 57916980.00000000 15788.99707031  1478758.00000000 1176161.50000000 
0.09700    35550548.00000000 22603034.00000000 56687868.00000000 15366.44433594  1441642.50000000 1146613.87500000 
0.09800    34802892.00000000 22131980.00000000 55500852.00000000 14962.88183594  1405979.50000000 1118217.25000000 
0.09900    34081144.00000000 21677048.00000000 54354604.00000000 14577.74609375  1371708.37500000 1090919.00000000 
0.10000    33384944.00000000 21237954.00000000 53248616.00000000 14210.21777344  1338806.25000000 1064706.75000000 
0.10100    32713364.00000000 20814308.00000000 52181748.00000000 13859.76367188  1307226.50000000 1039543.12500000 
0.10200    32066030.00000000 20405866.00000000 51153364.00000000 13525.70410156  1276941.12500000 1015387.12500000 
0.10300    31442480.00000000 20012150.00000000 50162096.00000000 13207.13769531  1247881.75000000 992217.43750000 
0.10400    30841820.00000000 19632712.00000000 49207396.00000000 12903.75976562  1220021.62500000 969992.18750000 
0.10500    30264068.00000000 19267552.00000000 48288336.00000000 12614.69824219  1193326.37500000 948691.50000000 
0.10600    29707554.00000000 18915770.00000000 47403528.00000000 12339.22558594  1167738.12500000 928259.56250000 
0.10700    29172208.00000000 18577480.00000000 46552080.00000000 12076.87109375  1143217.50000000 908676.18750000 
0.10800    28657716.00000000 18251864.00000000 45733232.00000000 11826.70996094  1119720.37500000 889909.75000000 
0.10900    28162674.00000000 17938598.00000000 44945376.00000000 11588.22167969  1097203.12500000 871920.12500000 
0.11000    27686578.00000000 17637426.00000000 44187836.00000000 11360.66894531  1075619.37500000 854672.00000000 
0.11100    27229244.00000000 17347782.00000000 43459688.00000000 11143.65917969  1054939.87500000 838137.56250000 
0.11200    26789364.00000000 17069264.00000000 42759600.00000000 10936.27539062  1035103.06250000 822275.37500000 
0.11300    26366576.00000000 16801500.00000000 42086416.00000000 10738.16210938  1016075.68750000 807055.62500000 
0.11400    25960066.00000000 16544076.00000000 41439420.00000000 10548.55761719  997808.25000000 792445.50000000 
0.11500    25569186.00000000 16296466.00000000 40817056.00000000 10366.81152344  980269.25000000 778415.00000000 
0.11600    25193374.00000000 16058325.00000000 40218312.00000000 10192.43847656  963411.25000000 764923.12500000 
0.11700    24831696.00000000 15829224.00000000 39642632.00000000 10024.89550781  947195.00000000 751946.62500000 
0.11800    24483538.00000000 15608691.00000000 39088408.00000000 9863.56542969   931575.12500000 739450.43750000 
0.11900    24148328.00000000 15396529.00000000 38554680.00000000 9707.96386719   916521.12500000 727396.87500000 
0.12000    23825274.00000000 15191924.00000000 38040308.00000000 9557.67871094   901991.87500000 715771.75000000 
0.12100    23513858.00000000 14994763.00000000 37544564.00000000 9412.20996094   887955.68750000 704537.62500000 
0.12200    23213352.00000000 14804630.00000000 37066228.00000000 9270.86718750   874370.75000000 693664.12500000 
0.12300    22923266.00000000 14621098.00000000 36604472.00000000 9133.47070312   861194.62500000 683130.43750000 
0.12400    22642660.00000000 14443727.00000000 36158180.00000000 8999.49023438   848410.31250000 672903.87500000 
0.12500    22371182.00000000 14272169.00000000 35726636.00000000 8868.51562500   835975.00000000 662958.18750000 
0.12600    22108326.00000000 14106119.00000000 35308452.00000000 8740.25390625   823867.12500000 653276.18750000 
0.12700    21853116.00000000 13945169.00000000 34903160.00000000 8614.27539062   812039.06250000 643824.50000000 
0.12800    21605386.00000000 13788922.00000000 34509372.00000000 8490.27246094   800480.25000000 634587.87500000 
0.12900    21364432.00000000 13637053.00000000 34126616.00000000 8367.87207031   789158.43750000 625542.25000000 
0.13000    21129718.00000000 13489263.00000000 33753932.00000000 8246.85546875   778040.56250000 616668.87500000 
0.13100    20900626.00000000 13345280.00000000 33390556.00000000 8126.94677734   767111.87500000 607944.56250000 
0.13200    20676888.00000000 13204629.00000000 33035716.00000000 8007.86035156   756339.12500000 599353.75000000 
0.13300    20457970.00000000 13067215.00000000 32688620.00000000 7889.42333984   745709.06250000 590874.56250000 
0.13400    20243288.00000000 12932592.00000000 32348648.00000000 7771.40820312   735199.31250000 582498.68750000 
0.13500    20032518.00000000 12800578.00000000 32014928.00000000 7653.63964844   724787.43750000 574204.93750000 
0.13600    19825158.00000000 12670863.00000000 31686590.00000000 7535.92919922   714456.62500000 565984.31250000 
0.13700    19620908.00000000 12543219.00000000 31363626.00000000 7418.13867188   704192.37500000 557811.87500000 
0.13800    19419498.00000000 12417390.00000000 31045000.00000000 7300.21093750   693976.62500000 549687.62500000 
0.13900    19220300.00000000 12293157.00000000 30730360.00000000 7181.94189453   683802.18750000 541600.50000000 
0.14000    19023086.00000000 12170304.00000000 30418774.00000000 7063.36279297   673654.81250000 533535.43750000 
0.14100    18827658.00000000 12048612.00000000 30110226.00000000 6944.31152344   663515.68750000 525483.18750000 
0.14200    18633600.00000000 11927920.00000000 29804106.00000000 6824.74707031   653385.56250000 517436.28125000 
0.14300    18440538.00000000 11808043.00000000 29499842.00000000 6704.69628906   643248.75000000 509389.40625000 
0.14400    18248456.00000000 11688747.00000000 29196860.00000000 6584.05615234   633097.31250000 501338.65625000 
0.14500    18057082.00000000 11570025.00000000 28895296.00000000 6462.92285156   622931.68750000 493274.59375000 
0.14600    17866038.00000000 11451617.00000000 28594238.00000000 6341.24218750   612744.75000000 485194.78125000 
0.14700    17675232.00000000 11333473.00000000 28293858.00000000 6219.06494141   602527.43750000 477098.18750000 
0.14800    17484424.00000000 11215310.00000000 27993540.00000000 6096.41015625   592283.37500000 468973.31250000 
0.14900    17293552.00000000 11097261.00000000 27693230.00000000 5973.34765625   582001.12500000 460833.00000000 
0.15000    17102524.00000000 10978952.00000000 27392566.00000000 5849.89453125   571692.93750000 452662.15625000 
0.15100    16911102.00000000 10860629.00000000 27091110.00000000 5726.15478516   561347.06250000 444467.28125000 
0.15200    16719102.00000000 10741997.00000000 26789294.00000000 5602.25683594   550976.37500000 436251.37500000 
0.15300    16526654.00000000 10623012.00000000 26486624.00000000 5478.19287109   540572.37500000 428011.93750000 
0.15400    16333434.00000000 10503679.00000000 26182780.00000000 5354.06103516   530136.12500000 419749.15625000 
0.15500    16139697.00000000 10383922.00000000 25877918.00000000 5230.07324219   519680.59375000 411467.46875000 
0.15600    15945045.00000000 10263631.00000000 25571914.00000000 5106.24169922   509201.34375000 403171.31250000 
0.15700    15749756.00000000 10142999.00000000 25264820.00000000 4982.67187500   498710.18750000 394863.34375000 
0.15800    15553719.00000000 10021675.00000000 24956156.00000000 4859.51269531   488202.81250000 386543.25000000 
0.15900    15356839.00000000 9900017.00000000 24646580.00000000 4736.93066406   477694.21875000 378219.00000000 
0.16000    15159164.00000000 9777725.00000000 24335604.00000000 4614.93359375   467183.28125000 369896.50000000 
0.16100    14960810.00000000 9655036.00000000 24023458.00000000 4493.74560547   456685.93750000 361580.68750000 
0.16200    14761752.00000000 9531820.00000000 23710082.00000000 4373.42187500   446197.62500000 353273.87500000 
0.16300    14562017.00000000 9408132.00000000 23395662.00000000 4254.14941406   435734.15625000 344981.15625000 
0.16400    14361629.00000000 9284073.00000000 23080206.00000000 4136.00439453   425298.75000000 336713.78125000 
0.16500    14160811.00000000 9159524.00000000 22763940.00000000 4019.13061523   414900.37500000 328472.31250000 
0.16600    13959454.00000000 9034642.00000000 22446674.00000000 3903.63500977   404546.65625000 320266.46875000 
0.16700    13757744.00000000 8909425.00000000 22128656.00000000 3789.63452148   394246.12500000 312098.90625000 
0.16800    13555661.00000000 8783891.00000000 21810026.00000000 3677.24121094   384005.12500000 303977.03125000 
0.16900    13353513.00000000 8658192.00000000 21491128.00000000 3566.63330078   373836.65625000 295911.03125000 
0.17000    13151123.00000000 8532300.00000000 21171866.00000000 3457.83300781   363744.00000000 287903.25000000 
