# SAXS profile: number of points = 501, q_min = 0, q_max = 0.5, delta_q = 0.001
#    q    intensity 
0.00000    162235232.00000000 101202144.00000000 256270144.00000000 109988.98437500 8448614.00000000 6672671.50000000 
0.00100    162199792.00000000 101179072.00000000 256212208.00000000 109957.17187500 8446376.00000000 6670937.50000000 
0.00200    162092240.00000000 101110904.00000000 256038800.00000000 109861.57812500 8439715.00000000 6665723.00000000 
0.00300    161908880.00000000 100996720.00000000 255747792.00000000 109701.58593750 8428614.00000000 6656992.50000000 
0.00400    161650992.00000000 100837696.00000000 255341344.00000000 109478.10937500 8413167.00000000 6644832.00000000 
0.00500    161318048.00000000 100632400.00000000 254820544.00000000 109192.52343750 8393363.00000000 6629212.50000000 
0.00600    160910992.00000000 100381480.00000000 254183312.00000000 108843.67968750 8369170.00000000 6610246.00000000 
0.00700    160433952.00000000 100087632.00000000 253434912.00000000 108433.59375000 8340687.00000000 6587862.00000000 
0.00800    159881296.00000000 99750368.00000000 252574896.00000000 107961.84375000 8307950.50000000 6562120.00000000 
0.00900    159261008.00000000 99368920.00000000 251601776.00000000 107430.30468750 8271045.50000000 6533105.00000000 
0.01000    158572032.00000000 98945416.00000000 250520336.00000000 106839.24218750 8230011.00000000 6500848.50000000 
0.01100    157815824.00000000 98479272.00000000 249331136.00000000 106189.90625000 8184900.50000000 6465412.00000000 
0.01200    156992496.00000000 97970032.00000000 248036656.00000000 105484.10156250 8135836.00000000 6426827.50000000 
0.01300    156100304.00000000 97421496.00000000 246636576.00000000 104722.90625000 8082844.00000000 6385162.50000000 
0.01400    155143168.00000000 96832248.00000000 245136288.00000000 103907.15625000 8026107.00000000 6340516.50000000 
0.01500    154123344.00000000 96203776.00000000 243535056.00000000 103038.78906250 7965556.50000000 6292931.00000000 
0.01600    153041984.00000000 95537024.00000000 241836960.00000000 102119.66406250 7901470.00000000 6242531.50000000 
0.01700    151901504.00000000 94834136.00000000 240044560.00000000 101150.56250000 7833909.00000000 6189388.50000000 
0.01800    150700112.00000000 94095232.00000000 238160896.00000000 100134.10937500 7762889.00000000 6133510.00000000 
0.01900    149442432.00000000 93320528.00000000 236186144.00000000 99071.90625000  7688614.00000000 6075083.50000000 
0.02000    148131280.00000000 92511904.00000000 234126336.00000000 97965.42968750  7611160.00000000 6014206.00000000 
0.02100    146766496.00000000 91670464.00000000 231983184.00000000 96817.20312500  7530705.50000000 5950930.00000000 
0.02200    145350032.00000000 90797392.00000000 229759424.00000000 95629.03906250  7447364.00000000 5885360.00000000 
0.02300    143885584.00000000 89894392.00000000 227459232.00000000 94402.89062500  7361239.50000000 5817654.50000000 
0.02400    142374160.00000000 88961968.00000000 225083328.00000000 93140.32812500  7272513.50000000 5747817.50000000 
0.02500    140817504.00000000 88002120.00000000 222637920.00000000 91844.92187500  7181282.00000000 5676059.00000000 
0.02600    139218032.00000000 87015448.00000000 220126432.00000000 90517.65625000  7087709.00000000 5602442.50000000 
0.02700    137578384.00000000 86004448.00000000 217550928.00000000 89160.51562500  6991946.50000000 5527125.00000000 
0.02800    135902096.00000000 84969064.00000000 214916912.00000000 87777.25000000  6894125.00000000 5450103.50000000 
0.02900    134188576.00000000 83911848.00000000 212224544.00000000 86368.76562500  6794404.50000000 5371629.50000000 
0.03000    132442120.00000000 82833208.00000000 209480880.00000000 84937.50781250  6692920.00000000 5291796.00000000 
0.03100    130664368.00000000 81735904.00000000 206686960.00000000 83486.32812500  6589823.00000000 5210647.00000000 
0.03200    128859192.00000000 80620576.00000000 203848112.00000000 82017.34375000  6485293.50000000 5128362.50000000 
0.03300    127025888.00000000 79489552.00000000 200968704.00000000 80532.36718750  6379440.00000000 5045050.00000000 
0.03400    125170216.00000000 78342616.00000000 198050352.00000000 79033.71093750  6272443.00000000 4960800.00000000 
0.03500    123292512.00000000 77182008.00000000 195097472.00000000 77523.98437500  6164468.00000000 4875801.50000000 
0.03600    121395392.00000000 76009816.00000000 192116112.00000000 76005.44531250  6055577.50000000 4790106.50000000 
0.03700    119482264.00000000 74827264.00000000 189106848.00000000 74480.22656250  5946049.50000000 4703846.00000000 
0.03800    117554920.00000000 73635816.00000000 186074704.00000000 72950.13281250  5835943.50000000 4617129.00000000 
0.03900    115614608.00000000 72436288.00000000 183024528.00000000 71417.86718750  5725454.00000000 4530110.00000000 
0.04000    113666072.00000000 71230504.00000000 179956816.00000000 69884.78125000  5614619.00000000 4442829.00000000 
0.04100    111709352.00000000 70019680.00000000 176878016.00000000 68353.80468750  5503662.00000000 4355431.50000000 
0.04200    109747208.00000000 68805552.00000000 173791344.00000000 66825.49218750  5392707.50000000 4268060.00000000 
0.04300    107783040.00000000 67588696.00000000 170699312.00000000 65302.98046875  5281956.00000000 4180753.50000000 
0.04400    105817792.00000000 66371308.00000000 167607136.00000000 63787.94531250  5171410.00000000 4093636.75000000 
0.04500    103853952.00000000 65154832.00000000 164515424.00000000 62282.05859375  5061309.50000000 4006855.50000000 
0.04600    101893464.00000000 63940264.00000000 161428480.00000000 60786.71875000  4951673.00000000 3920463.75000000 
0.04700    99938992.00000000 62728792.00000000 158352128.00000000 59304.29687500  4842666.00000000 3834583.75000000 
0.04800    97991328.00000000 61521440.00000000 155284528.00000000 57835.79296875  4734423.50000000 3749236.00000000 
0.04900    96053984.00000000 60320148.00000000 152232496.00000000 56383.09765625  4627122.00000000 3664616.00000000 
0.05000    94128368.00000000 59124984.00000000 149199056.00000000 54947.58203125  4520716.50000000 3580709.50000000 
0.05100    92215592.00000000 57938476.00000000 146184672.00000000 53530.61328125  4415357.50000000 3497653.25000000 
0.05200    90318176.00000000 56760476.00000000 143194208.00000000 52132.97265625  4311215.00000000 3415502.50000000 
0.05300    88436928.00000000 55592460.00000000 140229296.00000000 50756.46093750  4208327.00000000 3334350.25000000 
0.05400    86573792.00000000 54435592.00000000 137293488.00000000 49402.31640625  4106768.25000000 3254207.25000000 
0.05500    84730592.00000000 53290284.00000000 134387536.00000000 48070.83203125  4006639.75000000 3175207.50000000 
0.05600    82909448.00000000 52157932.00000000 131516584.00000000 46763.36718750  3907993.50000000 3097355.25000000 
0.05700    81110136.00000000 51039624.00000000 128679904.00000000 45481.53906250  3810963.75000000 3020783.00000000 
0.05800    79334880.00000000 49935392.00000000 125879624.00000000 44224.84765625  3715557.50000000 2945461.50000000 
0.05900    77585096.00000000 48846884.00000000 123118624.00000000 42994.76562500  3621825.00000000 2871463.50000000 
0.06000    75861712.00000000 47774512.00000000 120399944.00000000 41791.86718750  3529860.50000000 2798854.25000000 
0.06100    74165904.00000000 46718672.00000000 117723616.00000000 40616.01562500  3439716.25000000 2727646.75000000 
0.06200    72498544.00000000 45680464.00000000 115091896.00000000 39468.69531250  3351399.00000000 2657916.75000000 
0.06300    70860312.00000000 44660040.00000000 112505976.00000000 38350.09375000  3264970.50000000 2589645.75000000 
0.06400    69252432.00000000 43657960.00000000 109967608.00000000 37259.51953125  3180456.75000000 2522876.25000000 
0.06500    67676488.00000000 42675332.00000000 107477760.00000000 36197.94921875  3097906.75000000 2457624.50000000 
0.06600    66131148.00000000 41711888.00000000 105037880.00000000 35165.75390625  3017326.50000000 2393949.75000000 
0.06700    64618032.00000000 40768628.00000000 102648024.00000000 34162.25000000  2938729.25000000 2331825.50000000 
0.06800    63138320.00000000 39845056.00000000 100309472.00000000 33188.16796875  2862135.50000000 2271276.50000000 
0.06900    61691740.00000000 38942020.00000000 98024192.00000000 32243.55859375  2787550.25000000 2212318.75000000 
0.07000    60278572.00000000 38059688.00000000 95791000.00000000 31327.28906250  2714989.75000000 2154936.50000000 
0.07100    58899500.00000000 37198440.00000000 93611000.00000000 30439.95312500  2644459.50000000 2099135.75000000 
0.07200    57554452.00000000 36358116.00000000 91485232.00000000 29581.20703125  2575924.50000000 2044916.62500000 
0.07300    56244060.00000000 35539132.00000000 89413064.00000000 28750.50976562  2509408.75000000 1992297.75000000 
0.07400    54968008.00000000 34741608.00000000 87395440.00000000 27947.75000000  2444864.50000000 1941227.50000000 
0.07500    53726552.00000000 33964764.00000000 85431664.00000000 27172.45703125  2382301.00000000 1891712.25000000 
0.07600    52519548.00000000 33209722.00000000 83521536.00000000 26423.89648438  2321697.25000000 1843735.75000000 
0.07700    51346420.00000000 32475720.00000000 81666168.00000000 25701.94335938  2263008.75000000 1797289.12500000 
0.07800    50207672.00000000 31763166.00000000 79864216.00000000 25005.81835938  2206233.75000000 1752346.25000000 
0.07900    49102764.00000000 31071546.00000000 78115816.00000000 24334.98046875  2151359.00000000 1708865.25000000 
0.08000    48031440.00000000 30400604.00000000 76420104.00000000 23688.89257812  2098306.50000000 1666845.37500000 
0.08100    46993400.00000000 29750638.00000000 74776824.00000000 23066.79687500  2047069.50000000 1626258.37500000 
0.08200    45988128.00000000 29121114.00000000 73186144.00000000 22467.99609375  1997592.00000000 1587066.37500000 
0.08300    45015724.00000000 28511756.00000000 71646104.00000000 21892.04687500  1949846.25000000 1549227.87500000 
0.08400    44074960.00000000 27922180.00000000 70156928.00000000 21337.88867188  1903799.87500000 1512732.25000000 
0.08500    43166108.00000000 27352572.00000000 68717336.00000000 20805.17578125  1859382.25000000 1477524.75000000 
0.08600    42287820.00000000 26802088.00000000 67327144.00000000 20292.94140625  1816557.12500000 1443581.00000000 
0.08700    41439564.00000000 26270604.00000000 65984312.00000000 19800.26562500  1775294.62500000 1410869.75000000 
0.08800    40621460.00000000 25757420.00000000 64688432.00000000 19326.50195312  1735524.37500000 1379345.25000000 
0.08900    39831960.00000000 25262414.00000000 63438536.00000000 18871.11718750  1697218.87500000 1348960.87500000 
0.09000    39070984.00000000 24785428.00000000 62232948.00000000 18433.03710938  1660313.12500000 1319701.62500000 
0.09100    38337456.00000000 24325534.00000000 61071252.00000000 18011.72460938  1624753.37500000 1291494.50000000 
0.09200    37630768.00000000 23882458.00000000 59951928.00000000 17606.18164062  1590501.12500000 1264321.25000000 
0.09300    36950072.00000000 23455990.00000000 58874220.00000000 17215.96679688  1557496.87500000 1238140.62500000 
0.09400    36294832.00000000 23045112.00000000 57836196.00000000 16839.69531250  1525686.12500000 1212912.25000000 
0.09500    35663708.00000000 22649844.00000000 56837296.00000000 16477.34765625  1495015.00000000 1188584.12500000 
0.09600    35056152.00000000 22269358.00000000 55875656.00000000 16128.00195312  1465451.50000000 1165114.87500000 
0.09700    34471524.00000000 21903364.00000000 54950320.00000000 15790.65332031  1436927.00000000 1142485.62500000 
0.09800    33908764.00000000 21551146.00000000 54060164.00000000 15464.94824219  1409384.50000000 1120635.87500000 
0.09900    33367496.00000000 21212458.00000000 53203592.00000000 15150.10253906  1382795.75000000 1099545.75000000 
0.10000    32846394.00000000 20886558.00000000 52379128.00000000 14845.26660156  1357103.62500000 1079150.87500000 
0.10100    32344520.00000000 20572850.00000000 51585624.00000000 14550.02246094  1332252.12500000 1059429.87500000 
0.10200    31861606.00000000 20270928.00000000 50821760.00000000 14263.78613281  1308183.87500000 1040346.62500000 
0.10300    31396294.00000000 19980352.00000000 50086240.00000000 13985.77929688  1284891.50000000 1021857.75000000 
0.10400    30948026.00000000 19700618.00000000 49377912.00000000 13715.58007812  1262291.25000000 1003922.87500000 
0.10500    30515814.00000000 19431236.00000000 48695304.00000000 13452.74023438  1240363.50000000 986525.37500000 
0.10600    30098934.00000000 19171324.00000000 48036792.00000000 13196.49316406  1219047.87500000 969623.06250000 
0.10700    29696588.00000000 18920832.00000000 47401868.00000000 12946.43945312  1198312.00000000 953176.62500000 
0.10800    29307994.00000000 18679220.00000000 46788860.00000000 12702.30175781  1178130.75000000 937156.00000000 
0.10900    28932310.00000000 18445610.00000000 46196204.00000000 12463.43261719  1158437.87500000 921538.25000000 
0.11000    28568728.00000000 18220114.00000000 45623348.00000000 12229.54101562  1139207.00000000 906293.12500000 
0.11100    28216724.00000000 18001744.00000000 45068744.00000000 12000.18652344  1120425.87500000 891387.25000000 
0.11200    27875412.00000000 17790188.00000000 44531108.00000000 11775.16113281  1102032.37500000 876802.12500000 
0.11300    27544254.00000000 17585106.00000000 44009652.00000000 11553.85449219  1084008.12500000 862513.06250000 
0.11400    27222398.00000000 17385978.00000000 43502816.00000000 11336.23632812  1066336.37500000 848494.18750000 
0.11500    26909182.00000000 17192434.00000000 43010676.00000000 11121.99414062  1048965.75000000 834719.18750000 
0.11600    26603938.00000000 17003922.00000000 42530704.00000000 10910.87695312  1031889.00000000 821176.62500000 
0.11700    26306440.00000000 16820524.00000000 42063164.00000000 10702.53222656  1015059.62500000 807832.81250000 
0.11800    26015632.00000000 16641307.00000000 41606096.00000000 10496.90527344  998484.18750000 794690.31250000 
0.11900    25731150.00000000 16466154.00000000 41159724.00000000 10293.81347656  982123.56250000 781715.12500000 
0.12000    25452216.00000000 16294642.00000000 40722020.00000000 10093.02246094  965956.31250000 768900.18750000 
0.12100    25178772.00000000 16126578.00000000 40292984.00000000 9894.48730469   949989.50000000 756228.50000000 
0.12200    24909934.00000000 15961439.00000000 39871572.00000000 9698.00000000   934174.81250000 743691.50000000 
0.12300    24645632.00000000 15798976.00000000 39457008.00000000 9503.59375000   918518.81250000 731277.31250000 
0.12400    24384828.00000000 15639099.00000000 39048372.00000000 9311.13085938   903004.87500000 718971.31250000 
0.12500    24127588.00000000 15481435.00000000 38645596.00000000 9120.62304688   887614.43750000 706765.81250000 
0.12600    23873408.00000000 15325576.00000000 38247280.00000000 8932.00292969   872360.18750000 694661.56250000 
0.12700    23622022.00000000 15171420.00000000 37853388.00000000 8745.12207031   857204.87500000 682641.93750000 
0.12800    23372904.00000000 15018753.00000000 37462840.00000000 8560.16601562   842159.81250000 670703.68750000 
0.12900    23125858.00000000 14867217.00000000 37075896.00000000 8377.08691406   827213.06250000 658839.37500000 
0.13000    22880596.00000000 14716792.00000000 36691420.00000000 8195.84179688   812363.50000000 647054.68750000 
0.13100    22636676.00000000 14567215.00000000 36309300.00000000 8016.43408203   797604.37500000 635338.62500000 
0.13200    22393884.00000000 14418412.00000000 35929244.00000000 7838.99511719   782938.56250000 623686.31250000 
0.13300    22152422.00000000 14270101.00000000 35550464.00000000 7663.53369141   768358.68750000 612115.31250000 
0.13400    21911542.00000000 14122308.00000000 35172784.00000000 7490.08398438   753867.18750000 600606.93750000 
0.13500    21671426.00000000 13974795.00000000 34796060.00000000 7318.72070312   739471.75000000 589160.56250000 
0.13600    21431812.00000000 13827362.00000000 34420136.00000000 7149.46972656   725161.06250000 577790.25000000 
0.13700    21192456.00000000 13680245.00000000 34044388.00000000 6982.44824219   710941.37500000 566488.37500000 
0.13800    20953564.00000000 13532949.00000000 33668836.00000000 6817.63916016   696816.56250000 555259.68750000 
0.13900    20714484.00000000 13385668.00000000 33293624.00000000 6655.21337891   682793.18750000 544110.00000000 
0.14000    20475730.00000000 13238258.00000000 32918242.00000000 6495.21337891   668875.12500000 533034.12500000 
0.14100    20236854.00000000 13090776.00000000 32542492.00000000 6337.64746094   655064.06250000 522048.21875000 
0.14200    19997918.00000000 12942931.00000000 32166800.00000000 6182.69921875   641358.12500000 511138.50000000 
0.14300    19759166.00000000 12795000.00000000 31790524.00000000 6030.30957031   627778.43750000 500325.18750000 
0.14400    19519918.00000000 12646706.00000000 31413750.00000000 5880.58349609   614316.87500000 489600.68750000 
0.14500    19280858.00000000 12498270.00000000 31036856.00000000 5733.62890625   600977.43750000 478978.31250000 
0.14600    19041614.00000000 12349618.00000000 30659564.00000000 5589.49511719   587783.06250000 468462.62500000 
0.14700    18802290.00000000 12200669.00000000 30282040.00000000 5448.21826172   574717.93750000 458050.40625000 
0.14800    18563000.00000000 12051488.00000000 29903754.00000000 5309.84863281   561804.87500000 447754.43750000 
0.14900    18323552.00000000 11902067.00000000 29525508.00000000 5174.41455078   549040.06250000 437564.96875000 
0.15000    18084378.00000000 11752529.00000000 29146972.00000000 5042.03613281   536428.18750000 427506.37500000 
0.15100    17845258.00000000 11602786.00000000 28768360.00000000 4912.63574219   523983.15625000 417574.34375000 
0.15200    17606372.00000000 11452994.00000000 28389990.00000000 4786.35009766   511707.06250000 407770.09375000 
0.15300    17367734.00000000 11303081.00000000 28011780.00000000 4663.11767578   499605.90625000 398105.78125000 
0.15400    17129212.00000000 11153148.00000000 27633334.00000000 4543.00927734   487675.84375000 388572.84375000 
0.15500    16891654.00000000 11003330.00000000 27255762.00000000 4426.02343750   475933.56250000 379187.87500000 
0.15600    16654069.00000000 10853543.00000000 26878542.00000000 4312.14160156   464379.34375000 369948.78125000 
0.15700    16417278.00000000 10703968.00000000 26501956.00000000 4201.39892578   453021.46875000 360868.71875000 
0.15800    16181175.00000000 10554532.00000000 26126176.00000000 4093.76782227   441853.90625000 351932.65625000 
0.15900    15945922.00000000 10405419.00000000 25751700.00000000 3989.27734375   430889.00000000 343156.93750000 
0.16000    15711507.00000000 10256630.00000000 25377986.00000000 3887.82031250   420127.53125000 334540.56250000 
0.16100    15478171.00000000 10108280.00000000 25005822.00000000 3789.50122070   409575.09375000 326087.50000000 
0.16200    15245893.00000000 9960367.00000000 24635216.00000000 3694.15332031   399232.59375000 317801.37500000 
0.16300    15014839.00000000 9813039.00000000 24266106.00000000 3601.83349609   389099.56250000 309682.75000000 
0.16400    14785115.00000000 9666299.00000000 23898716.00000000 3512.47265625   379181.96875000 301730.37500000 
0.16500    14556786.00000000 9520224.00000000 23533388.00000000 3426.01025391   369479.21875000 293950.37500000 
0.16600    14329946.00000000 9374968.00000000 23170450.00000000 3342.44165039   359990.71875000 286338.75000000 
0.16700    14104720.00000000 9230416.00000000 22809406.00000000 3261.62622070   350722.15625000 278901.93750000 
0.16800    13881128.00000000 9086842.00000000 22450924.00000000 3183.56445312   341671.90625000 271632.00000000 
0.16900    13659473.00000000 8944146.00000000 22095214.00000000 3108.24072266   332837.90625000 264538.31250000 
0.17000    13439589.00000000 8802472.00000000 21742110.00000000 3035.50512695   324217.53125000 257616.31250000 
