# SAXS profile: number of points = 501, q_min = 0, q_max = 0.5, delta_q = 0.001
#    q    intensity 
0.00000    162234336.00000000 101202368.00000000 256271520.00000000 106672.44531250 8320193.00000000 6571291.00000000 
0.00100    162192048.00000000 101174168.00000000 256199360.00000000 106637.11718750 8317663.50000000 6569321.50000000 
0.00200    162061664.00000000 101090336.00000000 255988336.00000000 106533.50000000 8310107.50000000 6563360.50000000 
0.00300    161838928.00000000 100950864.00000000 255635952.00000000 106359.39843750 8297533.50000000 6553423.50000000 
0.00400    161523376.00000000 100756472.00000000 255139824.00000000 106116.76562500 8280012.50000000 6539601.50000000 
0.00500    161119424.00000000 100507784.00000000 254506960.00000000 105806.46093750 8257524.00000000 6521909.50000000 
0.00600    160629008.00000000 100202960.00000000 253732832.00000000 105428.35937500 8230089.00000000 6500317.00000000 
0.00700    160048880.00000000 99845624.00000000 252825792.00000000 104982.70312500 8197817.00000000 6474923.00000000 
0.00800    159382992.00000000 99436176.00000000 251781024.00000000 104472.57812500 8160792.50000000 6445773.00000000 
0.00900    158634928.00000000 98973848.00000000 250605280.00000000 103897.49218750 8119092.50000000 6412917.50000000 
0.01000    157806144.00000000 98460216.00000000 249297600.00000000 103258.82812500 8072767.00000000 6376481.00000000 
0.01100    156896256.00000000 97895000.00000000 247864304.00000000 102559.35156250 8021900.00000000 6336501.00000000 
0.01200    155902080.00000000 97281248.00000000 246303504.00000000 101798.38281250 7966673.50000000 6293043.50000000 
0.01300    154833376.00000000 96619416.00000000 244622880.00000000 100979.55468750 7907203.00000000 6246172.00000000 
0.01400    153688576.00000000 95911592.00000000 242822256.00000000 100103.44531250 7843522.00000000 6196064.50000000 
0.01500    152473024.00000000 95157816.00000000 240907216.00000000 99173.86718750  7775840.00000000 6142758.00000000 
0.01600    151184256.00000000 94361192.00000000 238880928.00000000 98190.48437500  7704266.50000000 6086400.50000000 
0.01700    149827184.00000000 93521808.00000000 236746272.00000000 97157.11718750  7628934.50000000 6027119.50000000 
0.01800    148406976.00000000 92641528.00000000 234508560.00000000 96075.56250000  7550058.00000000 5964998.50000000 
0.01900    146921968.00000000 91721744.00000000 232171968.00000000 94947.78906250  7467781.00000000 5900195.00000000 
0.02000    145376400.00000000 90765728.00000000 229739184.00000000 93776.74218750  7382167.00000000 5832779.00000000 
0.02100    143774640.00000000 89773784.00000000 227219296.00000000 92564.21875000  7293547.00000000 5763006.50000000 
0.02200    142119808.00000000 88747624.00000000 224611168.00000000 91313.07031250  7202034.00000000 5690904.00000000 
0.02300    140410672.00000000 87690120.00000000 221923328.00000000 90026.89843750  7107755.50000000 5616667.50000000 
0.02400    138655552.00000000 86602984.00000000 219161632.00000000 88706.14843750  7010911.50000000 5540392.50000000 
0.02500    136856144.00000000 85487128.00000000 216327968.00000000 87355.12500000  6911790.50000000 5462287.00000000 
0.02600    135014224.00000000 84346224.00000000 213427360.00000000 85975.96093750  6810461.00000000 5382464.50000000 
0.02700    133135136.00000000 83180352.00000000 210467584.00000000 84572.10156250  6707088.50000000 5301094.50000000 
0.02800    131219448.00000000 81993472.00000000 207452544.00000000 83145.47656250  6601954.00000000 5218247.00000000 
0.02900    129273488.00000000 80786928.00000000 204387008.00000000 81698.82031250  6495249.50000000 5134157.50000000 
0.03000    127297888.00000000 79561624.00000000 201275216.00000000 80234.56250000  6387092.50000000 5048939.50000000 
0.03100    125298064.00000000 78322080.00000000 198127056.00000000 78756.68750000  6277763.50000000 4962809.00000000 
0.03200    123276056.00000000 77067080.00000000 194940704.00000000 77265.70312500  6167413.00000000 4875811.00000000 
0.03300    121236400.00000000 75800960.00000000 191725680.00000000 75766.59375000  6056151.50000000 4788168.00000000 
0.03400    119180752.00000000 74526032.00000000 188489680.00000000 74260.55468750  5944299.00000000 4699984.50000000 
0.03500    117113544.00000000 73243912.00000000 185232336.00000000 72750.80468750  5831979.00000000 4611468.50000000 
0.03600    115036912.00000000 71955616.00000000 181960560.00000000 71238.86718750  5719275.00000000 4522643.00000000 
0.03700    112955568.00000000 70662624.00000000 178679056.00000000 69727.75000000  5606532.50000000 4433744.50000000 
0.03800    110870880.00000000 69368544.00000000 175393952.00000000 68219.57031250  5493809.50000000 4344880.00000000 
0.03900    108787120.00000000 68074064.00000000 172109392.00000000 66717.35937500  5381303.00000000 4256173.50000000 
0.04000    106706648.00000000 66781372.00000000 168830880.00000000 65222.05859375  5269172.50000000 4167752.25000000 
0.04100    104632800.00000000 65492672.00000000 165560976.00000000 63736.71093750  5157605.50000000 4079745.00000000 
0.04200    102567400.00000000 64209732.00000000 162304464.00000000 62262.73046875  5046694.00000000 3992278.00000000 
0.04300    100514144.00000000 62933240.00000000 159067056.00000000 60802.69921875  4936626.00000000 3905455.75000000 
0.04400    98475288.00000000 61665280.00000000 155850864.00000000 59358.10546875  4827504.00000000 3819371.25000000 
0.04500    96453824.00000000 60408172.00000000 152662992.00000000 57930.54296875  4719484.00000000 3734177.00000000 
0.04600    94450768.00000000 59162136.00000000 149501936.00000000 56521.62109375  4612715.00000000 3649906.50000000 
0.04700    92469056.00000000 57929616.00000000 146378256.00000000 55133.01171875  4507240.50000000 3566731.50000000 
0.04800    90510416.00000000 56711368.00000000 143287376.00000000 53766.47656250  4403269.00000000 3484654.00000000 
0.04900    88578792.00000000 55508916.00000000 140239328.00000000 52422.36328125  4300841.00000000 3403812.75000000 
0.05000    86673168.00000000 54323008.00000000 137232736.00000000 51102.53125000  4200066.50000000 3324274.50000000 
0.05100    84797608.00000000 53155392.00000000 134274064.00000000 49808.23437500  4100965.50000000 3246095.00000000 
0.05200    82952952.00000000 52006496.00000000 131362696.00000000 48539.81250000  4003750.75000000 3169375.50000000 
0.05300    81141480.00000000 50877872.00000000 128501992.00000000 47298.75000000  3908448.50000000 3094101.50000000 
0.05400    79362736.00000000 49770072.00000000 125695392.00000000 46084.93359375  3815065.25000000 3020411.50000000 
0.05500    77618728.00000000 48684280.00000000 122942960.00000000 44899.61328125  3723705.00000000 2948278.75000000 
0.05600    75912208.00000000 47620572.00000000 120248200.00000000 43743.39453125  3634408.00000000 2877755.00000000 
0.05700    74242864.00000000 46580628.00000000 117612208.00000000 42616.78125000  3547213.25000000 2808915.50000000 
0.05800    72611184.00000000 45563832.00000000 115036936.00000000 41519.09765625  3462193.50000000 2741780.25000000 
0.05900    71019112.00000000 44571292.00000000 112522376.00000000 40451.73437500  3379329.00000000 2676345.75000000 
0.06000    69466360.00000000 43603020.00000000 110070648.00000000 39414.23437500  3298636.00000000 2612626.50000000 
0.06100    67953696.00000000 42660160.00000000 107681968.00000000 38406.76562500  3220187.00000000 2550646.75000000 
0.06200    66481776.00000000 41742580.00000000 105356824.00000000 37429.18359375  3143933.00000000 2490413.50000000 
0.06300    65050816.00000000 40850048.00000000 103097048.00000000 36481.70312500  3069905.25000000 2431957.50000000 
0.06400    63659996.00000000 39983120.00000000 100901256.00000000 35563.32812500  2998063.25000000 2375226.75000000 
0.06500    62311188.00000000 39141912.00000000 98770960.00000000 34674.50390625  2928452.75000000 2320207.00000000 
0.06600    61003476.00000000 38326260.00000000 96704592.00000000 33814.38671875  2861002.50000000 2266941.75000000 
0.06700    59735688.00000000 37535860.00000000 94703072.00000000 32982.87500000  2795721.75000000 2215384.75000000 
0.06800    58509524.00000000 36770880.00000000 92765776.00000000 32178.71484375  2732575.75000000 2165511.50000000 
0.06900    57322944.00000000 36031260.00000000 90892368.00000000 31402.55468750  2671534.75000000 2117302.75000000 
0.07000    56176440.00000000 35316200.00000000 89082384.00000000 30652.90820312  2612536.75000000 2070711.62500000 
0.07100    55069292.00000000 34626232.00000000 87333096.00000000 29929.08789062  2555590.75000000 2025718.37500000 
0.07200    54000748.00000000 33960272.00000000 85646080.00000000 29230.81835938  2500589.75000000 1982285.50000000 
0.07300    52969868.00000000 33318054.00000000 84019864.00000000 28556.99609375  2447558.75000000 1940403.25000000 
0.07400    51976944.00000000 32699326.00000000 82450584.00000000 27907.03710938  2396372.75000000 1900002.25000000 
0.07500    51020152.00000000 32103698.00000000 80941112.00000000 27280.04296875  2347064.25000000 1861045.25000000 
0.07600    50098660.00000000 31530260.00000000 79487472.00000000 26675.38085938  2299478.00000000 1823481.62500000 
0.07700    49212460.00000000 30978592.00000000 78088480.00000000 26091.80468750  2253633.00000000 1787279.00000000 
0.07800    48359740.00000000 30447946.00000000 76743248.00000000 25528.68945312  2209422.75000000 1752387.12500000 
0.07900    47539460.00000000 29937998.00000000 75449648.00000000 24985.25585938  2166793.25000000 1718739.37500000 
0.08000    46750788.00000000 29448138.00000000 74206088.00000000 24460.41601562  2125697.25000000 1686316.25000000 
0.08100    45992980.00000000 28977434.00000000 73011688.00000000 23953.41406250  2086068.62500000 1655039.50000000 
0.08200    45264136.00000000 28525024.00000000 71863304.00000000 23463.30859375  2047827.87500000 1624877.00000000 
0.08300    44563776.00000000 28090654.00000000 70759872.00000000 22989.27148438  2010920.50000000 1595753.87500000 
0.08400    43889996.00000000 27673352.00000000 69699608.00000000 22530.36718750  1975262.50000000 1567645.12500000 
0.08500    43242732.00000000 27272300.00000000 68680672.00000000 22086.03906250  1940825.75000000 1540479.62500000 
0.08600    42619972.00000000 26887114.00000000 67700520.00000000 21655.05664062  1907509.00000000 1514209.12500000 
0.08700    42020384.00000000 26516742.00000000 66758124.00000000 21236.89257812  1875276.50000000 1488798.62500000 
0.08800    41443556.00000000 26160378.00000000 65851156.00000000 20830.58789062  1844044.87500000 1464187.87500000 
0.08900    40887476.00000000 25817628.00000000 64977692.00000000 20435.59179688  1813763.37500000 1440324.87500000 
0.09000    40351880.00000000 25487436.00000000 64136588.00000000 20050.89843750  1784368.00000000 1417162.87500000 
0.09100    39834368.00000000 25169102.00000000 63325396.00000000 19676.00195312  1755797.12500000 1394663.25000000 
0.09200    39335104.00000000 24861950.00000000 62541336.00000000 19310.30859375  1727997.37500000 1372759.87500000 
0.09300    38852208.00000000 24565442.00000000 61784648.00000000 18953.01171875  1700916.00000000 1351435.62500000 
0.09400    38384776.00000000 24278758.00000000 61052052.00000000 18603.43554688  1674491.00000000 1330614.37500000 
0.09500    37931356.00000000 24000972.00000000 60342412.00000000 18261.17968750  1648677.62500000 1310293.87500000 
0.09600    37491872.00000000 23731766.00000000 59653756.00000000 17925.80273438  1623437.50000000 1290410.62500000 
0.09700    37064232.00000000 23470402.00000000 58984776.00000000 17596.61132812  1598714.62500000 1270940.00000000 
0.09800    36648104.00000000 23216134.00000000 58333940.00000000 17273.23632812  1574458.12500000 1251840.25000000 
0.09900    36241936.00000000 22968408.00000000 57699488.00000000 16955.06640625  1550632.37500000 1233066.12500000 
0.10000    35845312.00000000 22726720.00000000 57079844.00000000 16642.02929688  1527200.00000000 1214623.50000000 
0.10100    35457360.00000000 22490364.00000000 56473892.00000000 16333.65429688  1504123.62500000 1196440.00000000 
0.10200    35077148.00000000 22258786.00000000 55880460.00000000 16029.45214844  1481371.25000000 1178513.37500000 
0.10300    34703592.00000000 22031744.00000000 55297332.00000000 15729.29101562  1458903.50000000 1160824.62500000 
0.10400    34336648.00000000 21808418.00000000 54724788.00000000 15432.81054688  1436690.75000000 1143307.62500000 
0.10500    33975012.00000000 21588746.00000000 54160260.00000000 15139.84765625  1414730.75000000 1125999.75000000 
0.10600    33617672.00000000 21371518.00000000 53603204.00000000 14850.35449219  1392967.00000000 1108833.12500000 
0.10700    33265014.00000000 21157280.00000000 53052684.00000000 14563.89160156  1371400.50000000 1091811.75000000 
0.10800    32915548.00000000 20945158.00000000 52507984.00000000 14280.42285156  1349994.50000000 1074928.37500000 
0.10900    32569550.00000000 20734640.00000000 51967812.00000000 13999.94335938  1328746.12500000 1058157.75000000 
0.11000    32225718.00000000 20525806.00000000 51431796.00000000 13722.35449219  1307644.75000000 1041480.18750000 
0.11100    31883958.00000000 20318198.00000000 50898192.00000000 13447.35839844  1286656.50000000 1024903.31250000 
0.11200    31544094.00000000 20111236.00000000 50367640.00000000 13175.20117188  1265783.50000000 1008407.50000000 
0.11300    31205168.00000000 19905134.00000000 49838752.00000000 12905.77050781  1245019.25000000 991989.93750000 
0.11400    30867316.00000000 19699342.00000000 49311188.00000000 12639.02636719  1224354.50000000 975635.75000000 
0.11500    30530144.00000000 19493910.00000000 48784536.00000000 12374.94824219  1203788.12500000 959369.87500000 
0.11600    30193360.00000000 19288462.00000000 48257792.00000000 12113.68554688  1183313.37500000 943148.87500000 
0.11700    29856618.00000000 19082980.00000000 47731472.00000000 11855.08691406  1162932.87500000 927003.37500000 
0.11800    29519986.00000000 18877204.00000000 47204760.00000000 11599.38769531  1142634.62500000 910909.50000000 
0.11900    29183148.00000000 18671028.00000000 46677416.00000000 11346.46191406  1122430.25000000 894887.93750000 
0.12000    28846152.00000000 18464474.00000000 46149296.00000000 11096.49707031  1102317.12500000 878930.62500000 
0.12100    28508584.00000000 18257500.00000000 45620180.00000000 10849.60058594  1082308.62500000 863044.93750000 
0.12200    28170424.00000000 18049992.00000000 45090196.00000000 10605.75488281  1062384.25000000 847227.06250000 
0.12300    27831994.00000000 17841750.00000000 44558748.00000000 10365.00683594  1042593.12500000 831484.56250000 
0.12400    27493168.00000000 17632998.00000000 44026332.00000000 10127.58691406  1022886.56250000 815826.37500000 
0.12500    27153476.00000000 17423674.00000000 43493012.00000000 9893.34472656   1003309.18750000 800253.18750000 
0.12600    26813530.00000000 17213776.00000000 42958292.00000000 9662.65917969   983864.62500000 784775.62500000 
0.12700    26473146.00000000 17003336.00000000 42422988.00000000 9435.41699219   964546.25000000 769392.18750000 
0.12800    26132426.00000000 16792304.00000000 41886376.00000000 9211.62207031   945371.50000000 754115.56250000 
0.12900    25791326.00000000 16580843.00000000 41349224.00000000 8991.49804688   926347.31250000 738947.62500000 
0.13000    25450170.00000000 16368987.00000000 40811116.00000000 8775.04199219   907476.87500000 723902.12500000 
0.13100    25108934.00000000 16156785.00000000 40272592.00000000 8562.17773438   888769.43750000 708974.18750000 
0.13200    24767928.00000000 15944308.00000000 39733804.00000000 8353.25585938   870241.93750000 694187.93750000 
0.13300    24426898.00000000 15731708.00000000 39195344.00000000 8148.08544922   851889.68750000 679539.68750000 
0.13400    24086318.00000000 15519014.00000000 38656484.00000000 7946.84814453   833731.31250000 665030.18750000 
0.13500    23746090.00000000 15306418.00000000 38118596.00000000 7749.41162109   815766.25000000 650676.12500000 
0.13600    23406696.00000000 15093812.00000000 37580884.00000000 7555.85595703   798016.62500000 636481.18750000 
0.13700    23068102.00000000 14881506.00000000 37044856.00000000 7366.23632812   780466.81250000 622450.68750000 
0.13800    22730454.00000000 14669460.00000000 36509472.00000000 7180.56689453   763143.37500000 608588.81250000 
0.13900    22393746.00000000 14457950.00000000 35975552.00000000 6998.87109375   746039.37500000 594910.12500000 
0.14000    22058568.00000000 14246974.00000000 35443544.00000000 6821.05371094   729175.50000000 581405.31250000 
0.14100    21724966.00000000 14036678.00000000 34913392.00000000 6647.09960938   712545.81250000 568089.18750000 
0.14200    21392744.00000000 13827118.00000000 34385836.00000000 6477.00830078   696153.31250000 554962.87500000 
0.14300    21062348.00000000 13618499.00000000 33860668.00000000 6310.81640625   680010.06250000 542030.81250000 
0.14400    20734050.00000000 13410711.00000000 33338014.00000000 6148.37402344   664119.06250000 529292.68750000 
0.14500    20407606.00000000 13204120.00000000 32818744.00000000 5989.73681641   648482.18750000 516762.00000000 
0.14600    20083568.00000000 12998777.00000000 32302428.00000000 5834.77197266   633097.68750000 504433.65625000 
0.14700    19761990.00000000 12794729.00000000 31790120.00000000 5683.51806641   617977.93750000 492309.87500000 
0.14800    19442612.00000000 12591962.00000000 31280950.00000000 5535.83642578   603117.68750000 480395.12500000 
0.14900    19126062.00000000 12390684.00000000 30776212.00000000 5391.61767578   588513.43750000 468688.21875000 
0.15000    18812516.00000000 12191148.00000000 30275500.00000000 5250.89306641   574178.87500000 457192.75000000 
0.15100    18501502.00000000 11993042.00000000 29779202.00000000 5113.57324219   560106.50000000 445907.03125000 
0.15200    18193612.00000000 11796868.00000000 29287670.00000000 4979.58447266   546299.93750000 434837.81250000 
0.15300    17888888.00000000 11602391.00000000 28800812.00000000 4848.80957031   532750.12500000 423973.84375000 
0.15400    17587382.00000000 11409844.00000000 28318738.00000000 4721.12402344   519468.62500000 413317.96875000 
0.15500    17289076.00000000 11219210.00000000 27841868.00000000 4596.59619141   506443.50000000 402874.09375000 
0.15600    16994046.00000000 11030612.00000000 27370034.00000000 4475.00683594   493677.00000000 392639.87500000 
0.15700    16702747.00000000 10844033.00000000 26903854.00000000 4356.41259766   481173.65625000 382610.81250000 
0.15800    16414719.00000000 10659610.00000000 26442828.00000000 4240.57666016   468917.93750000 372790.34375000 
0.15900    16130294.00000000 10477296.00000000 25987474.00000000 4127.56347656   456916.90625000 363166.37500000 
0.16000    15849439.00000000 10297358.00000000 25537718.00000000 4017.19238281   445160.46875000 353747.34375000 
0.16100    15572410.00000000 10119422.00000000 25093754.00000000 3909.49584961   433658.28125000 344531.34375000 
0.16200    15298851.00000000 9943925.00000000 24655660.00000000 3804.30883789   422391.90625000 335508.00000000 
0.16300    15029052.00000000 9770695.00000000 24223344.00000000 3701.56445312   411365.71875000 326675.46875000 
0.16400    14763038.00000000 9599902.00000000 23796872.00000000 3601.26611328   400576.68750000 318032.78125000 
0.16500    14500843.00000000 9431195.00000000 23376386.00000000 3503.29492188   390018.15625000 309582.25000000 
0.16600    14242333.00000000 9265037.00000000 22961768.00000000 3407.61083984   379686.15625000 301312.18750000 
0.16700    13987631.00000000 9101223.00000000 22553400.00000000 3314.14794922   369576.00000000 293223.00000000 
0.16800    13736722.00000000 8939755.00000000 22150882.00000000 3222.83349609   359687.28125000 285309.25000000 
0.16900    13489644.00000000 8780629.00000000 21754438.00000000 3133.69189453   350017.90625000 277573.93750000 
0.17000    13246305.00000000 8623953.00000000 21364052.00000000 3046.60449219   340556.46875000 270008.81250000 
