# SAXS profile: number of points = 501, q_min = 0, q_max = 0.5, delta_q = 0.001
#    q    intensity 
0.00000    162234080.00000000 101201520.00000000 256270496.00000000 109739.75000000 8438999.00000000 6665101.50000000 
0.00100    162193968.00000000 101174840.00000000 256202864.00000000 109704.14062500 8436493.00000000 6663124.00000000 
0.00200    162068832.00000000 101094208.00000000 255999120.00000000 109598.00000000 8428953.00000000 6657214.00000000 
0.00300    161853952.00000000 100960760.00000000 255659024.00000000 109420.05468750 8416469.00000000 6647330.50000000 
0.00400    161552496.00000000 100774448.00000000 255185168.00000000 109172.07812500 8398983.00000000 6633646.50000000 
0.00500    161163424.00000000 100534824.00000000 254575232.00000000 108854.36718750 8376608.00000000 6616006.00000000 
0.00600    160691488.00000000 100241760.00000000 253834256.00000000 108467.59375000 8349372.00000000 6594546.50000000 
0.00700    160132864.00000000 99898744.00000000 252961312.00000000 108012.53906250 8317292.00000000 6569259.00000000 
0.00800    159493936.00000000 99504712.00000000 251958448.00000000 107490.35156250 8280450.00000000 6540305.50000000 
0.00900    158775408.00000000 99060248.00000000 250826288.00000000 106902.51562500 8238954.00000000 6507646.00000000 
0.01000    157979632.00000000 98566880.00000000 249570112.00000000 106249.57812500 8192913.00000000 6471339.50000000 
0.01100    157104448.00000000 98024120.00000000 248190720.00000000 105534.20312500 8142369.00000000 6431566.50000000 
0.01200    156149888.00000000 97434472.00000000 246692480.00000000 104758.00781250 8087484.00000000 6388324.00000000 
0.01300    155121392.00000000 96796944.00000000 245075104.00000000 103921.60937500 8028367.00000000 6341777.50000000 
0.01400    154021728.00000000 96116160.00000000 243343808.00000000 103028.29687500 7965116.00000000 6291969.00000000 
0.01500    152851296.00000000 95392096.00000000 241501584.00000000 102079.53906250 7897869.50000000 6239016.00000000 
0.01600    151612976.00000000 94625808.00000000 239553120.00000000 101076.45312500 7826770.50000000 6183022.00000000 
0.01700    150307856.00000000 93817560.00000000 237499584.00000000 100023.28906250 7751991.50000000 6124128.50000000 
0.01800    148941088.00000000 92969992.00000000 235347216.00000000 98920.96875000  7673685.00000000 6062393.50000000 
0.01900    147513104.00000000 92086184.00000000 233100032.00000000 97771.57031250  7591967.50000000 5998081.50000000 
0.02000    146025984.00000000 91165000.00000000 230759136.00000000 96580.10156250  7507037.00000000 5931172.50000000 
0.02100    144485136.00000000 90210616.00000000 228332896.00000000 95346.14843750  7419054.00000000 5861873.50000000 
0.02200    142890928.00000000 89222504.00000000 225821920.00000000 94074.15625000  7328254.00000000 5790313.00000000 
0.02300    141246688.00000000 88203864.00000000 223234800.00000000 92766.60156250  7234760.50000000 5716668.00000000 
0.02400    139556352.00000000 87156720.00000000 220572832.00000000 91424.88281250  7138719.50000000 5641005.00000000 
0.02500    137823360.00000000 86081696.00000000 217843424.00000000 90053.89843750  7040372.50000000 5563499.00000000 
0.02600    136049424.00000000 84981624.00000000 215049200.00000000 88654.49218750  6939895.00000000 5484393.00000000 
0.02700    134236160.00000000 83858144.00000000 212195184.00000000 87230.33593750  6837515.00000000 5403643.50000000 
0.02800    132391144.00000000 82712720.00000000 209288272.00000000 85784.44531250  6733334.00000000 5321536.50000000 
0.02900    130514176.00000000 81549496.00000000 206331504.00000000 84318.85937500  6627651.00000000 5238206.00000000 
0.03000    128609168.00000000 80366872.00000000 203329584.00000000 82837.52343750  6520537.00000000 5153810.00000000 
0.03100    126679680.00000000 79168712.00000000 200289744.00000000 81342.73437500  6412277.50000000 5068465.50000000 
0.03200    124727544.00000000 77957480.00000000 197214320.00000000 79835.51562500  6302980.00000000 4982294.00000000 
0.03300    122757320.00000000 76733872.00000000 194109408.00000000 78320.96875000  6192912.50000000 4895462.50000000 
0.03400    120772160.00000000 75501488.00000000 190980720.00000000 76800.84375000  6082172.50000000 4808214.50000000 
0.03500    118773808.00000000 74261640.00000000 187832336.00000000 75277.18750000  5971002.50000000 4720569.00000000 
0.03600    116765808.00000000 73013992.00000000 184665152.00000000 73752.30468750  5859578.00000000 4632654.00000000 
0.03700    114751808.00000000 71762632.00000000 181489872.00000000 72230.61718750  5748003.50000000 4544677.50000000 
0.03800    112733792.00000000 70507280.00000000 178308208.00000000 70712.36718750  5636544.00000000 4456678.50000000 
0.03900    110715360.00000000 69252264.00000000 175125152.00000000 69199.57031250  5525226.00000000 4368926.50000000 
0.04000    108698528.00000000 67998920.00000000 171944848.00000000 67696.46093750  5414324.50000000 4281456.00000000 
0.04100    106686336.00000000 66747144.00000000 168770640.00000000 66203.41406250  5303997.00000000 4194367.50000000 
0.04200    104681872.00000000 65500308.00000000 165609824.00000000 64722.96484375  5194306.00000000 4107787.50000000 
0.04300    102687616.00000000 64258952.00000000 162462128.00000000 63256.67968750  5085442.50000000 4021891.25000000 
0.04400    100704776.00000000 63024984.00000000 159333184.00000000 61806.69921875  4977516.50000000 3936723.50000000 
0.04500    98737168.00000000 61799804.00000000 156227440.00000000 60375.08593750  4870669.50000000 3852388.75000000 
0.04600    96785496.00000000 60584884.00000000 153148112.00000000 58962.61328125  4765009.50000000 3768969.75000000 
0.04700    94853688.00000000 59381328.00000000 150097984.00000000 57570.32421875  4660668.00000000 3686600.50000000 
0.04800    92941976.00000000 58190436.00000000 147081248.00000000 56200.64843750  4557743.50000000 3605316.50000000 
0.04900    91053736.00000000 57013920.00000000 144099968.00000000 54854.40625000  4456306.50000000 3525226.50000000 
0.05000    89189144.00000000 55852204.00000000 141156128.00000000 53532.47265625  4356478.00000000 3446397.50000000 
0.05100    87351472.00000000 54706536.00000000 138254288.00000000 52235.43359375  4258299.00000000 3368884.75000000 
0.05200    85541592.00000000 53577868.00000000 135395984.00000000 50965.21484375  4161920.50000000 3292731.25000000 
0.05300    83760936.00000000 52467196.00000000 132584416.00000000 49721.71093750  4067286.25000000 3218018.50000000 
0.05400    82011440.00000000 51375784.00000000 129819944.00000000 48505.79296875  3974570.50000000 3144771.50000000 
0.05500    80293040.00000000 50303684.00000000 127105104.00000000 47317.67187500  3883774.00000000 3073038.25000000 
0.05600    78607760.00000000 49251908.00000000 124442640.00000000 46158.06250000  3794958.00000000 3002857.00000000 
0.05700    76955744.00000000 48221464.00000000 121833440.00000000 45027.12890625  3708125.75000000 2934278.75000000 
0.05800    75338968.00000000 47211940.00000000 119278120.00000000 43925.06250000  3623345.75000000 2867285.00000000 
0.05900    73757440.00000000 46225124.00000000 116778816.00000000 42852.12890625  3540606.50000000 2801928.25000000 
0.06000    72212296.00000000 45260020.00000000 114336488.00000000 41807.64062500  3459942.25000000 2738185.50000000 
0.06100    70703384.00000000 44317688.00000000 111951248.00000000 40792.75390625  3381379.00000000 2676098.00000000 
0.06200    69230768.00000000 43398572.00000000 109625008.00000000 39806.37890625  3304863.25000000 2615661.00000000 
0.06300    67795336.00000000 42502404.00000000 107357288.00000000 38848.32031250  3230474.50000000 2556862.50000000 
0.06400    66397512.00000000 41629336.00000000 105147776.00000000 37918.29296875  3158116.00000000 2499692.75000000 
0.06500    65037740.00000000 40779456.00000000 102997432.00000000 37015.70312500  3087834.25000000 2444168.50000000 
0.06600    63714544.00000000 39953616.00000000 100906144.00000000 36140.52343750  3019577.75000000 2390236.25000000 
0.06700    62428216.00000000 39150416.00000000 98873848.00000000 35292.11718750  2953343.25000000 2337898.50000000 
0.06800    61179804.00000000 38370592.00000000 96901008.00000000 34469.34765625  2889061.75000000 2287104.75000000 
0.06900    59967344.00000000 37613752.00000000 94984656.00000000 33672.58984375  2826740.75000000 2237881.50000000 
0.07000    58791520.00000000 36880068.00000000 93126848.00000000 32900.03515625  2766334.50000000 2190155.25000000 
0.07100    57652076.00000000 36168608.00000000 91325800.00000000 32151.90039062  2707794.50000000 2143907.25000000 
0.07200    56547128.00000000 35479456.00000000 89580904.00000000 31426.56054688  2651071.25000000 2099116.50000000 
0.07300    55477208.00000000 34812440.00000000 87891120.00000000 30724.26953125  2596113.75000000 2055736.62500000 
0.07400    54441724.00000000 34166448.00000000 86256216.00000000 30042.93554688  2542883.25000000 2013694.50000000 
0.07500    53439612.00000000 33542012.00000000 84673440.00000000 29382.91210938  2491336.75000000 1972988.87500000 
0.07600    52469644.00000000 32938116.00000000 83141816.00000000 28742.87890625  2441389.00000000 1933563.87500000 
0.07700    51531744.00000000 32353954.00000000 81662056.00000000 28121.92578125  2392993.50000000 1895372.25000000 
0.07800    50625092.00000000 31789444.00000000 80231472.00000000 27519.15039062  2346121.75000000 1858377.87500000 
0.07900    49748268.00000000 31244104.00000000 78847688.00000000 26933.67578125  2300682.00000000 1822523.00000000 
0.08000    48900528.00000000 30717158.00000000 77510848.00000000 26364.91601562  2256608.50000000 1787767.75000000 
0.08100    48081548.00000000 30208138.00000000 76219328.00000000 25812.28906250  2213865.00000000 1754048.25000000 
0.08200    47288928.00000000 29716180.00000000 74971536.00000000 25274.26171875  2172385.25000000 1721348.12500000 
0.08300    46522992.00000000 29241022.00000000 73763952.00000000 24750.61132812  2132078.50000000 1689598.87500000 
0.08400    45781748.00000000 28781938.00000000 72597344.00000000 24240.34570312  2092968.12500000 1658740.37500000 
0.08500    45064668.00000000 28338084.00000000 71469816.00000000 23742.76953125  2054910.87500000 1628762.00000000 
0.08600    44371676.00000000 27909312.00000000 70378208.00000000 23257.18750000  2017893.37500000 1599599.50000000 
0.08700    43700056.00000000 27494536.00000000 69322720.00000000 22782.78906250  1981841.75000000 1571204.00000000 
0.08800    43049736.00000000 27093098.00000000 68301312.00000000 22318.79101562  1946679.50000000 1543516.00000000 
0.08900    42419300.00000000 26704424.00000000 67310864.00000000 21864.98828125  1912394.62500000 1516538.00000000 
0.09000    41808028.00000000 26328098.00000000 66351172.00000000 21420.45312500  1878925.25000000 1490186.87500000 
0.09100    41214492.00000000 25962922.00000000 65420708.00000000 20984.66601562  1846207.37500000 1464440.25000000 
0.09200    40638656.00000000 25609010.00000000 64517460.00000000 20557.14062500  1814211.87500000 1439260.12500000 
0.09300    40078812.00000000 25265458.00000000 63639796.00000000 20137.48828125  1782867.25000000 1414602.50000000 
0.09400    39533776.00000000 24931430.00000000 62786392.00000000 19724.97656250  1752137.62500000 1390435.50000000 
0.09500    39003276.00000000 24606512.00000000 61955720.00000000 19319.60156250  1722000.75000000 1366724.25000000 
0.09600    38486088.00000000 24290278.00000000 61146460.00000000 18920.63867188  1692401.75000000 1343427.00000000 
0.09700    37981272.00000000 23982010.00000000 60357404.00000000 18527.91210938  1663294.50000000 1320541.12500000 
0.09800    37488284.00000000 23681290.00000000 59586600.00000000 18141.34179688  1634663.87500000 1298019.87500000 
0.09900    37006364.00000000 23387362.00000000 58833656.00000000 17760.25000000  1606463.50000000 1275845.62500000 
0.10000    36534220.00000000 23099844.00000000 58096712.00000000 17384.45507812  1578671.25000000 1253980.75000000 
0.10100    36071592.00000000 22818334.00000000 57374892.00000000 17013.99023438  1551260.37500000 1232404.50000000 
0.10200    35617520.00000000 22542526.00000000 56666208.00000000 16648.63867188  1524182.25000000 1211116.12500000 
0.10300    35171176.00000000 22271640.00000000 55970696.00000000 16288.13964844  1497460.12500000 1190070.12500000 
0.10400    34732760.00000000 22005196.00000000 55286568.00000000 15932.53808594  1471039.00000000 1169277.75000000 
0.10500    34300816.00000000 21743180.00000000 54613404.00000000 15581.67480469  1444909.87500000 1148712.75000000 
0.10600    33875176.00000000 21485060.00000000 53950020.00000000 15235.35351562  1419050.00000000 1128347.75000000 
0.10700    33455304.00000000 21230552.00000000 53296372.00000000 14893.71777344  1393480.12500000 1108189.87500000 
0.10800    33040540.00000000 20979314.00000000 52649892.00000000 14556.85644531  1368141.50000000 1088232.25000000 
0.10900    32630818.00000000 20730934.00000000 52011344.00000000 14224.44921875  1343044.75000000 1068441.50000000 
0.11000    32225234.00000000 20485250.00000000 51379636.00000000 13897.00878906  1318191.00000000 1048837.37500000 
0.11100    31823820.00000000 20241800.00000000 50754516.00000000 13573.85644531  1293561.87500000 1029398.56250000 
0.11200    31426024.00000000 20000400.00000000 50134744.00000000 13255.80761719  1269160.62500000 1010140.18750000 
0.11300    31031720.00000000 19761390.00000000 49519708.00000000 12942.53125000  1244976.37500000 991047.00000000 
0.11400    30640472.00000000 19523816.00000000 48909936.00000000 12634.06738281  1221004.87500000 972107.18750000 
0.11500    30251862.00000000 19288044.00000000 48303884.00000000 12330.65625000  1197260.87500000 953340.43750000 
0.11600    29866008.00000000 19053696.00000000 47702120.00000000 12032.26660156  1173761.37500000 934737.75000000 
0.11700    29482742.00000000 18820588.00000000 47104264.00000000 11738.98632812  1150464.25000000 916303.43750000 
0.11800    29101712.00000000 18588908.00000000 46509232.00000000 11451.00097656  1127388.62500000 898034.00000000 
0.11900    28722668.00000000 18358098.00000000 45917396.00000000 11168.32519531  1104554.87500000 879937.06250000 
0.12000    28345960.00000000 18128316.00000000 45328316.00000000 10890.99414062  1081943.50000000 862015.18750000 
0.12100    27971258.00000000 17899540.00000000 44742496.00000000 10619.26171875  1059576.50000000 844275.62500000 
0.12200    27598378.00000000 17671806.00000000 44158988.00000000 10352.88867188  1037456.18750000 826717.12500000 
0.12300    27227242.00000000 17444778.00000000 43578120.00000000 10092.28222656  1015598.56250000 809350.87500000 
0.12400    26858066.00000000 17218602.00000000 42999916.00000000 9837.25488281   993981.68750000 792175.81250000 
0.12500    26490976.00000000 16993168.00000000 42424184.00000000 9588.00585938   972633.50000000 775198.00000000 
0.12600    26125628.00000000 16768947.00000000 41851248.00000000 9344.48046875   951556.12500000 758432.37500000 
0.12700    25762072.00000000 16545187.00000000 41280728.00000000 9106.82031250   930754.93750000 741866.56250000 
0.12800    25400326.00000000 16322371.00000000 40712328.00000000 8874.93554688   910237.18750000 725526.00000000 
0.12900    25040760.00000000 16100549.00000000 40147420.00000000 8648.84667969   890008.37500000 709399.81250000 
0.13000    24683276.00000000 15879586.00000000 39584768.00000000 8428.53515625   870075.68750000 693497.00000000 
0.13100    24327692.00000000 15659542.00000000 39025200.00000000 8213.96484375   850439.75000000 677832.68750000 
0.13200    23974392.00000000 15440542.00000000 38468760.00000000 8005.27050781   831107.12500000 662392.31250000 
0.13300    23623434.00000000 15222744.00000000 37915336.00000000 7802.16650391   812083.68750000 647193.25000000 
0.13400    23274488.00000000 15005817.00000000 37365040.00000000 7604.81054688   793377.12500000 632236.87500000 
0.13500    22928090.00000000 14790192.00000000 36818240.00000000 7412.97363281   774988.25000000 617526.56250000 
0.13600    22584480.00000000 14575725.00000000 36274732.00000000 7226.65722656   756916.50000000 603066.93750000 
0.13700    22243182.00000000 14362601.00000000 35735128.00000000 7045.83398438   739172.93750000 588857.93750000 
0.13800    21904422.00000000 14150755.00000000 35199272.00000000 6870.20068359   721743.25000000 574893.56250000 
0.13900    21568608.00000000 13940394.00000000 34667544.00000000 6699.89257812   704644.62500000 561196.00000000 
0.14000    21235546.00000000 13731424.00000000 34139592.00000000 6534.55078125   687875.12500000 547753.68750000 
0.14100    20905530.00000000 13524028.00000000 33616208.00000000 6374.23925781   671432.00000000 534559.93750000 
0.14200    20578406.00000000 13318177.00000000 33097228.00000000 6218.75048828   655313.06250000 521628.75000000 
0.14300    20254526.00000000 13113991.00000000 32582418.00000000 6067.92578125   639522.62500000 508955.75000000 
0.14400    19933740.00000000 12911533.00000000 32072408.00000000 5921.61865234   624053.93750000 496531.00000000 
0.14500    19616048.00000000 12710800.00000000 31567484.00000000 5779.67480469   608904.25000000 484364.78125000 
0.14600    19301582.00000000 12511939.00000000 31067192.00000000 5641.95947266   594078.31250000 472454.31250000 
0.14700    18990632.00000000 12314917.00000000 30572102.00000000 5508.29687500   579568.43750000 460797.25000000 
0.14800    18683150.00000000 12119733.00000000 30081966.00000000 5378.48583984   565370.81250000 449382.50000000 
0.14900    18379136.00000000 11926584.00000000 29597068.00000000 5252.42871094   551478.12500000 438212.56250000 
0.15000    18078548.00000000 11735360.00000000 29117666.00000000 5129.90966797   537883.75000000 427289.53125000 
0.15100    17781470.00000000 11546181.00000000 28643328.00000000 5010.76660156   524594.81250000 416603.59375000 
0.15200    17488002.00000000 11359123.00000000 28174902.00000000 4894.89990234   511598.56250000 406156.31250000 
0.15300    17198104.00000000 11174236.00000000 27711606.00000000 4782.05810547   498892.34375000 395936.59375000 
0.15400    16911928.00000000 10991253.00000000 27253808.00000000 4672.04638672   486452.90625000 385941.25000000 
0.15500    16629448.00000000 10810600.00000000 26801932.00000000 4564.89257812   474303.15625000 376171.31250000 
0.15600    16350487.00000000 10632008.00000000 26355466.00000000 4460.27392578   462421.03125000 366622.43750000 
0.15700    16075193.00000000 10455733.00000000 25914756.00000000 4358.15185547   450798.96875000 357283.59375000 
0.15800    15803423.00000000 10281490.00000000 25479486.00000000 4258.28710938   439431.53125000 348148.90625000 
0.15900    15535448.00000000 10109461.00000000 25050526.00000000 4160.64404297   428316.28125000 339222.87500000 
0.16000    15271020.00000000 9939651.00000000 24626576.00000000 4064.96630859   417442.03125000 330491.31250000 
0.16100    15010396.00000000 9772160.00000000 24208608.00000000 3971.29638672   406809.18750000 321960.00000000 
0.16200    14753359.00000000 9606859.00000000 23796292.00000000 3879.43579102   396404.65625000 313608.71875000 
0.16300    14499780.00000000 9443719.00000000 23389626.00000000 3789.28002930   386222.06250000 305439.75000000 
0.16400    14249906.00000000 9282833.00000000 22988664.00000000 3700.76049805   376258.78125000 297451.87500000 
0.16500    14003570.00000000 9124131.00000000 22593182.00000000 3613.77929688   366507.25000000 289633.56250000 
0.16600    13760804.00000000 8967581.00000000 22203386.00000000 3528.22143555   356960.59375000 281987.71875000 
0.16700    13521425.00000000 8813306.00000000 21819030.00000000 3444.05957031   347606.00000000 274502.25000000 
0.16800    13285464.00000000 8661038.00000000 21440122.00000000 3361.20385742   338452.40625000 267173.53125000 
0.16900    13053105.00000000 8511067.00000000 21066914.00000000 3279.63769531   329483.40625000 260003.57812500 
0.17000    12824004.00000000 8363237.50000000 20698868.00000000 3199.29760742   320702.31250000 252980.81250000 
