# SAXS profile: number of points = 501, q_min = 0, q_max = 0.5, delta_q = 0.001
#    q    intensity 
0.00000    162231952.00000000 101202000.00000000 256270592.00000000 108421.92187500 8388208.00000000 6624944.00000000 
0.00100    162191872.00000000 101174728.00000000 256201216.00000000 108384.65625000 8385576.50000000 6622896.50000000 
0.00200    162067056.00000000 101094384.00000000 255998784.00000000 108270.50000000 8377679.50000000 6616728.00000000 
0.00300    161854096.00000000 100960608.00000000 255655840.00000000 108080.74218750 8364625.50000000 6606450.00000000 
0.00400    161547888.00000000 100772824.00000000 255177104.00000000 107816.92187500 8346399.50000000 6592159.50000000 
0.00500    161154240.00000000 100530984.00000000 254561776.00000000 107476.77343750 8323038.50000000 6573785.00000000 
0.00600    160678896.00000000 100237328.00000000 253815600.00000000 107064.10937500 8294591.50000000 6551439.00000000 
0.00700    160111568.00000000 99892728.00000000 252937072.00000000 106579.47656250 8261134.00000000 6525143.00000000 
0.00800    159465840.00000000 99497544.00000000 251926352.00000000 106022.36718750 8222703.00000000 6494967.00000000 
0.00900    158742128.00000000 99051360.00000000 250787328.00000000 105396.54687500 8179489.50000000 6460934.00000000 
0.01000    157939392.00000000 98554968.00000000 249523808.00000000 104702.14843750 8131447.00000000 6423231.50000000 
0.01100    157056000.00000000 98009272.00000000 248132624.00000000 103940.94531250 8078737.50000000 6381798.00000000 
0.01200    156091120.00000000 97416728.00000000 246623312.00000000 103115.10937500 8021551.00000000 6336901.50000000 
0.01300    155051328.00000000 96777544.00000000 244994352.00000000 102226.11718750 7959939.50000000 6288439.50000000 
0.01400    153941664.00000000 96093152.00000000 243250720.00000000 101277.13281250 7894063.00000000 6236696.50000000 
0.01500    152760016.00000000 95365048.00000000 241396736.00000000 100270.28125000 7824098.50000000 6181676.50000000 
0.01600    151510304.00000000 94593712.00000000 239432160.00000000 99207.67187500  7750122.00000000 6123512.50000000 
0.01700    150192144.00000000 93782720.00000000 237364320.00000000 98091.85937500  7672365.00000000 6062388.50000000 
0.01800    148810672.00000000 92930824.00000000 235195504.00000000 96925.15625000  7590963.50000000 5998384.00000000 
0.01900    147369360.00000000 92041848.00000000 232930752.00000000 95710.69531250  7506077.00000000 5931628.00000000 
0.02000    145867984.00000000 91117248.00000000 230573968.00000000 94451.36718750  7417924.50000000 5862284.00000000 
0.02100    144311024.00000000 90156680.00000000 228127232.00000000 93150.41406250  7326611.50000000 5790554.00000000 
0.02200    142700848.00000000 89163480.00000000 225598064.00000000 91810.32812500  7232432.00000000 5716482.00000000 
0.02300    141040640.00000000 88139160.00000000 222990624.00000000 90433.72656250  7135502.00000000 5640240.00000000 
0.02400    139333904.00000000 87085848.00000000 220307440.00000000 89024.78125000  7036090.00000000 5562041.00000000 
0.02500    137582928.00000000 86004696.00000000 217555984.00000000 87584.84375000  6934337.50000000 5481948.50000000 
0.02600    135790176.00000000 84897616.00000000 214738896.00000000 86118.67187500  6830440.00000000 5400216.50000000 
0.02700    133960152.00000000 83767376.00000000 211862752.00000000 84628.69531250  6724616.00000000 5316960.00000000 
0.02800    132095424.00000000 82615424.00000000 208929600.00000000 83117.08593750  6617050.50000000 5232277.50000000 
0.02900    130198584.00000000 81443176.00000000 205949216.00000000 81588.75000000  6507926.50000000 5146472.50000000 
0.03000    128274296.00000000 80253048.00000000 202922640.00000000 80044.96093750  6397552.00000000 5059551.50000000 
0.03100    126323520.00000000 79048032.00000000 199855264.00000000 78489.92187500  6286002.50000000 4971755.00000000 
0.03200    124351536.00000000 77828152.00000000 196753600.00000000 76926.28125000  6173548.00000000 4883196.50000000 
0.03300    122359968.00000000 76597168.00000000 193621744.00000000 75356.82812500  6060371.50000000 4794092.00000000 
0.03400    120352384.00000000 75355248.00000000 190463200.00000000 73783.45312500  5946588.50000000 4704508.50000000 
0.03500    118332632.00000000 74104728.00000000 187283648.00000000 72210.58593750  5832495.00000000 4614597.50000000 
0.03600    116302336.00000000 72847792.00000000 184088896.00000000 70639.65625000  5718218.50000000 4524611.50000000 
0.03700    114265552.00000000 71586248.00000000 180883088.00000000 69073.85937500  5603892.50000000 4434515.50000000 
0.03800    112224808.00000000 70320672.00000000 177669712.00000000 67515.27343750  5489776.50000000 4344594.50000000 
0.03900    110182520.00000000 69055040.00000000 174454560.00000000 65966.25781250  5376019.00000000 4254936.00000000 
0.04000    108143224.00000000 67790424.00000000 171241648.00000000 64429.15234375  5262716.50000000 4165637.00000000 
0.04100    106107088.00000000 66526888.00000000 168034192.00000000 62906.09375000  5150103.50000000 4076845.75000000 
0.04200    104078424.00000000 65268172.00000000 164837936.00000000 61399.14843750  5038328.50000000 3988683.25000000 
0.04300    102059296.00000000 64014848.00000000 161654720.00000000 59910.27343750  4927473.50000000 3901274.00000000 
0.04400    100051832.00000000 62768312.00000000 158490736.00000000 58441.23046875  4817716.00000000 3814688.25000000 
0.04500    98058368.00000000 61530340.00000000 155350432.00000000 56993.46093750  4709154.00000000 3729040.00000000 
0.04600    96082768.00000000 60302176.00000000 152234448.00000000 55568.63281250  4601920.50000000 3644464.00000000 
0.04700    94125752.00000000 59085548.00000000 149147344.00000000 54168.28906250  4496115.50000000 3560983.25000000 
0.04800    92188280.00000000 57880804.00000000 146092912.00000000 52793.69140625  4391916.00000000 3478712.50000000 
0.04900    90274632.00000000 56690080.00000000 143072880.00000000 51445.65625000  4289328.00000000 3397729.75000000 
0.05000    88384872.00000000 55513764.00000000 140092304.00000000 50125.53125000  4188464.50000000 3318102.75000000 
0.05100    86521496.00000000 54353684.00000000 137151920.00000000 48833.63281250  4089428.75000000 3239876.75000000 
0.05200    84685120.00000000 53210432.00000000 134253648.00000000 47571.12109375  3992235.00000000 3163128.00000000 
0.05300    82879552.00000000 52085144.00000000 131402384.00000000 46338.69921875  3897018.50000000 3087894.25000000 
0.05400    81103472.00000000 50978052.00000000 128598440.00000000 45136.73046875  3803792.75000000 3014269.25000000 
0.05500    79359760.00000000 49891076.00000000 125844576.00000000 43965.58593750  3712632.50000000 2942213.50000000 
0.05600    77648256.00000000 48824124.00000000 123141824.00000000 42825.55468750  3623537.25000000 2871810.50000000 
0.05700    75971696.00000000 47777720.00000000 120492720.00000000 41716.69140625  3536579.25000000 2803073.75000000 
0.05800    74329208.00000000 46752592.00000000 117897896.00000000 40639.45312500  3451785.00000000 2736029.00000000 
0.05900    72722760.00000000 45750008.00000000 115359072.00000000 39593.09375000  3369089.25000000 2670676.00000000 
0.06000    71153064.00000000 44769604.00000000 112877000.00000000 38578.00390625  3288656.00000000 2607024.50000000 
0.06100    69619248.00000000 43811380.00000000 110453608.00000000 37593.96093750  3210402.00000000 2545102.50000000 
0.06200    68122968.00000000 42876524.00000000 108087752.00000000 36640.13671875  3134264.25000000 2484927.75000000 
0.06300    66664432.00000000 41965292.00000000 105781384.00000000 35716.30078125  3060338.50000000 2426458.00000000 
0.06400    65243572.00000000 41076520.00000000 103534640.00000000 34822.82421875  2988580.00000000 2369650.25000000 
0.06500    63860680.00000000 40211908.00000000 101346984.00000000 33957.85156250  2918933.75000000 2314518.25000000 
0.06600    62515380.00000000 39370724.00000000 99219848.00000000 33121.87109375  2851444.50000000 2261111.50000000 
0.06700    61208744.00000000 38552828.00000000 97152032.00000000 32313.47265625  2786022.00000000 2209342.25000000 
0.06800    59939568.00000000 37759180.00000000 95144456.00000000 31532.49023438  2722662.00000000 2159199.25000000 
0.06900    58707844.00000000 36988400.00000000 93195760.00000000 30777.61718750  2661304.25000000 2110634.25000000 
0.07000    57513688.00000000 36241092.00000000 91306608.00000000 30048.58203125  2601945.25000000 2063632.12500000 
0.07100    56355872.00000000 35516576.00000000 89474680.00000000 29344.31445312  2544526.25000000 2018177.37500000 
0.07200    55234428.00000000 34814716.00000000 87700920.00000000 28664.08789062  2488971.25000000 1974194.25000000 
0.07300    54149568.00000000 34135712.00000000 85983680.00000000 28006.92773438  2435304.00000000 1931674.50000000 
0.07400    53099444.00000000 33479084.00000000 84322200.00000000 27372.04492188  2383368.50000000 1890555.12500000 
0.07500    52083948.00000000 32843708.00000000 82715792.00000000 26758.60156250  2333170.50000000 1850825.12500000 
0.07600    51102692.00000000 32229770.00000000 81163800.00000000 26165.35546875  2284649.25000000 1812421.00000000 
0.07700    50154136.00000000 31636440.00000000 79663264.00000000 25591.91210938  2237746.75000000 1775298.50000000 
0.07800    49238740.00000000 31063758.00000000 78214120.00000000 25037.12890625  2192423.50000000 1739396.37500000 
0.07900    48354064.00000000 30510888.00000000 76815840.00000000 24500.04101562  2148575.50000000 1704701.50000000 
0.08000    47500364.00000000 29977224.00000000 75465936.00000000 23980.13867188  2106197.25000000 1671130.37500000 
0.08100    46676476.00000000 29462766.00000000 74162880.00000000 23476.03906250  2065158.00000000 1638664.00000000 
0.08200    45881152.00000000 28966320.00000000 72906200.00000000 22987.34570312  2025473.50000000 1607251.00000000 
0.08300    45113616.00000000 28487362.00000000 71693928.00000000 22513.38476562  1987039.37500000 1576826.25000000 
0.08400    44373340.00000000 28025534.00000000 70524312.00000000 22052.88671875  1949797.00000000 1547367.00000000 
0.08500    43658724.00000000 27580330.00000000 69396800.00000000 21605.26562500  1913699.87500000 1518809.00000000 
0.08600    42969404.00000000 27150822.00000000 68307488.00000000 21169.86718750  1878709.25000000 1491120.75000000 
0.08700    42303764.00000000 26736588.00000000 67257384.00000000 20746.03320312  1844719.62500000 1464245.25000000 
0.08800    41661012.00000000 26336678.00000000 66243812.00000000 20332.92578125  1811716.12500000 1438136.12500000 
0.08900    41040396.00000000 25951034.00000000 65264964.00000000 19930.28906250  1779641.00000000 1412780.37500000 
0.09000    40440612.00000000 25578658.00000000 64319872.00000000 19537.02734375  1748425.75000000 1388102.25000000 
0.09100    39860840.00000000 25218902.00000000 63406004.00000000 19153.08593750  1718023.50000000 1364074.62500000 
0.09200    39299836.00000000 24871214.00000000 62522592.00000000 18777.44140625  1688407.00000000 1340664.25000000 
0.09300    38756912.00000000 24535232.00000000 61667816.00000000 18410.02539062  1659523.50000000 1317832.75000000 
0.09400    38230872.00000000 24209852.00000000 60840584.00000000 18050.11523438  1631303.75000000 1295530.00000000 
0.09500    37720916.00000000 23894672.00000000 60038740.00000000 17697.33593750  1603730.75000000 1273746.62500000 
0.09600    37226308.00000000 23589088.00000000 59260868.00000000 17351.29882812  1576755.75000000 1252443.37500000 
0.09700    36745616.00000000 23293086.00000000 58506400.00000000 17011.74804688  1550332.00000000 1231563.50000000 
0.09800    36278456.00000000 23005446.00000000 57772392.00000000 16678.34960938  1524451.62500000 1211115.87500000 
0.09900    35823848.00000000 22725840.00000000 57059376.00000000 16350.75000000  1499048.50000000 1191058.62500000 
0.10000    35380712.00000000 22453542.00000000 56364544.00000000 16028.45312500  1474103.62500000 1171365.50000000 
0.10100    34948960.00000000 22188052.00000000 55687264.00000000 15711.52539062  1449578.75000000 1151996.37500000 
0.10200    34527000.00000000 21929250.00000000 55025928.00000000 15399.83886719  1425476.25000000 1132955.12500000 
0.10300    34114360.00000000 21676286.00000000 54380080.00000000 15092.86816406  1401733.12500000 1114206.75000000 
0.10400    33710880.00000000 21429018.00000000 53747536.00000000 14790.62207031  1378349.12500000 1095741.00000000 
0.10500    33314778.00000000 21186658.00000000 53127988.00000000 14493.07714844  1355307.37500000 1077531.50000000 
0.10600    32926258.00000000 20948882.00000000 52520148.00000000 14199.72851562  1332567.50000000 1059572.50000000 
0.10700    32544762.00000000 20715610.00000000 51922724.00000000 13910.81152344  1310116.00000000 1041827.31250000 
0.10800    32169058.00000000 20486222.00000000 51335332.00000000 13626.15527344  1287957.62500000 1024310.62500000 
0.10900    31799266.00000000 20260076.00000000 50756900.00000000 13345.64843750  1266047.12500000 1007001.37500000 
0.11000    31434234.00000000 20037300.00000000 50186188.00000000 13069.13378906  1244403.50000000 989882.56250000 
0.11100    31074276.00000000 19817220.00000000 49622920.00000000 12796.76171875  1222980.00000000 972948.43750000 
0.11200    30718092.00000000 19599692.00000000 49065988.00000000 12528.25683594  1201795.00000000 956195.93750000 
0.11300    30365804.00000000 19384470.00000000 48515184.00000000 12263.79687500  1180827.75000000 939611.25000000 
0.11400    30016808.00000000 19171270.00000000 47969528.00000000 12003.18945312  1160081.00000000 923190.56250000 
0.11500    29670940.00000000 18959886.00000000 47428136.00000000 11746.53710938  1139536.37500000 906936.31250000 
0.11600    29327394.00000000 18749832.00000000 46890948.00000000 11493.73046875  1119194.25000000 890826.43750000 
0.11700    28986632.00000000 18541492.00000000 46357524.00000000 11244.74804688  1099047.12500000 874876.56250000 
0.11800    28647694.00000000 18334032.00000000 45826840.00000000 10999.65917969  1079098.75000000 859065.50000000 
0.11900    28310436.00000000 18127694.00000000 45299092.00000000 10758.38671875  1059336.75000000 843409.31250000 
0.12000    27974984.00000000 17921926.00000000 44773380.00000000 10520.86523438  1039763.62500000 827895.00000000 
0.12100    27641088.00000000 17717224.00000000 44250040.00000000 10287.33593750  1020371.93750000 812533.12500000 
0.12200    27308174.00000000 17512864.00000000 43728168.00000000 10057.39941406  1001192.06250000 797303.06250000 
0.12300    26976508.00000000 17308938.00000000 43207972.00000000 9831.21386719   982184.06250000 782227.43750000 
0.12400    26645832.00000000 17105378.00000000 42689064.00000000 9608.83593750   963369.12500000 767295.56250000 
0.12500    26316048.00000000 16902254.00000000 42170760.00000000 9390.23730469   944738.75000000 752501.00000000 
0.12600    25986996.00000000 16699395.00000000 41654020.00000000 9175.40039062   926310.00000000 737867.68750000 
0.12700    25658620.00000000 16496675.00000000 41137540.00000000 8964.13574219   908059.56250000 723370.93750000 
0.12800    25330858.00000000 16294140.00000000 40622116.00000000 8756.59570312   890010.37500000 709023.06250000 
0.12900    25003786.00000000 16091759.00000000 40107856.00000000 8552.65429688   872155.50000000 694831.06250000 
0.13000    24677544.00000000 15889464.00000000 39593684.00000000 8352.38281250   854501.12500000 680789.62500000 
0.13100    24351746.00000000 15687372.00000000 39080288.00000000 8155.57666016   837038.50000000 666900.93750000 
0.13200    24026582.00000000 15485406.00000000 38567508.00000000 7962.39941406   819775.18750000 653168.12500000 
0.13300    23702042.00000000 15283620.00000000 38055496.00000000 7772.72509766   802718.50000000 639598.25000000 
0.13400    23378404.00000000 15082017.00000000 37544324.00000000 7586.41943359   785869.18750000 626183.56250000 
0.13500    23055442.00000000 14880615.00000000 37034396.00000000 7403.60156250   769230.81250000 612934.12500000 
0.13600    22733330.00000000 14679481.00000000 36525244.00000000 7224.11376953   752795.12500000 599841.37500000 
0.13700    22412128.00000000 14478623.00000000 36016976.00000000 7047.97900391   736571.87500000 586913.81250000 
0.13800    22091796.00000000 14278121.00000000 35510276.00000000 6875.18750000   720562.12500000 574156.93750000 
0.13900    21772660.00000000 14078132.00000000 35004300.00000000 6705.65136719   704762.37500000 561571.12500000 
0.14000    21454398.00000000 13878604.00000000 34500796.00000000 6539.24169922   689185.25000000 549150.93750000 
0.14100    21137728.00000000 13679622.00000000 33998348.00000000 6376.04492188   673821.37500000 536910.37500000 
0.14200    20822388.00000000 13481135.00000000 33498088.00000000 6215.94873047   658678.06250000 524835.81250000 
0.14300    20508356.00000000 13283363.00000000 32999398.00000000 6058.90722656   643761.75000000 512932.75000000 
0.14400    20195766.00000000 13086402.00000000 32503134.00000000 5904.94384766   629055.31250000 501207.75000000 
0.14500    19885048.00000000 12890217.00000000 32009504.00000000 5753.93310547   614578.18750000 489660.31250000 
0.14600    19575932.00000000 12695061.00000000 31518048.00000000 5605.97656250   600325.37500000 478290.18750000 
0.14700    19269002.00000000 12500766.00000000 31029752.00000000 5460.91601562   586299.50000000 467100.00000000 
0.14800    18963894.00000000 12307507.00000000 30544320.00000000 5318.78710938   572492.06250000 456084.43750000 
0.14900    18661062.00000000 12115578.00000000 30061622.00000000 5179.46533203   558915.50000000 445247.25000000 
0.15000    18360286.00000000 11924741.00000000 29582730.00000000 5043.05126953   545562.81250000 434593.62500000 
0.15100    18061980.00000000 11735237.00000000 29107030.00000000 4909.42187500   532437.43750000 424119.31250000 
0.15200    17765996.00000000 11547248.00000000 28635372.00000000 4778.64306641   519541.53125000 413827.00000000 
0.15300    17472884.00000000 11360524.00000000 28167454.00000000 4650.66406250   506872.78125000 403714.59375000 
0.15400    17182250.00000000 11175402.00000000 27703360.00000000 4525.41113281   494427.71875000 393782.71875000 
0.15500    16894328.00000000 10991900.00000000 27243538.00000000 4402.91455078   482216.62500000 384033.21875000 
0.15600    16609497.00000000 10810047.00000000 26788640.00000000 4283.18212891   470225.37500000 374460.71875000 
0.15700    16327625.00000000 10629926.00000000 26337936.00000000 4166.20458984   458470.43750000 365072.65625000 
0.15800    16048650.00000000 10451650.00000000 25891920.00000000 4051.90747070   446935.40625000 355864.28125000 
0.15900    15772910.00000000 10275323.00000000 25450814.00000000 3940.35571289   435628.18750000 346834.09375000 
0.16000    15500236.00000000 10100820.00000000 25014536.00000000 3831.50585938   424544.46875000 337981.03125000 
0.16100    15231092.00000000 9928232.00000000 24583748.00000000 3725.36816406   413690.81250000 329314.90625000 
0.16200    14965368.00000000 9757800.00000000 24157956.00000000 3621.93041992   403057.06250000 320821.37500000 
0.16300    14702902.00000000 9589490.00000000 23737636.00000000 3521.19970703   392648.81250000 312506.56250000 
0.16400    14444143.00000000 9423186.00000000 23322816.00000000 3423.13061523   382462.40625000 304372.59375000 
0.16500    14188962.00000000 9259184.00000000 22913860.00000000 3327.78417969   372499.15625000 296408.81250000 
0.16600    13937340.00000000 9097363.00000000 22510346.00000000 3235.13012695   362759.84375000 288627.81250000 
0.16700    13689360.00000000 8937762.00000000 22112402.00000000 3145.09155273   353234.78125000 281014.03125000 
0.16800    13445168.00000000 8780407.00000000 21720372.00000000 3057.73437500   343923.50000000 273574.34375000 
0.16900    13204716.00000000 8625490.00000000 21334398.00000000 2973.08081055   334839.46875000 266305.84375000 
0.17000    12968097.00000000 8472841.00000000 20954242.00000000 2891.03759766   325959.71875000 259209.82812500 
