# SAXS profile: number of points = 501, q_min = 0, q_max = 0.5, delta_q = 0.001
#    q    intensity 
0.00000    162237168.00000000 101201552.00000000 256272112.00000000 108089.57812500 8375272.50000000 6614771.50000000 
0.00100    162206784.00000000 101182080.00000000 256222816.00000000 108063.27343750 8373441.50000000 6613331.50000000 
0.00200    162114864.00000000 101123848.00000000 256074512.00000000 107983.53125000 8367853.50000000 6608980.50000000 
0.00300    161959040.00000000 101026776.00000000 255826736.00000000 107850.75781250 8358651.00000000 6601671.50000000 
0.00400    161739488.00000000 100890536.00000000 255481472.00000000 107665.44531250 8345686.50000000 6591504.00000000 
0.00500    161456880.00000000 100715560.00000000 255037648.00000000 107427.60937500 8329125.00000000 6578385.00000000 
0.00600    161112800.00000000 100503344.00000000 254497824.00000000 107137.77343750 8308879.00000000 6562483.50000000 
0.00700    160707056.00000000 100251792.00000000 253858128.00000000 106795.57812500 8285040.00000000 6543695.50000000 
0.00800    160240304.00000000 99962832.00000000 253125360.00000000 106403.03125000 8257633.50000000 6522092.50000000 
0.00900    159710864.00000000 99636520.00000000 252296576.00000000 105959.69531250 8226661.50000000 6497725.00000000 
0.01000    159124864.00000000 99273928.00000000 251373568.00000000 105466.25781250 8192199.50000000 6470588.50000000 
0.01100    158479760.00000000 98874880.00000000 250357952.00000000 104924.68750000 8154312.50000000 6440721.50000000 
0.01200    157777904.00000000 98439576.00000000 249251824.00000000 104333.78125000 8113024.00000000 6408236.00000000 
0.01300    157017792.00000000 97968336.00000000 248054384.00000000 103696.10937500 8068413.50000000 6373053.50000000 
0.01400    156201248.00000000 97462592.00000000 246768896.00000000 103011.92187500 8020535.00000000 6335352.00000000 
0.01500    155328800.00000000 96922816.00000000 245397520.00000000 102282.84375000 7969422.50000000 6295108.00000000 
0.01600    154402560.00000000 96348448.00000000 243938240.00000000 101508.42968750 7915223.50000000 6252390.50000000 
0.01700    153423712.00000000 95742376.00000000 242397744.00000000 100691.47656250 7857947.00000000 6207255.50000000 
0.01800    152394240.00000000 95103992.00000000 240775632.00000000 99833.32031250  7797676.00000000 6159815.00000000 
0.01900    151312112.00000000 94435088.00000000 239072896.00000000 98934.71875000  7734523.50000000 6110031.00000000 
0.02000    150182304.00000000 93734352.00000000 237294304.00000000 97995.94531250  7668576.00000000 6058141.00000000 
0.02100    149004464.00000000 93004296.00000000 235440256.00000000 97020.10937500  7599870.50000000 6004015.00000000 
0.02200    147780736.00000000 92246128.00000000 233512496.00000000 96007.14062500  7528587.50000000 5947812.50000000 
0.02300    146510896.00000000 91459784.00000000 231514976.00000000 94959.59375000  7454718.50000000 5889646.50000000 
0.02400    145198672.00000000 90646568.00000000 229448848.00000000 93878.84375000  7378477.50000000 5829551.00000000 
0.02500    143845360.00000000 89808184.00000000 227318080.00000000 92765.64843750  7299863.50000000 5767617.50000000 
0.02600    142450928.00000000 88944312.00000000 225123680.00000000 91622.72656250  7219046.00000000 5703956.50000000 
0.02700    141018032.00000000 88056720.00000000 222868208.00000000 90450.77343750  7136072.00000000 5638585.00000000 
0.02800    139549632.00000000 87146696.00000000 220555968.00000000 89251.89843750  7051136.00000000 5571623.50000000 
0.02900    138045856.00000000 86214024.00000000 218187584.00000000 88027.56250000  6964270.00000000 5503195.50000000 
0.03000    136508768.00000000 85260752.00000000 215766976.00000000 86780.29687500  6875598.00000000 5433311.50000000 
0.03100    134939968.00000000 84289056.00000000 213296192.00000000 85510.08593750  6785259.00000000 5362121.50000000 
0.03200    133341368.00000000 83298432.00000000 210780464.00000000 84219.85937500  6693326.50000000 5289671.00000000 
0.03300    131715112.00000000 82290160.00000000 208218368.00000000 82911.26562500  6599894.00000000 5216082.50000000 
0.03400    130063224.00000000 81265232.00000000 205616912.00000000 81585.46093750  6505198.50000000 5141410.50000000 
0.03500    128386712.00000000 80225976.00000000 202976288.00000000 80244.42968750  6409242.50000000 5065777.50000000 
0.03600    126688224.00000000 79172560.00000000 200300272.00000000 78889.86718750  6312190.00000000 4989317.50000000 
0.03700    124968344.00000000 78105968.00000000 197592800.00000000 77523.68750000  6214101.00000000 4911988.50000000 
0.03800    123230856.00000000 77027616.00000000 194855264.00000000 76147.51562500  6115155.00000000 4833978.50000000 
0.03900    121475704.00000000 75939000.00000000 192090080.00000000 74763.03906250  6015418.00000000 4755356.00000000 
0.04000    119706288.00000000 74841144.00000000 189302736.00000000 73371.69531250  5914992.00000000 4676209.50000000 
0.04100    117922760.00000000 73734792.00000000 186492928.00000000 71975.24218750  5814049.00000000 4596640.00000000 
0.04200    116128504.00000000 72621824.00000000 183665952.00000000 70575.42968750  5712717.00000000 4516699.50000000 
0.04300    114324440.00000000 71502760.00000000 180823984.00000000 69174.13281250  5610975.50000000 4436540.50000000 
0.04400    112512640.00000000 70377992.00000000 177968528.00000000 67771.69531250  5509046.50000000 4356166.50000000 
0.04500    110694472.00000000 69249144.00000000 175104352.00000000 66371.10937500  5406973.50000000 4275666.50000000 
0.04600    108872608.00000000 68118272.00000000 172232832.00000000 64972.98046875  5304876.00000000 4195168.50000000 
0.04700    107047376.00000000 66985148.00000000 169357664.00000000 63579.10546875  5202875.00000000 4114740.75000000 
0.04800    105222056.00000000 65851912.00000000 166480240.00000000 62190.52343750  5101060.50000000 4034449.00000000 
0.04900    103396768.00000000 64718448.00000000 163604064.00000000 60809.36718750  4999574.00000000 3954378.00000000 
0.05000    101574440.00000000 63586784.00000000 160731616.00000000 59436.05468750  4898395.00000000 3874603.50000000 
0.05100    99755688.00000000 62456988.00000000 157864640.00000000 58072.86718750  4797703.00000000 3795203.75000000 
0.05200    97943024.00000000 61330732.00000000 155006672.00000000 56720.12890625  4697598.00000000 3716220.50000000 
0.05300    96136968.00000000 60208792.00000000 152159744.00000000 55379.69140625  4598130.50000000 3637743.00000000 
0.05400    94339440.00000000 59091876.00000000 149324544.00000000 54052.01562500  4499388.50000000 3559847.25000000 
0.05500    92551344.00000000 57980752.00000000 146507024.00000000 52738.66406250  4401435.00000000 3482581.25000000 
0.05600    90775856.00000000 56876604.00000000 143705696.00000000 51440.82031250  4304363.50000000 3405979.75000000 
0.05700    89012120.00000000 55780180.00000000 140923888.00000000 50158.75390625  4208276.00000000 3330159.25000000 
0.05800    87261912.00000000 54692172.00000000 138164640.00000000 48894.35937500  4113176.25000000 3255124.50000000 
0.05900    85527408.00000000 53613636.00000000 135428912.00000000 47647.56250000  4019200.75000000 3180962.75000000 
0.06000    83808200.00000000 52544944.00000000 132718800.00000000 46419.73046875  3926355.00000000 3107702.50000000 
0.06100    82107112.00000000 51487192.00000000 130035728.00000000 45211.43359375  3834726.50000000 3035388.50000000 
0.06200    80424592.00000000 50440628.00000000 127381048.00000000 44023.83984375  3744365.25000000 2964049.25000000 
0.06300    78761280.00000000 49405920.00000000 124757816.00000000 42856.51562500  3655350.75000000 2893774.50000000 
0.06400    77118056.00000000 48383740.00000000 122165272.00000000 41711.05078125  3567670.75000000 2824559.75000000 
0.06500    75496520.00000000 47374920.00000000 119607416.00000000 40587.48828125  3481411.00000000 2756478.00000000 
0.06600    73897536.00000000 46379748.00000000 117084464.00000000 39486.14062500  3396623.00000000 2689510.25000000 
0.06700    72321544.00000000 45398728.00000000 114597264.00000000 38407.95703125  3313306.75000000 2623730.50000000 
0.06800    70768576.00000000 44432500.00000000 112147504.00000000 37352.79296875  3231509.25000000 2559147.00000000 
0.06900    69241464.00000000 43481668.00000000 109737144.00000000 36321.15234375  3151279.25000000 2495774.00000000 
0.07000    67738808.00000000 42545960.00000000 107365504.00000000 35313.41406250  3072630.00000000 2433655.00000000 
0.07100    66261388.00000000 41625960.00000000 105034336.00000000 34329.76953125  2995572.75000000 2372807.75000000 
0.07200    64810024.00000000 40722304.00000000 102743112.00000000 33369.91796875  2920150.25000000 2313215.50000000 
0.07300    63386464.00000000 39835220.00000000 100495400.00000000 32434.48046875  2846368.00000000 2254921.50000000 
0.07400    61989260.00000000 38964872.00000000 98289952.00000000 31522.87695312  2774220.00000000 2197934.00000000 
0.07500    60619360.00000000 38111596.00000000 96127920.00000000 30635.78710938  2703739.75000000 2142241.00000000 
0.07600    59277412.00000000 37275304.00000000 94009040.00000000 29772.76367188  2634922.75000000 2087859.87500000 
0.07700    57963500.00000000 36456480.00000000 91934040.00000000 28934.00195312  2567770.00000000 2034804.00000000 
0.07800    56677612.00000000 35655144.00000000 89903608.00000000 28119.04492188  2502299.25000000 1983061.25000000 
0.07900    55420080.00000000 34871400.00000000 87918040.00000000 27327.77734375  2438488.00000000 1932610.37500000 
0.08000    54191172.00000000 34105152.00000000 85977392.00000000 26560.10156250  2376335.25000000 1883493.87500000 
0.08100    52990624.00000000 33356696.00000000 84081336.00000000 25815.64062500  2315837.25000000 1835643.62500000 
0.08200    51818556.00000000 32626172.00000000 82230464.00000000 25094.14648438  2256953.25000000 1789112.37500000 
0.08300    50675264.00000000 31913106.00000000 80424968.00000000 24395.09179688  2199727.50000000 1743857.75000000 
0.08400    49560148.00000000 31217774.00000000 78663240.00000000 23718.71875000  2144113.75000000 1699867.25000000 
0.08500    48473464.00000000 30540022.00000000 76946672.00000000 23064.03515625  2090070.62500000 1657130.75000000 
0.08600    47414928.00000000 29879644.00000000 75274240.00000000 22430.99414062  2037601.87500000 1615647.12500000 
0.08700    46383988.00000000 29236796.00000000 73646416.00000000 21818.73828125  1986693.75000000 1575365.50000000 
0.08800    45380872.00000000 28611104.00000000 72061480.00000000 21227.39843750  1937294.75000000 1536286.37500000 
0.08900    44405320.00000000 28002504.00000000 70520840.00000000 20656.07812500  1889402.12500000 1498397.75000000 
0.09000    43456592.00000000 27410694.00000000 69021872.00000000 20104.48242188  1842980.62500000 1461668.50000000 
0.09100    42534940.00000000 26835924.00000000 67565352.00000000 19571.91406250  1797992.12500000 1426070.25000000 
0.09200    41639384.00000000 26277290.00000000 66151152.00000000 19058.07617188  1754413.37500000 1391585.00000000 
0.09300    40770040.00000000 25734862.00000000 64777456.00000000 18562.17382812  1712218.37500000 1358194.00000000 
0.09400    39926216.00000000 25208632.00000000 63444500.00000000 18083.89257812  1671362.75000000 1325852.37500000 
0.09500    39107480.00000000 24697868.00000000 62151044.00000000 17622.43945312  1631815.75000000 1294544.25000000 
0.09600    38313512.00000000 24202512.00000000 60896768.00000000 17177.50195312  1593543.37500000 1264250.75000000 
0.09700    37543564.00000000 23722228.00000000 59680420.00000000 16748.52343750  1556523.75000000 1234933.87500000 
0.09800    36797216.00000000 23256956.00000000 58502044.00000000 16334.70019531  1520701.62500000 1206579.00000000 
0.09900    36074424.00000000 22805810.00000000 57359408.00000000 15935.70214844  1486047.00000000 1179132.50000000 
0.10000    35373552.00000000 22368914.00000000 56253140.00000000 15550.69335938  1452522.62500000 1152578.25000000 
0.10100    34695112.00000000 21945872.00000000 55181004.00000000 15179.28417969  1420084.37500000 1126885.87500000 
0.10200    34037976.00000000 21536270.00000000 54143312.00000000 14820.94335938  1388701.25000000 1102030.75000000 
0.10300    33401324.00000000 21139426.00000000 53138352.00000000 14475.10839844  1358336.12500000 1077973.12500000 
0.10400    32785262.00000000 20755668.00000000 52165504.00000000 14141.21289062  1328944.25000000 1054697.12500000 
0.10500    32189176.00000000 20384134.00000000 51223804.00000000 13818.67578125  1300513.87500000 1032159.06250000 
0.10600    31611594.00000000 20024298.00000000 50312100.00000000 13506.91406250  1272969.37500000 1010334.18750000 
0.10700    31052930.00000000 19676298.00000000 49429764.00000000 13205.50097656  1246298.25000000 989200.93750000 
0.10800    30511928.00000000 19339420.00000000 48575548.00000000 12914.03613281  1220456.12500000 968716.93750000 
0.10900    29987778.00000000 19013284.00000000 47748988.00000000 12631.89257812  1195405.62500000 948867.06250000 
0.11000    29480568.00000000 18697594.00000000 46948180.00000000 12358.53320312  1171111.37500000 929616.81250000 
0.11100    28989284.00000000 18391982.00000000 46172948.00000000 12093.66406250  1147551.25000000 910929.81250000 
0.11200    28513460.00000000 18095992.00000000 45422220.00000000 11836.64257812  1124686.75000000 892795.12500000 
0.11300    28052476.00000000 17809402.00000000 44695088.00000000 11587.20410156  1102474.62500000 875177.68750000 
0.11400    27605476.00000000 17531618.00000000 43990344.00000000 11344.79589844  1080888.00000000 858060.06250000 
0.11500    27172302.00000000 17262318.00000000 43306964.00000000 11109.11230469  1059885.75000000 841406.87500000 
0.11600    26751992.00000000 17001364.00000000 42644548.00000000 10879.72851562  1039451.56250000 825199.50000000 
0.11700    26344364.00000000 16748154.00000000 42001660.00000000 10656.32812500  1019549.37500000 809414.87500000 
0.11800    25948154.00000000 16502471.00000000 41377492.00000000 10438.49023438  1000154.62500000 794026.87500000 
0.11900    25563364.00000000 16263903.00000000 40771500.00000000 10225.90332031  981232.31250000 779008.43750000 
0.12000    25189664.00000000 16031966.00000000 40182396.00000000 10018.22558594  962760.12500000 764353.50000000 
0.12100    24826102.00000000 15806803.00000000 39609616.00000000 9815.35546875   944720.93750000 750031.31250000 
0.12200    24472198.00000000 15587446.00000000 39052512.00000000 9616.76269531   927074.68750000 736028.18750000 
0.12300    24127688.00000000 15374077.00000000 38510020.00000000 9422.33300781   909800.43750000 722324.56250000 
0.12400    23791868.00000000 15166066.00000000 37981180.00000000 9231.74902344   892888.50000000 708896.81250000 
0.12500    23464268.00000000 14963261.00000000 37465452.00000000 9044.83398438   876314.12500000 695733.81250000 
0.12600    23144630.00000000 14765619.00000000 36962500.00000000 8861.45312500   860050.68750000 682823.56250000 
0.12700    22832138.00000000 14572491.00000000 36471452.00000000 8681.26074219   844089.18750000 670141.87500000 
0.12800    22526836.00000000 14383688.00000000 35990636.00000000 8504.19628906   828398.56250000 657683.43750000 
0.12900    22228108.00000000 14199089.00000000 35520672.00000000 8330.05175781   812977.25000000 645434.37500000 
0.13000    21935450.00000000 14018265.00000000 35060600.00000000 8158.73925781   797799.25000000 633375.75000000 
0.13100    21648602.00000000 13841062.00000000 34609504.00000000 7990.02343750   782860.31250000 621501.12500000 
0.13200    21367236.00000000 13667294.00000000 34166896.00000000 7823.91162109   768141.00000000 609801.62500000 
0.13300    21090966.00000000 13496678.00000000 33732688.00000000 7660.24414062   753624.43750000 598264.62500000 
0.13400    20819520.00000000 13329067.00000000 33305684.00000000 7499.00585938   739310.75000000 586884.87500000 
0.13500    20552444.00000000 13164157.00000000 32885736.00000000 7339.95947266   725183.93750000 575658.25000000 
0.13600    20289466.00000000 13001864.00000000 32472416.00000000 7183.18701172   711237.56250000 564568.68750000 
0.13700    20030590.00000000 12841977.00000000 32065282.00000000 7028.60253906   697460.81250000 553607.87500000 
0.13800    19775268.00000000 12684326.00000000 31663846.00000000 6876.18750000   683850.06250000 542785.31250000 
0.13900    19523348.00000000 12528819.00000000 31267806.00000000 6725.88037109   670395.25000000 532077.81250000 
0.14000    19274586.00000000 12375140.00000000 30876630.00000000 6577.62695312   657101.25000000 521489.37500000 
0.14100    19028818.00000000 12223357.00000000 30490116.00000000 6431.43701172   643944.87500000 511024.84375000 
0.14200    18785762.00000000 12073235.00000000 30107872.00000000 6287.32226562   630937.75000000 500670.53125000 
0.14300    18545572.00000000 11924631.00000000 29729904.00000000 6145.25683594   618072.06250000 490423.65625000 
0.14400    18307654.00000000 11777483.00000000 29355462.00000000 6005.24023438   605341.12500000 480285.03125000 
0.14500    18071924.00000000 11631763.00000000 28984546.00000000 5867.34570312   592752.50000000 470256.68750000 
0.14600    17838496.00000000 11487244.00000000 28617252.00000000 5731.49609375   580297.81250000 460335.06250000 
0.14700    17607016.00000000 11343909.00000000 28252662.00000000 5597.76562500   567980.68750000 450518.84375000 
0.14800    17377456.00000000 11201716.00000000 27891272.00000000 5466.13623047   555791.81250000 440802.53125000 
0.14900    17149754.00000000 11060530.00000000 27532392.00000000 5336.67529297   543745.68750000 431196.62500000 
0.15000    16923792.00000000 10920317.00000000 27176308.00000000 5209.34570312   531824.81250000 421692.37500000 
0.15100    16699576.00000000 10781051.00000000 26822748.00000000 5084.24072266   520049.18750000 412296.46875000 
0.15200    16476852.00000000 10642681.00000000 26471450.00000000 4961.36669922   508410.65625000 403013.06250000 
0.15300    16255692.00000000 10505196.00000000 26122532.00000000 4840.74218750   496908.43750000 393835.15625000 
0.15400    16035935.00000000 10368468.00000000 25775670.00000000 4722.33251953   485545.71875000 384766.18750000 
0.15500    15817727.00000000 10232570.00000000 25431018.00000000 4606.34814453   474327.96875000 375811.03125000 
0.15600    15600831.00000000 10097375.00000000 25088438.00000000 4492.57617188   463254.68750000 366967.09375000 
0.15700    15385494.00000000 9962995.00000000 24748114.00000000 4381.18261719   452331.37500000 358241.75000000 
0.15800    15171415.00000000 9829271.00000000 24409594.00000000 4272.18066406   441552.21875000 349629.93750000 
0.15900    14958781.00000000 9696331.00000000 24073340.00000000 4165.55273438   430927.87500000 341139.43750000 
0.16000    14747502.00000000 9564149.00000000 23738820.00000000 4061.35351562   420458.25000000 332766.81250000 
0.16100    14537688.00000000 9432739.00000000 23406598.00000000 3959.53466797   410144.81250000 324525.18750000 
0.16200    14329245.00000000 9301937.00000000 23076312.00000000 3860.19458008   399993.03125000 316403.96875000 
0.16300    14122242.00000000 9171958.00000000 22748112.00000000 3763.25781250   390000.75000000 308411.31250000 
0.16400    13916588.00000000 9042755.00000000 22422008.00000000 3668.77172852   380171.37500000 300548.03125000 
0.16500    13712465.00000000 8914314.00000000 22098136.00000000 3576.71069336   370507.21875000 292815.78125000 
0.16600    13509922.00000000 8786686.00000000 21776300.00000000 3487.10717773   361012.34375000 285213.46875000 
0.16700    13308685.00000000 8659769.00000000 21456690.00000000 3399.93334961   351686.75000000 277747.18750000 
0.16800    13109022.00000000 8533659.00000000 21139362.00000000 3315.13232422   342526.75000000 270415.34375000 
0.16900    12911018.00000000 8408543.00000000 20824420.00000000 3232.77319336   333547.93750000 263222.65625000 
0.17000    12714576.00000000 8284209.00000000 20511816.00000000 3152.78979492   324737.90625000 256165.23437500 
