# SAXS profile: number of points = 501, q_min = 0, q_max = 0.5, delta_q = 0.001
#    q    intensity 
0.00000    162231216.00000000 101201832.00000000 256270208.00000000 110375.60156250 8463371.00000000 6684388.50000000 
0.00100    162192144.00000000 101174528.00000000 256201424.00000000 110338.02343750 8460750.00000000 6682300.50000000 
0.00200    162067312.00000000 101094120.00000000 255996608.00000000 110225.20312500 8452923.00000000 6676160.00000000 
0.00300    161853824.00000000 100960136.00000000 255653072.00000000 110037.07031250 8439883.00000000 6665932.50000000 
0.00400    161544688.00000000 100771080.00000000 255174528.00000000 109775.05468750 8421716.00000000 6651631.00000000 
0.00500    161149408.00000000 100529320.00000000 254556960.00000000 109438.07812500 8398352.00000000 6633284.00000000 
0.00600    160671904.00000000 100235392.00000000 253809184.00000000 109029.29687500 8369958.00000000 6610958.00000000 
0.00700    160104528.00000000 99889352.00000000 252927264.00000000 108547.98437500 8336535.50000000 6584699.00000000 
0.00800    159457184.00000000 99493200.00000000 251913312.00000000 107995.89062500 8298171.50000000 6554534.50000000 
0.00900    158730352.00000000 99046168.00000000 250771648.00000000 107374.26562500 8254943.50000000 6520619.00000000 
0.01000    157922736.00000000 98548568.00000000 249502544.00000000 106684.27343750 8206913.50000000 6482900.50000000 
0.01100    157035984.00000000 98001768.00000000 248108048.00000000 105928.50781250 8154325.00000000 6441556.50000000 
0.01200    156066576.00000000 97407496.00000000 246593952.00000000 105106.30468750 8097178.50000000 6396648.00000000 
0.01300    155026368.00000000 96765824.00000000 244960432.00000000 104223.67968750 8035560.50000000 6348250.00000000 
0.01400    153911408.00000000 96079520.00000000 243210864.00000000 103279.60156250 7969702.50000000 6296460.50000000 
0.01500    152726112.00000000 95350872.00000000 241348832.00000000 102277.50000000 7899650.50000000 6241467.50000000 
0.01600    151468448.00000000 94577512.00000000 239378240.00000000 101219.67187500 7825697.50000000 6183322.50000000 
0.01700    150147280.00000000 93763360.00000000 237302304.00000000 100107.21875000 7747853.00000000 6122085.00000000 
0.01800    148761008.00000000 92909168.00000000 235126528.00000000 98944.58593750  7666310.50000000 6058077.50000000 
0.01900    147311168.00000000 92017064.00000000 232854208.00000000 97733.57031250  7581369.50000000 5991269.00000000 
0.02000    145804224.00000000 91088720.00000000 230488256.00000000 96476.50781250  7493057.00000000 5921814.50000000 
0.02100    144240336.00000000 90125792.00000000 228030768.00000000 95176.49218750  7401630.50000000 5849941.50000000 
0.02200    142623168.00000000 89129200.00000000 225490960.00000000 93836.14843750  7307172.00000000 5775708.00000000 
0.02300    140954976.00000000 88100272.00000000 222873376.00000000 92459.63281250  7210060.50000000 5699260.50000000 
0.02400    139239744.00000000 87043024.00000000 220178864.00000000 91048.08593750  7110318.00000000 5620814.50000000 
0.02500    137479440.00000000 85956824.00000000 217415264.00000000 89605.02343750  7008201.50000000 5540474.50000000 
0.02600    135678448.00000000 84844840.00000000 214584896.00000000 88134.33593750  6903879.50000000 5458427.50000000 
0.02700    133838952.00000000 83709456.00000000 211694224.00000000 86637.66406250  6797580.50000000 5374816.00000000 
0.02800    131964544.00000000 82552480.00000000 208747488.00000000 85119.49218750  6689452.00000000 5289781.50000000 
0.02900    130057552.00000000 81374752.00000000 205749936.00000000 83580.17187500  6579806.50000000 5203422.50000000 
0.03000    128121368.00000000 80177568.00000000 202705488.00000000 82025.99218750  6468739.00000000 5115995.00000000 
0.03100    126159544.00000000 78965296.00000000 199621520.00000000 80457.60937500  6356454.00000000 5027649.50000000 
0.03200    124175208.00000000 77738928.00000000 196500992.00000000 78879.35937500  6243200.50000000 4938472.50000000 
0.03300    122170624.00000000 76499768.00000000 193350896.00000000 77292.64062500  6129161.50000000 4848674.50000000 
0.03400    120150096.00000000 75250216.00000000 190169104.00000000 75701.50000000  6014424.00000000 4758405.00000000 
0.03500    118116072.00000000 73991208.00000000 186968576.00000000 74107.59375000  5899298.00000000 4667696.50000000 
0.03600    116070680.00000000 72724800.00000000 183751200.00000000 72514.01562500  5783935.50000000 4576841.00000000 
0.03700    114018720.00000000 71453416.00000000 180519344.00000000 70924.17187500  5668465.50000000 4485834.00000000 
0.03800    111961968.00000000 70178488.00000000 177281280.00000000 69338.74218750  5553024.50000000 4394877.50000000 
0.03900    109902992.00000000 68902400.00000000 174037968.00000000 67760.31250000  5437961.00000000 4304157.00000000 
0.04000    107844944.00000000 67625976.00000000 170798656.00000000 66193.03906250  5323244.50000000 4213748.50000000 
0.04100    105790696.00000000 66351392.00000000 167561712.00000000 64637.21875000  5209140.50000000 4123764.00000000 
0.04200    103743816.00000000 65080148.00000000 164335536.00000000 63095.96484375  5095743.00000000 4034349.75000000 
0.04300    101704152.00000000 63813940.00000000 161120224.00000000 61570.78125000  4983223.00000000 3945608.00000000 
0.04400    99677208.00000000 62553628.00000000 157922896.00000000 60063.50000000  4871677.00000000 3857666.00000000 
0.04500    97661440.00000000 61301988.00000000 154747472.00000000 58576.42578125  4761292.50000000 3770580.00000000 
0.04600    95663344.00000000 60059108.00000000 151595072.00000000 57109.97265625  4652185.00000000 3684469.50000000 
0.04700    93682392.00000000 58826660.00000000 148469104.00000000 55666.73828125  4544391.00000000 3599420.50000000 
0.04800    91720720.00000000 57606276.00000000 145374624.00000000 54247.39843750  4438129.50000000 3515510.75000000 
0.04900    89781296.00000000 56398948.00000000 142314448.00000000 52853.73828125  4333386.00000000 3432838.25000000 
0.05000    87866128.00000000 55205380.00000000 139291520.00000000 51486.44531250  4230361.00000000 3351462.75000000 
0.05100    85976288.00000000 54027392.00000000 136305632.00000000 50146.73046875  4128996.00000000 3271418.75000000 
0.05200    84112888.00000000 52865504.00000000 133364568.00000000 48835.21484375  4029513.75000000 3192816.25000000 
0.05300    82277528.00000000 51720816.00000000 130466744.00000000 47552.72656250  3931920.00000000 3115710.75000000 
0.05400    80472848.00000000 50594652.00000000 127614952.00000000 46300.04296875  3836233.75000000 3040106.00000000 
0.05500    78698624.00000000 49487356.00000000 124811464.00000000 45077.23046875  3742569.00000000 2966055.50000000 
0.05600    76956824.00000000 48399596.00000000 122057808.00000000 43885.12109375  3650947.25000000 2893643.75000000 
0.05700    75248264.00000000 47332248.00000000 119356808.00000000 42724.20703125  3561395.25000000 2822843.25000000 
0.05800    73574120.00000000 46284824.00000000 116708904.00000000 41594.22656250  3473957.75000000 2753703.25000000 
0.05900    71933512.00000000 45260012.00000000 114115408.00000000 40495.14843750  3388634.75000000 2686213.50000000 
0.06000    70329592.00000000 44256436.00000000 111577152.00000000 39427.16015625  3305479.50000000 2620425.50000000 
0.06100    68761768.00000000 43275012.00000000 109097000.00000000 38390.66015625  3224493.75000000 2556322.75000000 
0.06200    67229888.00000000 42316284.00000000 106673392.00000000 37384.67968750  3145659.00000000 2493954.00000000 
0.06300    65735332.00000000 41380824.00000000 104308352.00000000 36409.51171875  3068956.00000000 2433269.00000000 
0.06400    64278924.00000000 40467928.00000000 102001848.00000000 35463.94140625  2994425.25000000 2374254.50000000 
0.06500    62858856.00000000 39578508.00000000 99755080.00000000 34548.42187500  2922053.00000000 2316943.50000000 
0.06600    61477124.00000000 38712628.00000000 97566624.00000000 33662.53125000  2851764.75000000 2261304.00000000 
0.06700    60133364.00000000 37869840.00000000 95438312.00000000 32804.97656250  2783594.25000000 2207321.25000000 
0.06800    58826488.00000000 37050844.00000000 93369368.00000000 31975.80664062  2717498.00000000 2154948.75000000 
0.06900    57556968.00000000 36255268.00000000 91358808.00000000 31174.06054688  2653427.00000000 2104217.25000000 
0.07000    56324808.00000000 35482248.00000000 89407816.00000000 30399.16406250  2591376.00000000 2055066.37500000 
0.07100    55129528.00000000 34732952.00000000 87513816.00000000 29650.26171875  2531278.50000000 2007455.87500000 
0.07200    53970356.00000000 34005884.00000000 85678752.00000000 28926.65429688  2473116.00000000 1961376.12500000 
0.07300    52847824.00000000 33302222.00000000 83900680.00000000 28227.85156250  2416831.50000000 1916772.12500000 
0.07400    51760904.00000000 32620494.00000000 82178680.00000000 27552.36523438  2362368.75000000 1873621.00000000 
0.07500    50708640.00000000 31960678.00000000 80512296.00000000 26899.86718750  2309696.50000000 1831885.75000000 
0.07600    49691284.00000000 31322412.00000000 78900872.00000000 26269.49218750  2258754.25000000 1791501.00000000 
0.07700    48706924.00000000 30705658.00000000 77342264.00000000 25660.22460938  2209486.50000000 1752474.37500000 
0.07800    47756480.00000000 30109892.00000000 75836720.00000000 25071.57812500  2161852.50000000 1714721.50000000 
0.07900    46837928.00000000 29534726.00000000 74382504.00000000 24502.29101562  2115763.00000000 1678220.50000000 
0.08000    45950840.00000000 28979332.00000000 72979064.00000000 23951.64062500  2071234.62500000 1642919.87500000 
0.08100    45094612.00000000 28443516.00000000 71624056.00000000 23418.78906250  2028131.25000000 1608791.25000000 
0.08200    44268332.00000000 27926646.00000000 70317112.00000000 22903.04492188  1986461.00000000 1575747.87500000 
0.08300    43471324.00000000 27428422.00000000 69056528.00000000 22403.45703125  1946125.37500000 1543799.00000000 
0.08400    42702552.00000000 26947956.00000000 67840584.00000000 21919.43359375  1907075.87500000 1512872.00000000 
0.08500    41961172.00000000 26485024.00000000 66669424.00000000 21449.82812500  1869268.50000000 1482930.25000000 
0.08600    41246400.00000000 26039290.00000000 65539860.00000000 20994.25390625  1832657.87500000 1453938.37500000 
0.08700    40557008.00000000 25609704.00000000 64451304.00000000 20551.93359375  1797154.25000000 1425831.62500000 
0.08800    39892004.00000000 25195734.00000000 63402300.00000000 20122.07421875  1762743.62500000 1398599.50000000 
0.08900    39251404.00000000 24796954.00000000 62391144.00000000 19703.94726562  1729378.50000000 1372176.00000000 
0.09000    38633264.00000000 24413098.00000000 61416516.00000000 19297.22656250  1696978.00000000 1346535.12500000 
0.09100    38037624.00000000 24043060.00000000 60477568.00000000 18901.05273438  1665507.12500000 1321645.00000000 
0.09200    37462552.00000000 23686580.00000000 59571904.00000000 18515.11914062  1634916.25000000 1297438.87500000 
0.09300    36907768.00000000 23343332.00000000 58698808.00000000 18138.39062500  1605184.75000000 1273920.12500000 
0.09400    36372244.00000000 23012026.00000000 57856080.00000000 17770.87695312  1576237.12500000 1251033.62500000 
0.09500    35855464.00000000 22692730.00000000 57043688.00000000 17411.81445312  1548046.62500000 1228727.87500000 
0.09600    35355868.00000000 22384924.00000000 56258468.00000000 17060.94921875  1520577.00000000 1207019.62500000 
0.09700    34872872.00000000 22087404.00000000 55500668.00000000 16717.69726562  1493777.62500000 1185843.62500000 
0.09800    34406144.00000000 21800442.00000000 54768416.00000000 16381.71191406  1467633.62500000 1165169.37500000 
0.09900    33954800.00000000 21523028.00000000 54059940.00000000 16052.72753906  1442076.50000000 1144988.50000000 
0.10000    33517234.00000000 21254850.00000000 53374808.00000000 15730.29785156  1417107.75000000 1125256.62500000 
0.10100    33093174.00000000 20995122.00000000 52710772.00000000 15414.27539062  1392667.50000000 1105958.12500000 
0.10200    32681770.00000000 20743790.00000000 52067340.00000000 15104.25878906  1368764.50000000 1087070.50000000 
0.10300    32282838.00000000 20499950.00000000 51443044.00000000 14799.98828125  1345337.75000000 1068565.62500000 
0.10400    31894648.00000000 20263544.00000000 50836700.00000000 14501.39843750  1322375.37500000 1050442.50000000 
0.10500    31517448.00000000 20033874.00000000 50248108.00000000 14208.23632812  1299861.50000000 1032658.75000000 
0.10600    31150262.00000000 19810546.00000000 49674752.00000000 13920.14453125  1277752.75000000 1015201.06250000 
0.10700    30792388.00000000 19593022.00000000 49116728.00000000 13637.06054688  1256046.62500000 998060.56250000 
0.10800    30443008.00000000 19381074.00000000 48572108.00000000 13359.03906250  1234721.50000000 981219.43750000 
0.10900    30102064.00000000 19174230.00000000 48040624.00000000 13085.60156250  1213750.50000000 964660.31250000 
0.11000    29768466.00000000 18972242.00000000 47521300.00000000 12816.88183594  1193125.50000000 948377.31250000 
0.11100    29441898.00000000 18774520.00000000 47012464.00000000 12552.84472656  1172840.50000000 932356.87500000 
0.11200    29121938.00000000 18580804.00000000 46514408.00000000 12293.19433594  1152858.25000000 916572.37500000 
0.11300    28808050.00000000 18391030.00000000 46025396.00000000 12037.83398438  1133184.75000000 901032.75000000 
0.11400    28499494.00000000 18204404.00000000 45545456.00000000 11786.87207031  1113794.75000000 885717.93750000 
0.11500    28196120.00000000 18020932.00000000 45073152.00000000 11540.09082031  1094706.87500000 870628.75000000 
0.11600    27897438.00000000 17840388.00000000 44608276.00000000 11297.51269531  1075869.87500000 855748.31250000 
0.11700    27602726.00000000 17662252.00000000 44149836.00000000 11059.10742188  1057311.25000000 841075.68750000 
0.11800    27312132.00000000 17486540.00000000 43697356.00000000 10824.85253906  1038986.81250000 826595.00000000 
0.11900    27025008.00000000 17312576.00000000 43249996.00000000 10594.54394531  1020925.43750000 812310.93750000 
0.12000    26740608.00000000 17140434.00000000 42807352.00000000 10368.26269531  1003089.25000000 798205.87500000 
0.12100    26459390.00000000 16969884.00000000 42369128.00000000 10145.95898438  985500.00000000 784284.93750000 
0.12200    26180702.00000000 16800866.00000000 41934564.00000000 9927.51660156   968129.81250000 770541.12500000 
0.12300    25904202.00000000 16632859.00000000 41503304.00000000 9713.08007812   950984.31250000 756969.25000000 
0.12400    25629742.00000000 16465763.00000000 41074836.00000000 9502.37890625   934055.12500000 743566.75000000 
0.12500    25356756.00000000 16299564.00000000 40648516.00000000 9295.42285156   917338.62500000 730329.37500000 
0.12600    25085400.00000000 16134155.00000000 40224464.00000000 9092.30859375   900831.93750000 717250.12500000 
0.12700    24815416.00000000 15969148.00000000 39801948.00000000 8892.77539062   884527.87500000 704331.12500000 
0.12800    24546260.00000000 15804454.00000000 39380984.00000000 8696.89843750   868416.06250000 691567.93750000 
0.12900    24278114.00000000 15640165.00000000 38961008.00000000 8504.67773438   852515.75000000 678951.43750000 
0.13000    24010784.00000000 15475987.00000000 38541332.00000000 8316.03515625   836802.43750000 666491.62500000 
0.13100    23743964.00000000 15311836.00000000 38122988.00000000 8130.70751953   821271.25000000 654174.93750000 
0.13200    23477358.00000000 15147758.00000000 37704640.00000000 7948.85009766   805934.12500000 641997.43750000 
0.13300    23211316.00000000 14983618.00000000 37286264.00000000 7770.37402344   790775.68750000 629970.43750000 
0.13400    22945434.00000000 14819144.00000000 36867944.00000000 7595.15087891   775797.81250000 618078.68750000 
0.13500    22679722.00000000 14654518.00000000 36449400.00000000 7423.18701172   761002.37500000 606327.18750000 
0.13600    22413774.00000000 14489590.00000000 36030680.00000000 7254.35888672   746381.18750000 594708.62500000 
0.13700    22148126.00000000 14324238.00000000 35611544.00000000 7088.68310547   731924.75000000 583228.12500000 
0.13800    21882190.00000000 14158680.00000000 35191824.00000000 6925.98437500   717646.56250000 571874.37500000 
0.13900    21616340.00000000 13992709.00000000 34771328.00000000 6766.30175781   703531.75000000 560649.75000000 
0.14000    21350228.00000000 13826412.00000000 34350432.00000000 6609.49560547   689579.68750000 549563.06250000 
0.14100    21083970.00000000 13659590.00000000 33929016.00000000 6455.54589844   675796.25000000 538594.06250000 
0.14200    20817426.00000000 13492400.00000000 33506588.00000000 6304.40380859   662174.81250000 527755.93750000 
0.14300    20550628.00000000 13324869.00000000 33083962.00000000 6155.91308594   648701.37500000 517039.43750000 
0.14400    20283782.00000000 13156893.00000000 32660616.00000000 6010.04345703   635386.75000000 506439.93750000 
0.14500    20016740.00000000 12988582.00000000 32236602.00000000 5866.90332031   622233.87500000 495966.37500000 
0.14600    19749568.00000000 12819931.00000000 31812084.00000000 5726.19287109   609224.06250000 485610.71875000 
0.14700    19482378.00000000 12650959.00000000 31387030.00000000 5588.08496094   596375.43750000 475376.78125000 
0.14800    19215098.00000000 12481693.00000000 30961596.00000000 5452.32470703   583675.37500000 465256.65625000 
0.14900    18947824.00000000 12312195.00000000 30536058.00000000 5319.01953125   571119.93750000 455257.00000000 
0.15000    18680544.00000000 12142499.00000000 30110256.00000000 5188.00830078   558714.81250000 445367.40625000 
0.15100    18413588.00000000 11972722.00000000 29684296.00000000 5059.32763672   546461.25000000 435601.00000000 
0.15200    18146772.00000000 11802887.00000000 29258744.00000000 4933.02783203   534355.06250000 425948.43750000 
0.15300    17880292.00000000 11632914.00000000 28833102.00000000 4808.91503906   522390.81250000 416412.81250000 
0.15400    17614074.00000000 11463140.00000000 28407818.00000000 4686.98681641   510576.40625000 406987.56250000 
0.15500    17348374.00000000 11293376.00000000 27983182.00000000 4567.34228516   498903.65625000 397677.71875000 
0.15600    17083174.00000000 11123856.00000000 27559094.00000000 4449.87353516   487379.87500000 388483.93750000 
0.15700    16818790.00000000 10954548.00000000 27136208.00000000 4334.54248047   476004.25000000 379409.31250000 
0.15800    16555250.00000000 10785607.00000000 26714172.00000000 4221.40527344   464769.15625000 370445.03125000 
0.15900    16292413.00000000 10617078.00000000 26293068.00000000 4110.36474609   453692.59375000 361600.12500000 
0.16000    16030685.00000000 10449038.00000000 25873692.00000000 4001.54467773   442757.21875000 352871.15625000 
0.16100    15769983.00000000 10281559.00000000 25455986.00000000 3894.89233398   431974.96875000 344259.81250000 
0.16200    15510527.00000000 10114748.00000000 25039878.00000000 3790.33154297   421345.93750000 335767.81250000 
0.16300    15252467.00000000 9948611.00000000 24625884.00000000 3687.94702148   410865.06250000 327396.37500000 
0.16400    14995804.00000000 9783321.00000000 24214116.00000000 3587.76635742   400538.43750000 319144.21875000 
0.16500    14740866.00000000 9618978.00000000 23804622.00000000 3489.71948242   390368.12500000 311013.18750000 
0.16600    14487600.00000000 9455638.00000000 23398090.00000000 3393.88330078   380353.75000000 303007.81250000 
0.16700    14236123.00000000 9293221.00000000 22993850.00000000 3300.24194336   370496.09375000 295124.15625000 
0.16800    13986512.00000000 9132004.00000000 22592816.00000000 3208.78564453   360800.96875000 287367.96875000 
0.16900    13739069.00000000 8972137.00000000 22195044.00000000 3119.56884766   351266.68750000 279741.31250000 
0.17000    13493935.00000000 8813517.00000000 21800670.00000000 3032.60205078   341895.46875000 272236.65625000 
