# SAXS profile: number of points = 501, q_min = 0, q_max = 0.5, delta_q = 0.001
#    q    intensity 
0.00000    162233440.00000000 101202576.00000000 256269776.00000000 103841.69531250 8209109.00000000 6483534.00000000 
0.00100    162200032.00000000 101179720.00000000 256212608.00000000 103809.97656250 8206896.50000000 6481823.00000000 
0.00200    162097472.00000000 101113016.00000000 256045856.00000000 103713.66406250 8200336.50000000 6476639.50000000 
0.00300    161921728.00000000 101002320.00000000 255762896.00000000 103554.00000000 8189390.50000000 6468069.50000000 
0.00400    161669872.00000000 100848456.00000000 255368752.00000000 103329.84375000 8174111.00000000 6456113.50000000 
0.00500    161344336.00000000 100649776.00000000 254861568.00000000 103043.23437500 8154495.50000000 6440669.00000000 
0.00600    160947920.00000000 100406448.00000000 254242704.00000000 102693.69531250 8130655.50000000 6421945.50000000 
0.00700    160480704.00000000 100121848.00000000 253517568.00000000 102282.90625000 8102527.50000000 6399863.50000000 
0.00800    159942896.00000000 99795296.00000000 252682720.00000000 101811.50781250 8070256.50000000 6374547.00000000 
0.00900    159341776.00000000 99426704.00000000 251738320.00000000 101281.06250000 8033818.50000000 6346010.00000000 
0.01000    158673552.00000000 99016344.00000000 250690832.00000000 100690.47656250 7993441.50000000 6314290.00000000 
0.01100    157940784.00000000 98565080.00000000 249535792.00000000 100044.17187500 7949014.00000000 6279396.00000000 
0.01200    157137216.00000000 98072248.00000000 248280448.00000000 99341.71875000  7900735.50000000 6241570.00000000 
0.01300    156271504.00000000 97541256.00000000 246925392.00000000 98584.80468750  7848681.50000000 6200695.50000000 
0.01400    155343264.00000000 96971256.00000000 245472368.00000000 97775.46875000  7792924.00000000 6156952.50000000 
0.01500    154356880.00000000 96365496.00000000 243922768.00000000 96915.64843750  7733585.00000000 6110376.50000000 
0.01600    153307888.00000000 95722488.00000000 242280912.00000000 96006.12500000  7670787.50000000 6061055.00000000 
0.01700    152203744.00000000 95043960.00000000 240547536.00000000 95050.12500000  7604646.00000000 6009091.50000000 
0.01800    151042336.00000000 94330064.00000000 238726880.00000000 94048.26562500  7535233.00000000 5954617.50000000 
0.01900    149826640.00000000 93583224.00000000 236823072.00000000 93004.85156250  7462738.50000000 5897708.50000000 
0.02000    148557872.00000000 92804136.00000000 234833328.00000000 91919.51562500  7387279.50000000 5838431.00000000 
0.02100    147241056.00000000 91994704.00000000 232769328.00000000 90796.56250000  7308981.00000000 5776917.50000000 
0.02200    145873408.00000000 91154496.00000000 230625664.00000000 89637.22656250  7227978.00000000 5713288.50000000 
0.02300    144462256.00000000 90286536.00000000 228409680.00000000 88443.57812500  7144428.00000000 5647699.50000000 
0.02400    143005920.00000000 89390632.00000000 226126288.00000000 87218.69531250  7058502.50000000 5580112.50000000 
0.02500    141508704.00000000 88469160.00000000 223776304.00000000 85963.83593750  6970276.00000000 5510811.50000000 
0.02600    139969472.00000000 87522600.00000000 221362992.00000000 84682.10156250  6879984.50000000 5439811.50000000 
0.02700    138394912.00000000 86552824.00000000 218890880.00000000 83376.60156250  6787649.50000000 5367287.00000000 
0.02800    136784320.00000000 85561240.00000000 216365056.00000000 82048.46875000  6693549.50000000 5293280.00000000 
0.02900    135141744.00000000 84548824.00000000 213785648.00000000 80701.17187500  6597816.00000000 5218005.00000000 
0.03000    133468664.00000000 83518160.00000000 211159040.00000000 79336.41406250  6500577.00000000 5141541.50000000 
0.03100    131766984.00000000 82469424.00000000 208486768.00000000 77956.80468750  6402005.00000000 5064000.00000000 
0.03200    130039944.00000000 81404720.00000000 205773360.00000000 76565.28125000  6302216.50000000 4985510.00000000 
0.03300    128289288.00000000 80324408.00000000 203023584.00000000 75162.79687500  6201348.50000000 4906172.50000000 
0.03400    126517760.00000000 79231480.00000000 200240336.00000000 73753.28906250  6099693.50000000 4826142.00000000 
0.03500    124727728.00000000 78127336.00000000 197428640.00000000 72337.86718750  5997217.50000000 4745537.00000000 
0.03600    122920640.00000000 77011608.00000000 194587200.00000000 70919.29687500  5894229.00000000 4664455.00000000 
0.03700    121099792.00000000 75887120.00000000 191725184.00000000 69499.14843750  5790688.50000000 4583002.00000000 
0.03800    119267016.00000000 74754152.00000000 188842976.00000000 68080.43750000  5686923.00000000 4501265.00000000 
0.03900    117423256.00000000 73614968.00000000 185943952.00000000 66664.24218750  5582985.00000000 4419366.50000000 
0.04000    115573488.00000000 72470128.00000000 183035824.00000000 65252.70703125  5478989.50000000 4337444.00000000 
0.04100    113718032.00000000 71321528.00000000 180113472.00000000 63847.68359375  5375067.00000000 4255588.50000000 
0.04200    111858848.00000000 70171568.00000000 177189328.00000000 62451.37109375  5271405.50000000 4173885.25000000 
0.04300    109999496.00000000 69019840.00000000 174261600.00000000 61065.27734375  5168084.50000000 4092436.00000000 
0.04400    108140952.00000000 67868264.00000000 171335968.00000000 59691.07421875  5065215.50000000 4011339.00000000 
0.04500    106285008.00000000 66716632.00000000 168412208.00000000 58329.46484375  4962942.00000000 3930680.25000000 
0.04600    104433000.00000000 65568440.00000000 165496048.00000000 56983.20312500  4861369.50000000 3850578.75000000 
0.04700    102587944.00000000 64424168.00000000 162588768.00000000 55652.98828125  4760530.00000000 3771052.00000000 
0.04800    100751640.00000000 63284136.00000000 159694896.00000000 54340.37500000  4660618.00000000 3692228.50000000 
0.04900    98924768.00000000 62150008.00000000 156815984.00000000 53046.07031250  4561763.00000000 3614182.25000000 
0.05000    97109832.00000000 61022656.00000000 153955664.00000000 51771.62500000  4463933.50000000 3536934.75000000 
0.05100    95308648.00000000 59902600.00000000 151114272.00000000 50517.25781250  4367198.50000000 3460623.75000000 
0.05200    93521832.00000000 58791512.00000000 148297008.00000000 49284.69140625  4271729.00000000 3385223.00000000 
0.05300    91750592.00000000 57690284.00000000 145503072.00000000 48074.23828125  4177575.00000000 3310870.50000000 
0.05400    89998408.00000000 56599180.00000000 142737392.00000000 46886.88671875  4084786.75000000 3237580.75000000 
0.05500    88264416.00000000 55519496.00000000 140001984.00000000 45723.01953125  3993434.50000000 3165380.50000000 
0.05600    86550072.00000000 54451692.00000000 137295488.00000000 44583.06250000  3903557.25000000 3094367.00000000 
0.05700    84857488.00000000 53397036.00000000 134623760.00000000 43467.80468750  3815242.25000000 3024538.75000000 
0.05800    83187288.00000000 52355428.00000000 131985728.00000000 42377.45703125  3728467.75000000 2955953.75000000 
0.05900    81539688.00000000 51328108.00000000 129383072.00000000 41311.94921875  3643336.50000000 2888592.00000000 
0.06000    79916824.00000000 50315036.00000000 126818824.00000000 40271.80468750  3559830.75000000 2822597.75000000 
0.06100    78319072.00000000 49317376.00000000 124292784.00000000 39257.25000000  3478037.75000000 2757850.75000000 
0.06200    76746152.00000000 48335172.00000000 121807400.00000000 38268.02343750  3397913.75000000 2694478.75000000 
0.06300    75200112.00000000 47369344.00000000 119363400.00000000 37303.80859375  3319532.25000000 2632447.50000000 
0.06400    73681296.00000000 46419812.00000000 116962616.00000000 36365.27734375  3242863.50000000 2571763.75000000 
0.06500    72189824.00000000 45486856.00000000 114603496.00000000 35452.05078125  3167961.75000000 2512460.00000000 
0.06600    70726440.00000000 44571360.00000000 112287960.00000000 34563.35156250  3094784.75000000 2454539.50000000 
0.06700    69290968.00000000 43673672.00000000 110017048.00000000 33699.61328125  3023332.00000000 2397971.25000000 
0.06800    67884920.00000000 42793036.00000000 107790920.00000000 32859.65625000  2953667.75000000 2342766.00000000 
0.06900    66507188.00000000 41930084.00000000 105610984.00000000 32044.26171875  2885720.00000000 2288951.00000000 
0.07000    65158996.00000000 41085300.00000000 103476368.00000000 31251.91601562  2819493.25000000 2236484.25000000 
0.07100    63840236.00000000 40258612.00000000 101387496.00000000 30482.64453125  2754975.75000000 2185373.00000000 
0.07200    62550256.00000000 39450316.00000000 99345224.00000000 29736.39257812  2692140.25000000 2135606.75000000 
0.07300    61289200.00000000 38659976.00000000 97348816.00000000 29011.87890625  2630984.50000000 2087131.00000000 
0.07400    60058452.00000000 37887524.00000000 95398864.00000000 28308.98632812  2571497.50000000 2039967.75000000 
0.07500    58856600.00000000 37133792.00000000 93494320.00000000 27627.17187500  2513605.25000000 1994095.62500000 
0.07600    57682956.00000000 36397484.00000000 91635984.00000000 26965.62109375  2457318.25000000 1949490.25000000 
0.07700    56538720.00000000 35679144.00000000 89823176.00000000 26323.78710938  2402591.50000000 1906124.12500000 
0.07800    55423472.00000000 34979464.00000000 88054912.00000000 25701.24414062  2349389.00000000 1863947.75000000 
0.07900    54335812.00000000 34296796.00000000 86331688.00000000 25097.37304688  2297679.00000000 1822955.87500000 
0.08000    53276340.00000000 33631536.00000000 84653440.00000000 24511.23046875  2247466.25000000 1783144.25000000 
0.08100    52244972.00000000 32984428.00000000 83018408.00000000 23942.63281250  2198637.25000000 1744437.12500000 
0.08200    51239996.00000000 32353672.00000000 81425872.00000000 23390.86523438  2151200.75000000 1706850.62500000 
0.08300    50262000.00000000 31739544.00000000 79876152.00000000 22855.05664062  2105145.75000000 1670316.25000000 
0.08400    49310096.00000000 31142152.00000000 78367832.00000000 22334.75390625  2060357.75000000 1634826.37500000 
0.08500    48384164.00000000 30561146.00000000 76901016.00000000 21829.33007812  2016857.50000000 1600349.87500000 
0.08600    47483820.00000000 29995950.00000000 75473856.00000000 21338.11132812  1974587.37500000 1566844.75000000 
0.08700    46607908.00000000 29446280.00000000 74085568.00000000 20860.83007812  1933503.62500000 1534284.75000000 
0.08800    45756356.00000000 28912076.00000000 72736496.00000000 20396.62304688  1893566.87500000 1502635.75000000 
0.08900    44928204.00000000 28392558.00000000 71424824.00000000 19944.88476562  1854731.00000000 1471875.25000000 
0.09000    44123156.00000000 27887694.00000000 70149720.00000000 19505.54492188  1816986.00000000 1441955.25000000 
0.09100    43340360.00000000 27397130.00000000 68910592.00000000 19077.67773438  1780247.37500000 1412848.87500000 
0.09200    42579184.00000000 26920286.00000000 67705536.00000000 18660.78125000  1744498.87500000 1384538.00000000 
0.09300    41839476.00000000 26456876.00000000 66534956.00000000 18254.56835938  1709705.50000000 1356993.75000000 
0.09400    41120492.00000000 26006570.00000000 65396192.00000000 17858.39843750  1675828.87500000 1330152.37500000 
0.09500    40421416.00000000 25568990.00000000 64289976.00000000 17472.01953125  1642821.75000000 1304005.87500000 
0.09600    39741452.00000000 25143606.00000000 63214368.00000000 17095.09570312  1610658.87500000 1278544.00000000 
0.09700    39080236.00000000 24730316.00000000 62168656.00000000 16727.16210938  1579291.12500000 1253714.12500000 
0.09800    38436880.00000000 24328172.00000000 61151240.00000000 16367.46191406  1548698.62500000 1229497.87500000 
0.09900    37810964.00000000 23937490.00000000 60162372.00000000 16016.19726562  1518845.00000000 1205875.87500000 
0.10000    37201936.00000000 23557300.00000000 59199936.00000000 15672.70214844  1489699.37500000 1182800.75000000 
0.10100    36609444.00000000 23187492.00000000 58263284.00000000 15336.94238281  1461225.75000000 1160264.25000000 
0.10200    36031844.00000000 22827484.00000000 57351168.00000000 15008.26074219  1433392.00000000 1138244.00000000 
0.10300    35469608.00000000 22477256.00000000 56463436.00000000 14686.81738281  1406181.12500000 1116704.62500000 
0.10400    34921592.00000000 22136012.00000000 55598424.00000000 14371.92578125  1379558.50000000 1095643.12500000 
0.10500    34387544.00000000 21803646.00000000 54755228.00000000 14063.78613281  1353502.50000000 1075024.87500000 
0.10600    33866200.00000000 21479478.00000000 53933516.00000000 13761.73828125  1327980.37500000 1054821.00000000 
0.10700    33357904.00000000 21163556.00000000 53131652.00000000 13465.94433594  1302978.12500000 1035041.43750000 
0.10800    32861676.00000000 20855508.00000000 52349312.00000000 13176.17089844  1278464.25000000 1015644.81250000 
0.10900    32376920.00000000 20554732.00000000 51585132.00000000 12892.03417969  1254436.37500000 996621.43750000 
0.11000    31903260.00000000 20260846.00000000 50838984.00000000 12613.61132812  1230844.75000000 977955.25000000 
0.11100    31440138.00000000 19973696.00000000 50109676.00000000 12340.50390625  1207691.12500000 959631.25000000 
0.11200    30987100.00000000 19692994.00000000 49396080.00000000 12072.82812500  1184962.62500000 941632.75000000 
0.11300    30543492.00000000 19418360.00000000 48697984.00000000 11810.36035156  1162624.25000000 923947.31250000 
0.11400    30108998.00000000 19149570.00000000 48014288.00000000 11552.92578125  1140671.12500000 906573.12500000 
0.11500    29683450.00000000 18886262.00000000 47344476.00000000 11300.49902344  1119098.12500000 889483.18750000 
0.11600    29266082.00000000 18628098.00000000 46687828.00000000 11053.07812500  1097868.50000000 872672.81250000 
0.11700    28856480.00000000 18374916.00000000 46043616.00000000 10810.41601562  1076999.62500000 856129.43750000 
0.11800    28454458.00000000 18126570.00000000 45410828.00000000 10572.37792969  1056445.25000000 839844.50000000 
0.11900    28059260.00000000 17882394.00000000 44789812.00000000 10339.00097656  1036226.62500000 823815.12500000 
0.12000    27671326.00000000 17642452.00000000 44179192.00000000 10110.12890625  1016308.56250000 808026.50000000 
0.12100    27289468.00000000 17406726.00000000 43578912.00000000 9885.88964844   996709.18750000 792470.31250000 
0.12200    26913514.00000000 17174656.00000000 42988156.00000000 9665.92089844   977396.56250000 777152.43750000 
0.12300    26543518.00000000 16946206.00000000 42406248.00000000 9450.39843750   958375.56250000 762057.50000000 
0.12400    26178940.00000000 16721002.00000000 41833052.00000000 9239.04785156   939635.68750000 747171.06250000 
0.12500    25819360.00000000 16499009.00000000 41267824.00000000 9031.92578125   921163.62500000 732511.06250000 
0.12600    25465196.00000000 16280190.00000000 40710544.00000000 8829.07519531   902963.75000000 718045.25000000 
0.12700    25115506.00000000 16063981.00000000 40160688.00000000 8630.21191406   885028.37500000 703794.37500000 
0.12800    24770326.00000000 15850664.00000000 39617276.00000000 8435.34960938   867350.43750000 689733.25000000 
0.12900    24429224.00000000 15639793.00000000 39080756.00000000 8244.52343750   849925.06250000 675878.93750000 
0.13000    24092358.00000000 15431256.00000000 38550436.00000000 8057.58056641   832749.00000000 662213.50000000 
0.13100    23759316.00000000 15225068.00000000 38025972.00000000 7874.38720703   815815.93750000 648737.75000000 
0.13200    23429770.00000000 15021107.00000000 37507136.00000000 7695.00732422   799136.37500000 635450.18750000 
0.13300    23103824.00000000 14819145.00000000 36994072.00000000 7519.34326172   782684.00000000 622350.43750000 
0.13400    22781394.00000000 14619172.00000000 36485692.00000000 7347.34375000   766468.00000000 609432.18750000 
0.13500    22462160.00000000 14421043.00000000 35982900.00000000 7178.92041016   750497.31250000 596698.93750000 
0.13600    22145990.00000000 14224752.00000000 35484128.00000000 7013.90039062   734751.62500000 584146.56250000 
0.13700    21832816.00000000 14030054.00000000 34990252.00000000 6852.37646484   719231.56250000 571771.25000000 
0.13800    21522502.00000000 13837035.00000000 34500288.00000000 6694.25683594   703945.06250000 559569.87500000 
0.13900    21214872.00000000 13645569.00000000 34014536.00000000 6539.40234375   688882.56250000 547550.37500000 
0.14000    20910078.00000000 13455717.00000000 33533454.00000000 6387.81445312   674036.75000000 535701.31250000 
0.14100    20607986.00000000 13267332.00000000 33056004.00000000 6239.39257812   659420.56250000 524029.18750000 
0.14200    20308478.00000000 13080275.00000000 32582610.00000000 6093.99951172   645018.31250000 512523.50000000 
0.14300    20011316.00000000 12894706.00000000 32112958.00000000 5951.71435547   630840.68750000 501194.15625000 
0.14400    19716652.00000000 12710339.00000000 31646622.00000000 5812.39990234   616869.56250000 490033.78125000 
0.14500    19424586.00000000 12527488.00000000 31184158.00000000 5675.94287109   603122.81250000 479046.62500000 
0.14600    19134802.00000000 12345941.00000000 30725100.00000000 5542.35937500   589590.00000000 468223.93750000 
0.14700    18847438.00000000 12165555.00000000 30269798.00000000 5411.59228516   576266.75000000 457574.03125000 
0.14800    18562412.00000000 11986586.00000000 29817858.00000000 5283.47802734   563155.06250000 447085.09375000 
0.14900    18279468.00000000 11808827.00000000 29369398.00000000 5157.99462891   550250.50000000 436761.68750000 
0.15000    17999048.00000000 11632373.00000000 28924152.00000000 5035.13085938   537555.93750000 426609.03125000 
0.15100    17720876.00000000 11457140.00000000 28482674.00000000 4914.78173828   525065.93750000 416616.65625000 
0.15200    17445102.00000000 11283342.00000000 28044602.00000000 4796.98388672   512785.75000000 406793.93750000 
0.15300    17171626.00000000 11110701.00000000 27609896.00000000 4681.54296875   500705.96875000 397125.68750000 
0.15400    16900314.00000000 10939399.00000000 27178972.00000000 4568.52197266   488828.65625000 387624.56250000 
0.15500    16631782.00000000 10769369.00000000 26751310.00000000 4457.81494141   477151.46875000 378284.15625000 
0.15600    16365328.00000000 10600626.00000000 26327156.00000000 4349.38183594   465678.53125000 369100.81250000 
0.15700    16101136.00000000 10433349.00000000 25906760.00000000 4243.23535156   454402.93750000 360077.90625000 
0.15800    15839426.00000000 10267336.00000000 25489764.00000000 4139.22314453   443318.03125000 351212.28125000 
0.15900    15580182.00000000 10102827.00000000 25076584.00000000 4037.40600586   432436.25000000 342504.40625000 
0.16000    15323335.00000000 9939557.00000000 24667028.00000000 3937.73974609   421738.87500000 333951.03125000 
0.16100    15068967.00000000 9777913.00000000 24261316.00000000 3840.16015625   411242.21875000 325556.53125000 
0.16200    14817114.00000000 9617555.00000000 23859226.00000000 3744.59130859   400936.87500000 317313.93750000 
0.16300    14567701.00000000 9458666.00000000 23461286.00000000 3651.07983398   390818.09375000 309221.53125000 
0.16400    14320876.00000000 9301431.00000000 23067254.00000000 3559.57031250   380890.93750000 301285.78125000 
0.16500    14076855.00000000 9145604.00000000 22677270.00000000 3470.02050781   371146.21875000 293497.12500000 
0.16600    13835189.00000000 8991377.00000000 22291084.00000000 3382.41967773   361587.25000000 285855.93750000 
0.16700    13596287.00000000 8838643.00000000 21909154.00000000 3296.77563477   352213.06250000 278367.37500000 
0.16800    13359925.00000000 8687494.00000000 21531262.00000000 3212.99462891   343017.90625000 271022.53125000 
0.16900    13126607.00000000 8538123.00000000 21157728.00000000 3131.13745117   334006.59375000 263826.50000000 
0.17000    12895815.00000000 8390345.00000000 20788450.00000000 3051.13012695   325174.59375000 256772.23437500 
