# SAXS profile: number of points = 501, q_min = 0, q_max = 0.5, delta_q = 0.001
#    q    intensity 
0.00000    162231360.00000000 101202480.00000000 256270752.00000000 108922.68750000 8407507.00000000 6640160.50000000 
0.00100    162193712.00000000 101175392.00000000 256203392.00000000 108885.07812500 8404959.00000000 6638184.00000000 
0.00200    162075152.00000000 101098288.00000000 256008512.00000000 108776.10156250 8397381.00000000 6632263.00000000 
0.00300    161869600.00000000 100969904.00000000 255680384.00000000 108592.40625000 8384719.50000000 6622333.50000000 
0.00400    161576256.00000000 100789376.00000000 255220640.00000000 108337.28906250 8367086.00000000 6608482.50000000 
0.00500    161197776.00000000 100557024.00000000 254628384.00000000 108010.04687500 8344445.00000000 6590730.00000000 
0.00600    160740432.00000000 100274440.00000000 253910576.00000000 107611.76562500 8316969.00000000 6569080.00000000 
0.00700    160193280.00000000 99943128.00000000 253067344.00000000 107142.82812500 8284565.50000000 6543610.50000000 
0.00800    159572848.00000000 99563232.00000000 252095360.00000000 106605.76562500 8247381.50000000 6514423.50000000 
0.00900    158876944.00000000 99135312.00000000 250999920.00000000 106000.89843750 8205485.50000000 6481445.50000000 
0.01000    158104224.00000000 98657296.00000000 249783680.00000000 105329.25000000 8159002.50000000 6444910.50000000 
0.01100    157254560.00000000 98132520.00000000 248447664.00000000 104593.00781250 8107977.00000000 6404797.50000000 
0.01200    156324928.00000000 97561576.00000000 246992032.00000000 103794.16406250 8052571.50000000 6361235.00000000 
0.01300    155323232.00000000 96946184.00000000 245424176.00000000 102933.58593750 7992858.00000000 6314305.00000000 
0.01400    154255312.00000000 96287240.00000000 243744736.00000000 102015.11718750 7928983.50000000 6264114.50000000 
0.01500    153117872.00000000 95586376.00000000 241957376.00000000 101039.64062500 7861067.00000000 6210740.50000000 
0.01600    151911344.00000000 94842768.00000000 240063792.00000000 100009.25000000 7789320.00000000 6154327.00000000 
0.01700    150640816.00000000 94060432.00000000 238071008.00000000 98926.59375000  7713831.50000000 6094946.50000000 
0.01800    149307712.00000000 93239144.00000000 235976880.00000000 97795.04687500  7634794.50000000 6032799.00000000 
0.01900    147914848.00000000 92381376.00000000 233790240.00000000 96616.03906250  7552332.50000000 5967942.00000000 
0.02000    146464992.00000000 91487272.00000000 231513184.00000000 95391.92187500  7466601.50000000 5900548.50000000 
0.02100    144958384.00000000 90560016.00000000 229149104.00000000 94126.40625000  7377849.00000000 5830713.00000000 
0.02200    143401840.00000000 89598984.00000000 226702144.00000000 92822.08593750  7286232.00000000 5758606.00000000 
0.02300    141794672.00000000 88607656.00000000 224178224.00000000 91480.70312500  7191837.00000000 5684370.50000000 
0.02400    140142368.00000000 87586592.00000000 221581168.00000000 90106.20312500  7094920.50000000 5608149.50000000 
0.02500    138444656.00000000 86538856.00000000 218914416.00000000 88701.29687500  6995731.50000000 5530118.50000000 
0.02600    136705696.00000000 85465496.00000000 216181184.00000000 87268.80468750  6894331.50000000 5450344.00000000 
0.02700    134929376.00000000 84368472.00000000 213389712.00000000 85811.20312500  6791007.00000000 5368998.00000000 
0.02800    133117008.00000000 83248840.00000000 210541680.00000000 84331.66406250  6685879.00000000 5286253.00000000 
0.02900    131272992.00000000 82109008.00000000 207640944.00000000 82833.92187500  6579209.50000000 5202352.00000000 
0.03000    129399312.00000000 80950608.00000000 204694752.00000000 81319.53125000  6471107.50000000 5117233.50000000 
0.03100    127499352.00000000 79776712.00000000 201706544.00000000 79791.42968750  6361886.00000000 5031225.50000000 
0.03200    125575824.00000000 78587064.00000000 198680224.00000000 78252.92187500  6251549.00000000 4944357.50000000 
0.03300    123631728.00000000 77384608.00000000 195622384.00000000 76706.88281250  6140420.00000000 4856834.00000000 
0.03400    121669720.00000000 76171096.00000000 192536064.00000000 75155.25781250  6028625.00000000 4768825.50000000 
0.03500    119693976.00000000 74947616.00000000 189425600.00000000 73601.85156250  5916399.00000000 4680407.00000000 
0.03600    117705376.00000000 73714728.00000000 186296048.00000000 72047.73437500  5803810.50000000 4591711.00000000 
0.03700    115707344.00000000 72477464.00000000 183150416.00000000 70496.70312500  5691120.50000000 4502935.50000000 
0.03800    113704056.00000000 71234912.00000000 179995552.00000000 68949.98437500  5578488.50000000 4414130.50000000 
0.03900    111695888.00000000 69990632.00000000 176833072.00000000 67410.11718750  5466017.50000000 4325504.00000000 
0.04000    109687048.00000000 68744576.00000000 173668960.00000000 65879.96093750  5353875.50000000 4237161.00000000 
0.04100    107679912.00000000 67499232.00000000 170506368.00000000 64361.13281250  5242252.00000000 4149118.00000000 
0.04200    105677000.00000000 66254688.00000000 167348768.00000000 62855.94921875  5131296.00000000 4061611.75000000 
0.04300    103680056.00000000 65014516.00000000 164202752.00000000 61365.81640625  5021108.50000000 3974711.50000000 
0.04400    101692704.00000000 63779852.00000000 161068288.00000000 59892.43750000  4911851.50000000 3888530.50000000 
0.04500    99715208.00000000 62551124.00000000 157950352.00000000 58438.44531250  4803617.00000000 3803140.25000000 
0.04600    97751952.00000000 61329876.00000000 154852592.00000000 57004.16796875  4696473.00000000 3718634.00000000 
0.04700    95802864.00000000 60117500.00000000 151779648.00000000 55591.88281250  4590700.50000000 3635120.00000000 
0.04800    93871880.00000000 58915976.00000000 148733552.00000000 54202.30468750  4486178.50000000 3552650.00000000 
0.04900    91959456.00000000 57725600.00000000 145716240.00000000 52837.02734375  4383163.00000000 3471346.50000000 
0.05000    90068144.00000000 56547688.00000000 142731456.00000000 51496.57031250  4281679.50000000 3391260.00000000 
0.05100    88199224.00000000 55383204.00000000 139780016.00000000 50183.00781250  4181911.75000000 3312389.25000000 
0.05200    86354024.00000000 54233932.00000000 136867792.00000000 48895.50000000  4083746.75000000 3234913.25000000 
0.05300    84535552.00000000 53099788.00000000 133995264.00000000 47636.26562500  3987356.25000000 3158786.00000000 
0.05400    82743312.00000000 51982140.00000000 131165952.00000000 46405.08593750  3892811.50000000 3084092.75000000 
0.05500    80980344.00000000 50881664.00000000 128379424.00000000 45202.82421875  3800150.50000000 3010882.75000000 
0.05600    79246552.00000000 49799624.00000000 125639672.00000000 44029.81640625  3709404.75000000 2939165.25000000 
0.05700    77543232.00000000 48735904.00000000 122948248.00000000 42885.89843750  3620636.75000000 2868987.25000000 
0.05800    75870672.00000000 47691500.00000000 120305184.00000000 41771.90625000  3533821.75000000 2800408.00000000 
0.05900    74230680.00000000 46666972.00000000 117712864.00000000 40687.58203125  3449076.25000000 2733352.75000000 
0.06000    72624848.00000000 45662628.00000000 115172176.00000000 39633.08593750  3366324.00000000 2667917.50000000 
0.06100    71052464.00000000 44679148.00000000 112685288.00000000 38607.82031250  3285635.50000000 2604126.00000000 
0.06200    69513848.00000000 43717064.00000000 110251288.00000000 37612.14453125  3206997.75000000 2541890.75000000 
0.06300    68010672.00000000 42776524.00000000 107873448.00000000 36645.74218750  3130418.25000000 2481320.75000000 
0.06400    66541584.00000000 41856992.00000000 105549752.00000000 35708.22656250  3055870.00000000 2422325.00000000 
0.06500    65108148.00000000 40959972.00000000 103281832.00000000 34799.17187500  2983370.00000000 2364958.00000000 
0.06600    63711092.00000000 40084932.00000000 101070488.00000000 33918.14453125  2912887.00000000 2309183.00000000 
0.06700    62349936.00000000 39232032.00000000 98915392.00000000 33064.64843750  2844431.75000000 2254969.25000000 
0.06800    61023904.00000000 38401892.00000000 96816816.00000000 32238.09375000  2777933.25000000 2202342.50000000 
0.06900    59733148.00000000 37593468.00000000 94774256.00000000 31437.83593750  2713388.25000000 2151245.00000000 
0.07000    58478468.00000000 36807336.00000000 92787336.00000000 30663.24609375  2650775.75000000 2101675.75000000 
0.07100    57259188.00000000 36043368.00000000 90856952.00000000 29914.08593750  2590042.25000000 2053578.50000000 
0.07200    56074544.00000000 35300824.00000000 88981696.00000000 29188.76757812  2531178.00000000 2006990.87500000 
0.07300    54924880.00000000 34580568.00000000 87161928.00000000 28487.33398438  2474135.75000000 1961794.12500000 
0.07400    53809840.00000000 33882104.00000000 85395648.00000000 27808.57812500  2418845.00000000 1918008.87500000 
0.07500    52728240.00000000 33204764.00000000 83683984.00000000 27152.10937500  2365255.25000000 1875577.75000000 
0.07600    51680196.00000000 32548074.00000000 82024288.00000000 26516.71679688  2313385.50000000 1834478.62500000 
0.07700    50665048.00000000 31912172.00000000 80417272.00000000 25901.82226562  2263111.75000000 1794671.25000000 
0.07800    49681828.00000000 31296588.00000000 78861608.00000000 25306.69335938  2214461.00000000 1756125.12500000 
0.07900    48730484.00000000 30700878.00000000 77355152.00000000 24730.40039062  2167314.25000000 1718791.50000000 
0.08000    47809744.00000000 30124834.00000000 75898704.00000000 24172.31835938  2121651.00000000 1682624.37500000 
0.08100    46919272.00000000 29567518.00000000 74490176.00000000 23631.40039062  2077430.62500000 1647610.75000000 
0.08200    46058048.00000000 29029164.00000000 73127864.00000000 23107.42578125  2034586.25000000 1613676.25000000 
0.08300    45225856.00000000 28508688.00000000 71811216.00000000 22598.88671875  1993060.50000000 1580794.62500000 
0.08400    44421220.00000000 28006100.00000000 70539352.00000000 22105.64453125  1952817.00000000 1548932.50000000 
0.08500    43643408.00000000 27520522.00000000 69310304.00000000 21626.61523438  1913820.50000000 1518049.87500000 
0.08600    42892336.00000000 27051666.00000000 68123304.00000000 21161.36328125  1875981.00000000 1488097.50000000 
0.08700    42166244.00000000 26598932.00000000 66976916.00000000 20709.23242188  1839249.00000000 1459032.37500000 
0.08800    41464940.00000000 26161784.00000000 65868984.00000000 20269.47265625  1803619.62500000 1430829.25000000 
0.08900    40786744.00000000 25739654.00000000 64799180.00000000 19841.30664062  1769007.37500000 1403442.37500000 
0.09000    40131920.00000000 25332220.00000000 63765832.00000000 19424.39062500  1735385.50000000 1376829.50000000 
0.09100    39498756.00000000 24938726.00000000 62767520.00000000 19018.08203125  1702687.37500000 1350970.62500000 
0.09200    38886384.00000000 24558606.00000000 61802256.00000000 18621.63671875  1670876.25000000 1325821.00000000 
0.09300    38294364.00000000 24191274.00000000 60869280.00000000 18234.85742188  1639939.87500000 1301342.37500000 
0.09400    37721808.00000000 23836552.00000000 59967664.00000000 17857.12695312  1609792.75000000 1277516.50000000 
0.09500    37167540.00000000 23493438.00000000 59095256.00000000 17488.06835938  1580420.87500000 1254298.00000000 
0.09600    36630892.00000000 23161660.00000000 58251644.00000000 17126.92968750  1551778.50000000 1231653.25000000 
0.09700    36110780.00000000 22840744.00000000 57434128.00000000 16773.95312500  1523831.00000000 1209566.37500000 
0.09800    35607352.00000000 22530100.00000000 56642664.00000000 16428.30664062  1496545.00000000 1188009.12500000 
0.09900    35118912.00000000 22228804.00000000 55875332.00000000 16089.64843750  1469886.25000000 1166943.25000000 
0.10000    34644640.00000000 21937048.00000000 55131016.00000000 15757.69531250  1443805.62500000 1146349.50000000 
0.10100    34183796.00000000 21653870.00000000 54408544.00000000 15432.34375000  1418292.50000000 1126204.37500000 
0.10200    33735884.00000000 21379104.00000000 53706688.00000000 15113.22851562  1393346.37500000 1106484.37500000 
0.10300    33300640.00000000 21111964.00000000 53023824.00000000 14799.98632812  1368867.62500000 1087163.00000000 
0.10400    32876638.00000000 20852212.00000000 52360220.00000000 14492.56152344  1344887.75000000 1068229.50000000 
0.10500    32463298.00000000 20599214.00000000 51712992.00000000 14190.67968750  1321370.50000000 1049675.12500000 
0.10600    32059986.00000000 20352568.00000000 51082412.00000000 13894.17968750  1298282.75000000 1031439.68750000 
0.10700    31666500.00000000 20112106.00000000 50466792.00000000 13602.89453125  1275612.75000000 1013544.75000000 
0.10800    31281552.00000000 19877336.00000000 49864844.00000000 13316.70312500  1253353.37500000 995963.25000000 
0.10900    30904978.00000000 19647618.00000000 49276464.00000000 13035.38769531  1231456.75000000 978681.87500000 
0.11000    30536024.00000000 19422700.00000000 48700028.00000000 12758.99121094  1209918.25000000 961685.62500000 
0.11100    30174352.00000000 19202402.00000000 48135236.00000000 12487.26074219  1188744.87500000 944971.06250000 
0.11200    29819386.00000000 18986344.00000000 47581132.00000000 12220.05664062  1167889.75000000 928507.25000000 
0.11300    29470528.00000000 18774060.00000000 47036448.00000000 11957.50292969  1147356.87500000 912294.06250000 
0.11400    29127336.00000000 18565318.00000000 46500720.00000000 11699.53417969  1127135.37500000 896326.25000000 
0.11500    28789356.00000000 18359870.00000000 45973308.00000000 11445.88574219  1107215.75000000 880580.56250000 
0.11600    28456542.00000000 18157114.00000000 45453464.00000000 11196.49316406  1087570.75000000 865067.00000000 
0.11700    28127930.00000000 17957346.00000000 44940736.00000000 10951.63183594  1068205.25000000 849771.68750000 
0.11800    27803390.00000000 17759910.00000000 44434256.00000000 10710.80761719  1049095.25000000 834674.93750000 
0.11900    27482646.00000000 17564654.00000000 43933032.00000000 10474.23535156  1030246.93750000 819782.75000000 
0.12000    27165146.00000000 17371342.00000000 43437340.00000000 10241.85937500  1011651.75000000 805090.06250000 
0.12100    26851078.00000000 17179920.00000000 42946208.00000000 10013.59277344  993314.31250000 790582.50000000 
0.12200    26539640.00000000 16990018.00000000 42459860.00000000 9789.38671875   975202.18750000 776258.12500000 
0.12300    26230754.00000000 16801514.00000000 41976808.00000000 9569.32519531   957325.06250000 762113.37500000 
0.12400    25924172.00000000 16614232.00000000 41497452.00000000 9353.23144531   939685.00000000 748150.87500000 
0.12500    25619666.00000000 16428098.00000000 41021104.00000000 9141.05566406   922261.56250000 734358.31250000 
0.12600    25317234.00000000 16242886.00000000 40547392.00000000 8932.90136719   905060.62500000 720741.75000000 
0.12700    25016326.00000000 16058697.00000000 40076324.00000000 8728.62597656   888076.37500000 707286.43750000 
0.12800    24717138.00000000 15874980.00000000 39607712.00000000 8528.20605469   871296.00000000 693998.87500000 
0.12900    24419412.00000000 15692055.00000000 39140540.00000000 8331.58496094   854741.43750000 680861.06250000 
0.13000    24122822.00000000 15509753.00000000 38674972.00000000 8138.89160156   838381.18750000 667890.37500000 
0.13100    23827356.00000000 15327831.00000000 38211328.00000000 7949.79296875   822228.75000000 655072.87500000 
0.13200    23533164.00000000 15146286.00000000 37748596.00000000 7764.53076172   806275.37500000 642415.81250000 
0.13300    23239838.00000000 14965216.00000000 37287612.00000000 7582.80468750   790523.18750000 629907.62500000 
0.13400    22947430.00000000 14784363.00000000 36827508.00000000 7404.69970703   774966.00000000 617549.75000000 
0.13500    22656048.00000000 14603848.00000000 36368340.00000000 7230.24755859   759597.68750000 605344.68750000 
0.13600    22365468.00000000 14423540.00000000 35910472.00000000 7059.20263672   744426.62500000 593285.81250000 
0.13700    22075696.00000000 14243524.00000000 35453568.00000000 6891.66113281   729452.25000000 581372.00000000 
0.13800    21786630.00000000 14063589.00000000 34996916.00000000 6727.51416016   714662.25000000 569602.87500000 
0.13900    21498266.00000000 13883933.00000000 34542228.00000000 6566.74414062   700056.75000000 557983.87500000 
0.14000    21210820.00000000 13704518.00000000 34087568.00000000 6409.24218750   685646.25000000 546505.18750000 
0.14100    20924206.00000000 13525361.00000000 33634500.00000000 6255.01904297   671410.75000000 535174.50000000 
0.14200    20638266.00000000 13346444.00000000 33181690.00000000 6104.00585938   657369.81250000 523978.09375000 
0.14300    20353474.00000000 13167782.00000000 32730452.00000000 5956.11669922   643501.43750000 512928.34375000 
0.14400    20069400.00000000 12989375.00000000 32280048.00000000 5811.25292969   629816.18750000 502016.71875000 
0.14500    19786160.00000000 12811422.00000000 31830822.00000000 5669.50292969   616314.06250000 491242.28125000 
0.14600    19504096.00000000 12633626.00000000 31383070.00000000 5530.80371094   602997.68750000 480614.50000000 
0.14700    19223006.00000000 12456468.00000000 30936532.00000000 5394.90136719   589859.06250000 470124.46875000 
0.14800    18942812.00000000 12279708.00000000 30491456.00000000 5261.95605469   576891.81250000 459765.50000000 
0.14900    18663892.00000000 12103289.00000000 30047770.00000000 5131.85156250   564107.56250000 449550.40625000 
0.15000    18386298.00000000 11927513.00000000 29605822.00000000 5004.49658203   551497.87500000 439473.25000000 
0.15100    18109982.00000000 11752379.00000000 29165736.00000000 4879.89013672   539068.43750000 429529.68750000 
0.15200    17834890.00000000 11577887.00000000 28727524.00000000 4757.95751953   526815.87500000 419732.56250000 
0.15300    17561556.00000000 11404019.00000000 28291454.00000000 4638.72656250   514738.93750000 410066.37500000 
0.15400    17289592.00000000 11231078.00000000 27857616.00000000 4522.10595703   502837.43750000 400539.68750000 
0.15500    17019096.00000000 11058971.00000000 27426012.00000000 4408.02392578   491106.75000000 391150.15625000 
0.15600    16750452.00000000 10887559.00000000 26996954.00000000 4296.41845703   479555.65625000 381894.09375000 
0.15700    16483865.00000000 10717272.00000000 26570542.00000000 4187.36523438   468178.00000000 372780.59375000 
0.15800    16218764.00000000 10547956.00000000 26146746.00000000 4080.75024414   456974.81250000 363800.00000000 
0.15900    15955708.00000000 10379724.00000000 25726022.00000000 3976.55078125   445949.12500000 354960.93750000 
0.16000    15694575.00000000 10212656.00000000 25308230.00000000 3874.66455078   435090.84375000 346255.43750000 
0.16100    15435720.00000000 10046727.00000000 24893686.00000000 3775.22314453   424416.43750000 337691.75000000 
0.16200    15178996.00000000 9882084.00000000 24482612.00000000 3678.06372070   413908.68750000 329264.06250000 
0.16300    14924560.00000000 9718822.00000000 24075006.00000000 3583.16308594   403577.93750000 320972.03125000 
0.16400    14672517.00000000 9556860.00000000 23670894.00000000 3490.55029297   393422.50000000 312821.53125000 
0.16500    14422777.00000000 9396326.00000000 23270264.00000000 3400.14770508   383441.37500000 304809.31250000 
0.16600    14175630.00000000 9237269.00000000 22873818.00000000 3311.97534180   373633.81250000 296932.75000000 
0.16700    13931020.00000000 9079823.00000000 22481288.00000000 3225.94042969   363998.03125000 289196.06250000 
0.16800    13689068.00000000 8923757.00000000 22092606.00000000 3142.02807617   354536.03125000 281595.34375000 
0.16900    13449802.00000000 8769587.00000000 21708540.00000000 3060.24780273   345253.31250000 274136.56250000 
0.17000    13213296.00000000 8616881.00000000 21328530.00000000 2980.55786133   336137.71875000 266811.93750000 
