# SAXS profile: number of points = 501, q_min = 0, q_max = 0.5, delta_q = 0.001
#    q    intensity 
0.00000    162238528.00000000 101202640.00000000 256270400.00000000 103062.90625000 8178214.50000000 6459132.00000000 
0.00100    162206928.00000000 101181912.00000000 256219024.00000000 103037.54687500 8176377.50000000 6457669.00000000 
0.00200    162109568.00000000 101120528.00000000 256064112.00000000 102961.39843750 8170842.00000000 6453336.50000000 
0.00300    161946688.00000000 101018304.00000000 255806512.00000000 102834.53906250 8161666.50000000 6446084.00000000 
0.00400    161716224.00000000 100876128.00000000 255444848.00000000 102657.89843750 8148835.50000000 6435992.00000000 
0.00500    161421968.00000000 100692928.00000000 254979600.00000000 102431.41406250 8132307.00000000 6422998.50000000 
0.00600    161060688.00000000 100470096.00000000 254413408.00000000 102154.85156250 8112248.50000000 6407178.50000000 
0.00700    160635680.00000000 100207304.00000000 253745360.00000000 101828.35156250 8088555.00000000 6388512.00000000 
0.00800    160145984.00000000 99905224.00000000 252977680.00000000 101454.21875000 8061310.50000000 6367078.00000000 
0.00900    159593888.00000000 99563248.00000000 252112112.00000000 101031.65625000 8030550.00000000 6342881.50000000 
0.01000    158980704.00000000 99184192.00000000 251145888.00000000 100561.54687500 7996367.00000000 6315945.00000000 
0.01100    158307984.00000000 98766408.00000000 250085664.00000000 100044.56250000 7958735.50000000 6286300.50000000 
0.01200    157574688.00000000 98312200.00000000 248927536.00000000 99481.68750000  7917739.00000000 6254006.00000000 
0.01300    156780000.00000000 97819008.00000000 247676912.00000000 98873.31250000  7873439.50000000 6219143.00000000 
0.01400    155924304.00000000 97290584.00000000 246333488.00000000 98221.40625000  7825896.00000000 6181691.50000000 
0.01500    155014176.00000000 96726688.00000000 244900672.00000000 97525.56250000  7775198.50000000 6141782.50000000 
0.01600    154049024.00000000 96127648.00000000 243379104.00000000 96787.73437500  7721399.00000000 6099380.50000000 
0.01700    153027024.00000000 95494640.00000000 241771824.00000000 96009.71093750  7664545.00000000 6054640.50000000 
0.01800    151951664.00000000 94828632.00000000 240078864.00000000 95190.60937500  7604802.50000000 6007543.50000000 
0.01900    150824736.00000000 94130488.00000000 238303936.00000000 94333.57812500  7542133.00000000 5958216.50000000 
0.02000    149646720.00000000 93400928.00000000 236451072.00000000 93439.23437500  7476732.50000000 5906663.50000000 
0.02100    148420080.00000000 92640720.00000000 234519040.00000000 92508.68750000  7408629.50000000 5853043.00000000 
0.02200    147145824.00000000 91851376.00000000 232512688.00000000 91543.28906250  7337956.50000000 5797380.00000000 
0.02300    145825536.00000000 91032832.00000000 230434368.00000000 90544.39062500  7264762.50000000 5739727.50000000 
0.02400    144460224.00000000 90187664.00000000 228284864.00000000 89514.21093750  7189193.50000000 5680199.50000000 
0.02500    143053392.00000000 89316296.00000000 226070400.00000000 88453.03906250  7111300.00000000 5618864.50000000 
0.02600    141606688.00000000 88418592.00000000 223790512.00000000 87363.40625000  7031252.50000000 5555804.00000000 
0.02700    140119232.00000000 87497456.00000000 221450896.00000000 86246.21875000  6949135.00000000 5491129.00000000 
0.02800    138596384.00000000 86553392.00000000 219052048.00000000 85103.85156250  6864982.50000000 5424856.00000000 
0.02900    137037008.00000000 85587616.00000000 216597120.00000000 83936.44531250  6779009.50000000 5357143.50000000 
0.03000    135444912.00000000 84600480.00000000 214090160.00000000 82746.97656250  6691268.50000000 5288000.50000000 
0.03100    133821328.00000000 83594672.00000000 211534496.00000000 81535.68750000  6601879.50000000 5217604.00000000 
0.03200    132168648.00000000 82569864.00000000 208931552.00000000 80306.28906250  6510999.00000000 5145970.50000000 
0.03300    130488440.00000000 81528552.00000000 206286016.00000000 79058.50000000  6418655.00000000 5073227.50000000 
0.03400    128782616.00000000 80471264.00000000 203600320.00000000 77794.51562500  6325033.50000000 4999480.00000000 
0.03500    127053144.00000000 79398896.00000000 200876096.00000000 76516.16406250  6230206.50000000 4924790.50000000 
0.03600    125302192.00000000 78313816.00000000 198119824.00000000 75224.43750000  6134329.50000000 4849218.00000000 
0.03700    123532288.00000000 77216256.00000000 195332576.00000000 73921.96093750  6037494.00000000 4772917.00000000 
0.03800    121744104.00000000 76108016.00000000 192517024.00000000 72609.67187500  5939781.50000000 4695935.50000000 
0.03900    119940952.00000000 74989720.00000000 189676112.00000000 71288.96093750  5841346.00000000 4618394.00000000 
0.04000    118123456.00000000 73863296.00000000 186814688.00000000 69962.32812500  5742310.50000000 4540346.00000000 
0.04100    116295504.00000000 72729984.00000000 183934992.00000000 68630.92187500  5642773.00000000 4461881.50000000 
0.04200    114456752.00000000 71590256.00000000 181039760.00000000 67295.28125000  5542828.00000000 4383129.50000000 
0.04300    112610328.00000000 70445632.00000000 178132848.00000000 65958.43750000  5442572.00000000 4304128.00000000 
0.04400    110758936.00000000 69297088.00000000 175215536.00000000 64620.75000000  5342122.00000000 4224986.50000000 
0.04500    108902920.00000000 68146248.00000000 172292864.00000000 63284.25390625  5241623.00000000 4145746.50000000 
0.04600    107044856.00000000 66993392.00000000 169365824.00000000 61950.04296875  5141135.50000000 4066537.50000000 
0.04700    105186256.00000000 65841088.00000000 166438928.00000000 60619.73828125  5040747.00000000 3987423.25000000 
0.04800    103329784.00000000 64689292.00000000 163514112.00000000 59294.42187500  4940602.50000000 3908497.00000000 
0.04900    101476112.00000000 63539340.00000000 160594128.00000000 57975.83203125  4840788.50000000 3829799.50000000 
0.05000    99627168.00000000 62392708.00000000 157681760.00000000 56664.57421875  4741377.50000000 3751414.25000000 
0.05100    97785016.00000000 61249784.00000000 154780304.00000000 55362.44921875  4642440.50000000 3673443.75000000 
0.05200    95950528.00000000 60112052.00000000 151890368.00000000 54070.20703125  4544075.50000000 3595906.50000000 
0.05300    94125800.00000000 58980356.00000000 149016384.00000000 52789.37500000  4446419.00000000 3518909.50000000 
0.05400    92312888.00000000 57855516.00000000 146160000.00000000 51520.72265625  4349536.50000000 3442488.25000000 
0.05500    90513160.00000000 56738396.00000000 143322336.00000000 50265.14062500  4253443.00000000 3366741.25000000 
0.05600    88726880.00000000 55629928.00000000 140507680.00000000 49023.98437500  4158245.75000000 3291683.25000000 
0.05700    86955872.00000000 54530836.00000000 137717584.00000000 47798.18750000  4064056.75000000 3217384.50000000 
0.05800    85201400.00000000 53442648.00000000 134954704.00000000 46588.23046875  3970897.75000000 3143922.00000000 
0.05900    83465464.00000000 52365276.00000000 132220616.00000000 45394.94531250  3878834.25000000 3071298.25000000 
0.06000    81748840.00000000 51299692.00000000 129515592.00000000 44219.39453125  3787947.00000000 2999613.00000000 
0.06100    80052536.00000000 50246480.00000000 126842080.00000000 43062.27343750  3698273.00000000 2928898.50000000 
0.06200    78377208.00000000 49207092.00000000 124202392.00000000 41923.86718750  3609890.25000000 2859173.25000000 
0.06300    76724256.00000000 48181024.00000000 121598216.00000000 40805.18750000  3522842.50000000 2790503.75000000 
0.06400    75094736.00000000 47169588.00000000 119029704.00000000 39706.43359375  3437130.75000000 2722917.25000000 
0.06500    73489488.00000000 46172860.00000000 116500552.00000000 38628.23437500  3352861.75000000 2656424.50000000 
0.06600    71909264.00000000 45192204.00000000 114010592.00000000 37571.33203125  3270049.25000000 2591074.25000000 
0.06700    70355360.00000000 44226968.00000000 111560488.00000000 36535.63671875  3188718.00000000 2526890.50000000 
0.06800    68827456.00000000 43278620.00000000 109152896.00000000 35521.69140625  3108901.75000000 2463915.75000000 
0.06900    67326440.00000000 42346596.00000000 106787712.00000000 34529.73437500  3030643.25000000 2402152.50000000 
0.07000    65853472.00000000 41431784.00000000 104466016.00000000 33560.10546875  2953943.25000000 2341601.50000000 
0.07100    64408608.00000000 40534600.00000000 102188592.00000000 32612.80859375  2878828.50000000 2282315.00000000 
0.07200    62992216.00000000 39655020.00000000 99956696.00000000 31688.23046875  2805333.25000000 2224321.00000000 
0.07300    61605016.00000000 38793340.00000000 97770288.00000000 30786.10156250  2733474.75000000 2167576.00000000 
0.07400    60247516.00000000 37950408.00000000 95629840.00000000 29906.86914062  2663213.25000000 2112135.50000000 
0.07500    58918880.00000000 37125500.00000000 93535968.00000000 29050.14648438  2594611.75000000 2057961.00000000 
0.07600    57620536.00000000 36319184.00000000 91488720.00000000 28216.20312500  2527649.75000000 2005103.87500000 
0.07700    56351892.00000000 35530964.00000000 89489680.00000000 27404.83593750  2462355.75000000 1953519.75000000 
0.07800    55113256.00000000 34762032.00000000 87537280.00000000 26615.77539062  2398678.75000000 1903238.12500000 
0.07900    53905004.00000000 34011016.00000000 85632344.00000000 25849.04296875  2336642.75000000 1854243.00000000 
0.08000    52726788.00000000 33279326.00000000 83775008.00000000 25104.61132812  2276234.50000000 1806530.50000000 
0.08100    51578964.00000000 32565864.00000000 81964664.00000000 24381.87304688  2217453.75000000 1760109.00000000 
0.08200    50460408.00000000 31871350.00000000 80201664.00000000 23680.69140625  2160267.25000000 1714942.62500000 
0.08300    49371696.00000000 31194806.00000000 78485192.00000000 23000.97656250  2104718.50000000 1671026.62500000 
0.08400    48312884.00000000 30537018.00000000 76816488.00000000 22342.11914062  2050708.50000000 1628356.25000000 
0.08500    47283472.00000000 29897346.00000000 75192608.00000000 21703.87890625  1998256.62500000 1586918.37500000 
0.08600    46282580.00000000 29275552.00000000 73615312.00000000 21086.02929688  1947339.75000000 1546673.75000000 
0.08700    45310716.00000000 28671666.00000000 72082512.00000000 20488.16210938  1897944.12500000 1507633.37500000 
0.08800    44366848.00000000 28085468.00000000 70594856.00000000 19909.51562500  1850026.12500000 1469756.50000000 
0.08900    43451372.00000000 27516548.00000000 69151376.00000000 19350.07226562  1803567.50000000 1433032.37500000 
0.09000    42563016.00000000 26964682.00000000 67750696.00000000 18809.36523438  1758549.12500000 1397430.62500000 
0.09100    41702100.00000000 26429428.00000000 66392856.00000000 18286.61132812  1714914.12500000 1362939.75000000 
0.09200    40867156.00000000 25910968.00000000 65076792.00000000 17781.54882812  1672661.50000000 1329534.62500000 
0.09300    40058744.00000000 25408486.00000000 63802160.00000000 17293.81250000  1631754.25000000 1297172.50000000 
0.09400    39275336.00000000 24921786.00000000 62567004.00000000 16822.64453125  1592138.62500000 1265836.50000000 
0.09500    38517084.00000000 24450664.00000000 61371132.00000000 16367.81152344  1553795.50000000 1235508.00000000 
0.09600    37782948.00000000 23994420.00000000 60213768.00000000 15928.53515625  1516694.62500000 1206159.25000000 
0.09700    37072676.00000000 23552912.00000000 59093652.00000000 15504.51855469  1480792.00000000 1177752.87500000 
0.09800    36385604.00000000 23125862.00000000 58009784.00000000 15095.19335938  1446056.12500000 1150266.50000000 
0.09900    35720740.00000000 22712702.00000000 56961304.00000000 14700.11816406  1412451.50000000 1123671.00000000 
0.10000    35077548.00000000 22312992.00000000 55947444.00000000 14318.52441406  1379933.00000000 1097937.62500000 
0.10100    34455408.00000000 21926294.00000000 54966240.00000000 13950.10253906  1348464.50000000 1073031.25000000 
0.10200    33853328.00000000 21552414.00000000 54017032.00000000 13594.36523438  1318035.50000000 1048933.75000000 
0.10300    33271260.00000000 21190652.00000000 53099564.00000000 13250.73144531  1288577.87500000 1025600.62500000 
0.10400    32708142.00000000 20840832.00000000 52211344.00000000 12918.87207031  1260069.50000000 1003025.25000000 
0.10500    32163442.00000000 20502346.00000000 51352524.00000000 12598.01953125  1232466.00000000 981172.43750000 
0.10600    31636232.00000000 20174690.00000000 50521148.00000000 12287.94921875  1205730.75000000 959991.87500000 
0.10700    31126298.00000000 19857612.00000000 49716848.00000000 11988.10351562  1179835.00000000 939485.12500000 
0.10800    30632356.00000000 19550668.00000000 48937624.00000000 11697.96191406  1154752.87500000 919612.25000000 
0.10900    30154010.00000000 19253256.00000000 48183164.00000000 11417.15039062  1130430.75000000 900334.68750000 
0.11000    29690580.00000000 18965348.00000000 47452628.00000000 11145.18750000  1106843.37500000 881638.62500000 
0.11100    29241352.00000000 18685996.00000000 46744268.00000000 10881.72265625  1083952.00000000 863500.62500000 
0.11200    28805756.00000000 18415044.00000000 46056912.00000000 10626.30273438  1061729.12500000 845887.81250000 
0.11300    28383062.00000000 18152272.00000000 45390016.00000000 10378.52539062  1040144.31250000 828772.00000000 
0.11400    27972344.00000000 17897054.00000000 44742436.00000000 10138.04101562  1019163.43750000 812140.56250000 
0.11500    27573582.00000000 17648914.00000000 44113232.00000000 9904.49023438   998756.12500000 795960.68750000 
0.11600    27185644.00000000 17407712.00000000 43501396.00000000 9677.44042969   978905.06250000 780209.00000000 
0.11700    26808320.00000000 17172936.00000000 42905996.00000000 9456.61914062   959565.18750000 764869.18750000 
0.11800    26440560.00000000 16944136.00000000 42325584.00000000 9241.67285156   940711.62500000 749925.31250000 
0.11900    26082012.00000000 16721032.00000000 41759772.00000000 9032.37695312   922326.81250000 735333.31250000 
0.12000    25732142.00000000 16503336.00000000 41207992.00000000 8828.39550781   904384.06250000 721089.50000000 
0.12100    25390636.00000000 16290682.00000000 40668624.00000000 8629.44335938   886859.06250000 707187.18750000 
0.12200    25056690.00000000 16082747.00000000 40141336.00000000 8435.21972656   869720.56250000 693585.87500000 
0.12300    24729882.00000000 15879182.00000000 39625492.00000000 8245.54687500   852964.68750000 680286.68750000 
0.12400    24409528.00000000 15679590.00000000 39119748.00000000 8060.21240234   836550.87500000 667253.37500000 
0.12500    24095540.00000000 15483846.00000000 38623748.00000000 7878.91601562   820477.25000000 654488.62500000 
0.12600    23787460.00000000 15291819.00000000 38136980.00000000 7701.59423828   804711.37500000 641969.68750000 
0.12700    23484324.00000000 15102815.00000000 37658432.00000000 7527.89501953   789248.12500000 629689.75000000 
0.12800    23186390.00000000 14916889.00000000 37187644.00000000 7357.76806641   774059.37500000 617626.50000000 
0.12900    22893032.00000000 14733771.00000000 36723824.00000000 7191.05224609   759138.68750000 605773.62500000 
0.13000    22603684.00000000 14553215.00000000 36266556.00000000 7027.55615234   744472.81250000 594120.75000000 
0.13100    22318224.00000000 14374901.00000000 35815516.00000000 6867.13085938   730041.56250000 582650.25000000 
0.13200    22036482.00000000 14198719.00000000 35369900.00000000 6709.76904297   715843.43750000 571363.25000000 
0.13300    21758032.00000000 14024604.00000000 34929168.00000000 6555.24853516   701856.93750000 560243.87500000 
0.13400    21482408.00000000 13852182.00000000 34493048.00000000 6403.50390625   688075.37500000 549294.37500000 
0.13500    21209578.00000000 13681465.00000000 34061444.00000000 6254.56005859   674490.12500000 538490.68750000 
0.13600    20939206.00000000 13512106.00000000 33633724.00000000 6108.13818359   661099.18750000 527838.31250000 
0.13700    20671106.00000000 13344172.00000000 33208998.00000000 5964.31542969   647890.18750000 517330.03125000 
0.13800    20405262.00000000 13177494.00000000 32787806.00000000 5823.02734375   634852.50000000 506958.71875000 
0.13900    20141242.00000000 13011927.00000000 32369570.00000000 5684.17773438   621981.93750000 496723.15625000 
0.14000    19879000.00000000 12847278.00000000 31954024.00000000 5547.74511719   609284.43750000 486612.84375000 
0.14100    19618206.00000000 12683579.00000000 31540720.00000000 5413.67529297   596745.00000000 476632.25000000 
0.14200    19359186.00000000 12520694.00000000 31129848.00000000 5281.98486328   584360.43750000 466775.09375000 
0.14300    19101472.00000000 12358583.00000000 30721060.00000000 5152.64160156   572130.06250000 457035.62500000 
0.14400    18845112.00000000 12197260.00000000 30314132.00000000 5025.57373047   560050.12500000 447413.71875000 
0.14500    18589870.00000000 12036574.00000000 29909168.00000000 4900.81982422   548121.56250000 437912.75000000 
0.14600    18335924.00000000 11876604.00000000 29505872.00000000 4778.35107422   536343.50000000 428529.81250000 
0.14700    18083054.00000000 11717189.00000000 29104398.00000000 4658.25146484   524715.31250000 419262.37500000 
0.14800    17831234.00000000 11558301.00000000 28704344.00000000 4540.40380859   513234.37500000 410108.65625000 
0.14900    17580492.00000000 11400035.00000000 28305954.00000000 4424.79296875   501897.65625000 401069.96875000 
0.15000    17330902.00000000 11242355.00000000 27909006.00000000 4311.52587891   490713.50000000 392149.09375000 
0.15100    17082334.00000000 11085248.00000000 27514044.00000000 4200.52001953   479677.21875000 383345.21875000 
0.15200    16834970.00000000 10928735.00000000 27120328.00000000 4091.87841797   468790.93750000 374660.43750000 
0.15300    16588668.00000000 10772857.00000000 26728362.00000000 3985.49853516   458056.21875000 366091.84375000 
0.15400    16343494.00000000 10617539.00000000 26337936.00000000 3881.46069336   447469.46875000 357638.87500000 
0.15500    16099482.00000000 10462893.00000000 25949402.00000000 3779.75463867   437043.71875000 349309.81250000 
0.15600    15856733.00000000 10308844.00000000 25562556.00000000 3680.35888672   426768.28125000 341101.31250000 
0.15700    15615331.00000000 10155623.00000000 25178054.00000000 3583.30859375   416652.59375000 333018.50000000 
0.15800    15375110.00000000 10003031.00000000 24795194.00000000 3488.56054688   406694.96875000 325058.50000000 
0.15900    15136480.00000000 9851351.00000000 24414494.00000000 3396.19482422   396897.96875000 317223.15625000 
0.16000    14899193.00000000 9700435.00000000 24036020.00000000 3306.15307617   387262.59375000 309514.62500000 
0.16100    14663663.00000000 9550455.00000000 23660104.00000000 3218.46142578   377794.71875000 301940.46875000 
0.16200    14429678.00000000 9401327.00000000 23286574.00000000 3133.12841797   368489.90625000 294490.28125000 
0.16300    14197389.00000000 9253268.00000000 22915530.00000000 3050.08959961   359353.40625000 287174.78125000 
0.16400    13966936.00000000 9106235.00000000 22547304.00000000 2969.42553711   350387.84375000 279993.53125000 
0.16500    13738319.00000000 8960276.00000000 22181926.00000000 2891.08300781   341592.71875000 272941.18750000 
0.16600    13511723.00000000 8815484.00000000 21819718.00000000 2815.01171875   332968.46875000 266027.37500000 
0.16700    13287121.00000000 8671729.00000000 21460438.00000000 2741.24560547   324516.00000000 259248.17187500 
0.16800    13064633.00000000 8529384.00000000 21104400.00000000 2669.74023438   316238.12500000 252604.46875000 
0.16900    12844442.00000000 8388286.50000000 20751690.00000000 2600.55688477   308136.06250000 246100.01562500 
0.17000    12626501.00000000 8248585.00000000 20402892.00000000 2533.55883789   300209.03125000 239732.40625000 
