# SAXS profile: number of points = 501, q_min = 0, q_max = 0.5, delta_q = 0.001
#    q    intensity 
0.00000    162237744.00000000 101201696.00000000 256271040.00000000 94219.46093750  7819456.00000000 6175817.00000000 
0.00100    162214816.00000000 101187128.00000000 256234608.00000000 94200.33593750  7818080.00000000 6174729.50000000 
0.00200    162143632.00000000 101142640.00000000 256120448.00000000 94143.32812500  7813941.50000000 6171462.50000000 
0.00300    162024704.00000000 101068752.00000000 255931904.00000000 94047.88281250  7807065.50000000 6166066.00000000 
0.00400    161856288.00000000 100965984.00000000 255669136.00000000 93914.50000000  7797368.00000000 6158490.50000000 
0.00500    161638960.00000000 100833216.00000000 255329808.00000000 93743.71875000  7784954.50000000 6148743.50000000 
0.00600    161373392.00000000 100671352.00000000 254915856.00000000 93535.32812500  7769814.00000000 6136894.00000000 
0.00700    161060192.00000000 100480504.00000000 254427216.00000000 93289.58593750  7751981.00000000 6122895.00000000 
0.00800    160702304.00000000 100260160.00000000 253865744.00000000 93006.59375000  7731411.00000000 6106768.00000000 
0.00900    160295104.00000000 100011800.00000000 253231184.00000000 92686.87500000  7708171.00000000 6088586.00000000 
0.01000    159842048.00000000 99735552.00000000 252524496.00000000 92330.89843750  7682298.00000000 6068281.50000000 
0.01100    159342000.00000000 99430960.00000000 251743840.00000000 91939.18750000  7653787.00000000 6045956.00000000 
0.01200    158797328.00000000 99098104.00000000 250892016.00000000 91511.77343750  7622673.00000000 6021591.00000000 
0.01300    158209856.00000000 98737856.00000000 249969744.00000000 91049.85156250  7589028.50000000 5995220.00000000 
0.01400    157577232.00000000 98350456.00000000 248978288.00000000 90553.03125000  7552832.00000000 5966852.50000000 
0.01500    156899184.00000000 97935472.00000000 247917120.00000000 90022.39062500  7514174.00000000 5936548.50000000 
0.01600    156177248.00000000 97493640.00000000 246788752.00000000 89458.91406250  7473038.50000000 5904283.50000000 
0.01700    155412592.00000000 97026216.00000000 245594208.00000000 88862.30468750  7429493.00000000 5870159.00000000 
0.01800    154606416.00000000 96533048.00000000 244332256.00000000 88234.27343750  7383599.00000000 5834190.00000000 
0.01900    153758624.00000000 96013960.00000000 243006320.00000000 87574.67187500  7335374.50000000 5796382.00000000 
0.02000    152870512.00000000 95470416.00000000 241617440.00000000 86885.29687500  7284886.50000000 5756805.00000000 
0.02100    151943152.00000000 94903304.00000000 240164976.00000000 86165.73437500  7232204.00000000 5715487.00000000 
0.02200    150976624.00000000 94311080.00000000 238652192.00000000 85417.38281250  7177336.00000000 5672486.50000000 
0.02300    149971648.00000000 93696320.00000000 237080416.00000000 84641.12500000  7120370.50000000 5627817.50000000 
0.02400    148930560.00000000 93058104.00000000 235449168.00000000 83837.97656250  7061364.50000000 5581533.00000000 
0.02500    147852240.00000000 92398336.00000000 233762624.00000000 83008.50000000  7000344.50000000 5533683.00000000 
0.02600    146738320.00000000 91716016.00000000 232018880.00000000 82153.59375000  6937401.00000000 5484309.00000000 
0.02700    145591312.00000000 91013216.00000000 230222224.00000000 81274.47656250  6872611.00000000 5433506.00000000 
0.02800    144410064.00000000 90289648.00000000 228374176.00000000 80371.70312500  6805982.50000000 5381212.00000000 
0.02900    143196384.00000000 89546080.00000000 226474160.00000000 79446.71093750  6737658.00000000 5327615.00000000 
0.03000    141951856.00000000 88783024.00000000 224524848.00000000 78500.51562500  6667618.50000000 5272682.50000000 
0.03100    140676656.00000000 88001672.00000000 222528976.00000000 77533.53906250  6595954.00000000 5216466.00000000 
0.03200    139373040.00000000 87202344.00000000 220487136.00000000 76547.33593750  6522801.50000000 5159034.00000000 
0.03300    138041088.00000000 86385960.00000000 218400032.00000000 75543.14062500  6448168.00000000 5100449.00000000 
0.03400    136681936.00000000 85552336.00000000 216272400.00000000 74521.23437500  6372088.50000000 5040780.50000000 
0.03500    135298048.00000000 84703080.00000000 214103152.00000000 73483.20312500  6294736.00000000 4980049.00000000 
0.03600    133888416.00000000 83838576.00000000 211895488.00000000 72429.63281250  6216108.50000000 4918300.50000000 
0.03700    132456368.00000000 82959784.00000000 209650832.00000000 71362.96093750  6136286.00000000 4855646.50000000 
0.03800    131001544.00000000 82066648.00000000 207371616.00000000 70282.42187500  6055367.00000000 4792106.00000000 
0.03900    129525648.00000000 81160832.00000000 205058544.00000000 69190.21093750  5973400.00000000 4727721.50000000 
0.04000    128029568.00000000 80242024.00000000 202714112.00000000 68087.27343750  5890462.50000000 4662602.50000000 
0.04100    126515112.00000000 79311800.00000000 200339856.00000000 66974.22656250  5806642.50000000 4596769.50000000 
0.04200    124982768.00000000 78370096.00000000 197937168.00000000 65852.62500000  5721994.50000000 4530265.00000000 
0.04300    123434312.00000000 77418392.00000000 195509440.00000000 64723.67968750  5636598.00000000 4463182.00000000 
0.04400    121870424.00000000 76457472.00000000 193057984.00000000 63587.94531250  5550543.00000000 4395551.00000000 
0.04500    120293064.00000000 75487528.00000000 190583776.00000000 62446.51562500  5463904.00000000 4327444.50000000 
0.04600    118702664.00000000 74509912.00000000 188088992.00000000 61300.80859375  5376713.50000000 4258923.00000000 
0.04700    117100432.00000000 73524856.00000000 185576320.00000000 60151.71484375  5289070.50000000 4190020.75000000 
0.04800    115488376.00000000 72532608.00000000 183046096.00000000 59000.18750000  5201069.50000000 4120826.25000000 
0.04900    113866992.00000000 71534520.00000000 180502960.00000000 57847.39062500  5112738.00000000 4051370.00000000 
0.05000    112237448.00000000 70531600.00000000 177945136.00000000 56693.79296875  5024174.50000000 3981718.50000000 
0.05100    110601072.00000000 69523744.00000000 175376304.00000000 55540.72265625  4935421.50000000 3911894.00000000 
0.05200    108959328.00000000 68512080.00000000 172797424.00000000 54389.66406250  4846571.50000000 3842007.75000000 
0.05300    107312152.00000000 67497136.00000000 170212896.00000000 53240.48437500  4757659.50000000 3772062.50000000 
0.05400    105661968.00000000 66480096.00000000 167621584.00000000 52094.98828125  4668829.00000000 3702130.25000000 
0.05500    104009504.00000000 65461204.00000000 165026144.00000000 50953.78125000  4580048.50000000 3632256.00000000 
0.05600    102355576.00000000 64441168.00000000 162428032.00000000 49817.74218750  4491440.00000000 3562499.75000000 
0.05700    100701664.00000000 63421036.00000000 159830128.00000000 48687.54687500  4403067.50000000 3492920.75000000 
0.05800    99048656.00000000 62400672.00000000 157232560.00000000 47564.25000000  4314987.00000000 3423531.75000000 
0.05900    97397464.00000000 61381256.00000000 154637056.00000000 46448.76953125  4227226.00000000 3354418.75000000 
0.06000    95749288.00000000 60363340.00000000 152047232.00000000 45341.23046875  4139882.00000000 3285599.25000000 
0.06100    94105536.00000000 59347584.00000000 149462688.00000000 44243.33203125  4052983.50000000 3217136.75000000 
0.06200    92466688.00000000 58334564.00000000 146883984.00000000 43155.13671875  3966602.50000000 3149048.25000000 
0.06300    90833648.00000000 57324804.00000000 144315424.00000000 42077.76562500  3880793.25000000 3081407.25000000 
0.06400    89206544.00000000 56318828.00000000 141757200.00000000 41011.11718750  3795596.50000000 3014238.75000000 
0.06500    87588112.00000000 55317584.00000000 139210256.00000000 39956.61718750  3711070.00000000 2947575.25000000 
0.06600    85978488.00000000 54320888.00000000 136676464.00000000 38914.94921875  3627258.25000000 2881466.75000000 
0.06700    84377672.00000000 53329748.00000000 134157864.00000000 37885.78515625  3544216.25000000 2815959.00000000 
0.06800    82787480.00000000 52344968.00000000 131655464.00000000 36870.40234375  3462007.00000000 2751070.75000000 
0.06900    81208696.00000000 51366548.00000000 129169416.00000000 35869.50781250  3380612.25000000 2686845.50000000 
0.07000    79641560.00000000 50394792.00000000 126701688.00000000 34882.85546875  3300138.25000000 2623301.00000000 
0.07100    78087528.00000000 49430724.00000000 124252680.00000000 33911.15625000  3220571.75000000 2560487.00000000 
0.07200    76546200.00000000 48474876.00000000 121825288.00000000 32954.94531250  3141982.25000000 2498408.25000000 
0.07300    75019592.00000000 47526988.00000000 119419096.00000000 32014.93945312  3064414.00000000 2437120.75000000 
0.07400    73507832.00000000 46588212.00000000 117035728.00000000 31091.28710938  2987886.50000000 2376632.00000000 
0.07500    72011368.00000000 45658440.00000000 114676872.00000000 30183.79492188  2912408.25000000 2316999.00000000 
0.07600    70531032.00000000 44738140.00000000 112342296.00000000 29293.48046875  2838023.50000000 2258184.25000000 
0.07700    69067464.00000000 43827788.00000000 110033512.00000000 28420.33007812  2764790.25000000 2200276.25000000 
0.07800    67620816.00000000 42927900.00000000 107751488.00000000 27564.42773438  2692690.75000000 2143233.50000000 
0.07900    66192104.00000000 42038572.00000000 105496472.00000000 26726.23828125  2621765.25000000 2087119.87500000 
0.08000    64781280.00000000 41160016.00000000 103270064.00000000 25905.70117188  2552043.75000000 2031951.87500000 
0.08100    63389280.00000000 40292676.00000000 101072048.00000000 25103.29882812  2483525.75000000 1977720.62500000 
0.08200    62016340.00000000 39436808.00000000 98903792.00000000 24318.89062500  2416244.50000000 1924443.00000000 
0.08300    60663096.00000000 38592652.00000000 96765752.00000000 23552.63671875  2350231.50000000 1872140.87500000 
0.08400    59329664.00000000 37760484.00000000 94658712.00000000 22804.55664062  2285450.75000000 1820830.62500000 
0.08500    58016296.00000000 36940492.00000000 92583216.00000000 22074.96484375  2221963.00000000 1770517.37500000 
0.08600    56723680.00000000 36133128.00000000 90539792.00000000 21363.58789062  2159741.25000000 1721212.50000000 
0.08700    55451860.00000000 35338072.00000000 88528176.00000000 20670.52734375  2098841.00000000 1672911.12500000 
0.08800    54200812.00000000 34555768.00000000 86549832.00000000 19995.66406250  2039222.12500000 1625622.62500000 
0.08900    52971300.00000000 33786476.00000000 84604472.00000000 19339.00390625  1980909.75000000 1579359.37500000 
0.09000    51763100.00000000 33030104.00000000 82692440.00000000 18700.47460938  1923904.25000000 1534116.87500000 
0.09100    50576560.00000000 32286772.00000000 80813672.00000000 18080.11328125  1868220.37500000 1489910.87500000 
0.09200    49412204.00000000 31556882.00000000 78969440.00000000 17477.54296875  1813830.25000000 1446724.00000000 
0.09300    48269296.00000000 30840306.00000000 77159544.00000000 16892.76367188  1760755.50000000 1404569.25000000 
0.09400    47148588.00000000 30137112.00000000 75383976.00000000 16325.62988281  1708981.37500000 1363425.12500000 
0.09500    46050128.00000000 29447304.00000000 73642608.00000000 15775.82714844  1658495.25000000 1323301.62500000 
0.09600    44973328.00000000 28771068.00000000 71935872.00000000 15243.30468750  1609322.37500000 1284196.50000000 
0.09700    43919156.00000000 28108240.00000000 70264160.00000000 14727.93066406  1561425.62500000 1246110.50000000 
0.09800    42887048.00000000 27459090.00000000 68627040.00000000 14229.25781250  1514802.62500000 1209024.50000000 
0.09900    41877028.00000000 26823508.00000000 67024492.00000000 13747.17773438  1469459.50000000 1172932.25000000 
0.10000    40889164.00000000 26201234.00000000 65455716.00000000 13281.24902344  1425360.25000000 1137832.25000000 
0.10100    39922880.00000000 25592518.00000000 63921904.00000000 12831.44726562  1382512.12500000 1103707.37500000 
0.10200    38978872.00000000 24997166.00000000 62422136.00000000 12397.31640625  1340896.12500000 1070550.37500000 
0.10300    38056444.00000000 24415238.00000000 60956860.00000000 11978.69921875  1300494.25000000 1038357.68750000 
0.10400    37155752.00000000 23846634.00000000 59525520.00000000 11575.09667969  1261283.37500000 1007104.00000000 
0.10500    36276756.00000000 23291288.00000000 58127740.00000000 11186.46777344  1223270.25000000 976793.87500000 
0.10600    35418700.00000000 22748894.00000000 56763392.00000000 10812.14355469  1186420.37500000 947396.25000000 
0.10700    34582156.00000000 22219696.00000000 55432408.00000000 10452.09960938  1150708.50000000 918905.25000000 
0.10800    33766268.00000000 21703244.00000000 54134136.00000000 10105.87304688  1116137.62500000 891306.06250000 
0.10900    32971140.00000000 21199592.00000000 52868456.00000000 9773.03808594   1082673.37500000 864580.50000000 
0.11000    32196272.00000000 20708720.00000000 51634840.00000000 9453.35742188   1050298.00000000 838726.93750000 
0.11100    31442052.00000000 20230224.00000000 50433044.00000000 9146.49804688   1018990.62500000 813708.37500000 
0.11200    30707594.00000000 19763984.00000000 49262568.00000000 8852.01367188   988735.43750000 789523.50000000 
0.11300    29992688.00000000 19309986.00000000 48123396.00000000 8569.55371094   959500.62500000 766148.12500000 
0.11400    29297282.00000000 18868218.00000000 47014692.00000000 8298.82910156   931262.75000000 743571.81250000 
0.11500    28621228.00000000 18438104.00000000 45935700.00000000 8039.49462891   904016.18750000 721765.06250000 
0.11600    27963622.00000000 18019666.00000000 44886856.00000000 7791.05371094   877725.37500000 700722.43750000 
0.11700    27324760.00000000 17612940.00000000 43866824.00000000 7553.25683594   852368.06250000 680423.00000000 
0.11800    26703844.00000000 17217250.00000000 42875572.00000000 7325.66845703   827912.75000000 660840.25000000 
0.11900    26100888.00000000 16832634.00000000 41912400.00000000 7108.02392578   804349.18750000 641959.37500000 
0.12000    25515286.00000000 16459070.00000000 40976732.00000000 6899.82812500   781645.87500000 623761.12500000 
0.12100    24946814.00000000 16096192.00000000 40068120.00000000 6700.92333984   759786.75000000 606240.25000000 
0.12200    24395304.00000000 15743662.00000000 39186100.00000000 6510.82568359   738732.43750000 589363.62500000 
0.12300    23859986.00000000 15401428.00000000 38330264.00000000 6329.19824219   718475.18750000 573113.12500000 
0.12400    23340670.00000000 15069317.00000000 37499460.00000000 6155.75488281   698979.68750000 557470.37500000 
0.12500    22837182.00000000 14746995.00000000 36693508.00000000 5990.02490234   680220.06250000 542418.75000000 
0.12600    22349000.00000000 14434296.00000000 35912248.00000000 5831.90429688   662186.62500000 527941.25000000 
0.12700    21875756.00000000 14130931.00000000 35154308.00000000 5680.87207031   644842.31250000 514013.65625000 
0.12800    21416974.00000000 13836676.00000000 34419532.00000000 5536.69531250   628168.12500000 500621.59375000 
0.12900    20972528.00000000 13551474.00000000 33707216.00000000 5399.01269531   612144.37500000 487749.03125000 
0.13000    20541880.00000000 13274919.00000000 33016964.00000000 5267.62695312   596741.68750000 475371.43750000 
0.13100    20124700.00000000 13006748.00000000 32347860.00000000 5142.11767578   581937.56250000 463473.90625000 
0.13200    19720520.00000000 12746938.00000000 31699706.00000000 5022.21826172   567705.68750000 452037.53125000 
0.13300    19329034.00000000 12495160.00000000 31071606.00000000 4907.72607422   554040.56250000 441047.34375000 
0.13400    18949818.00000000 12251130.00000000 30463146.00000000 4798.31787109   540903.12500000 430485.06250000 
0.13500    18582536.00000000 12014680.00000000 29873994.00000000 4693.71191406   528280.18750000 420333.78125000 
0.13600    18226942.00000000 11785554.00000000 29302914.00000000 4593.68798828   516144.75000000 410572.71875000 
0.13700    17882686.00000000 11563564.00000000 28749840.00000000 4497.94970703   504477.25000000 401188.62500000 
0.13800    17548964.00000000 11348477.00000000 28214340.00000000 4406.27197266   493261.09375000 392165.93750000 
0.13900    17226030.00000000 11140077.00000000 27695102.00000000 4318.48535156   482474.78125000 383491.09375000 
0.14000    16913158.00000000 10938165.00000000 27192556.00000000 4234.30126953   472100.00000000 375144.62500000 
0.14100    16610105.00000000 10742533.00000000 26705476.00000000 4153.53857422   462116.53125000 367111.87500000 
0.14200    16316558.00000000 10552883.00000000 26233570.00000000 4075.93701172   452502.06250000 359380.18750000 
0.14300    16032089.00000000 10369065.00000000 25776274.00000000 4001.38378906   443247.56250000 351933.00000000 
0.14400    15756411.00000000 10190907.00000000 25332878.00000000 3929.59741211   434326.06250000 344757.53125000 
0.14500    15489219.00000000 10018156.00000000 24903292.00000000 3860.49414062   425726.46875000 337843.87500000 
0.14600    15230185.00000000 9850727.00000000 24486586.00000000 3793.85327148   417433.03125000 331176.31250000 
0.14700    14979076.00000000 9688323.00000000 24082748.00000000 3729.53491211   409430.00000000 324738.21875000 
0.14800    14735375.00000000 9530632.00000000 23690842.00000000 3667.35986328   401694.71875000 318524.62500000 
0.14900    14498892.00000000 9377680.00000000 23310548.00000000 3607.15356445   394217.93750000 312516.31250000 
0.15000    14269454.00000000 9229215.00000000 22941280.00000000 3548.84716797   386989.93750000 306706.43750000 
0.15100    14046676.00000000 9085011.00000000 22582892.00000000 3492.26220703   379989.75000000 301085.28125000 
0.15200    13830357.00000000 8945058.00000000 22234788.00000000 3437.32470703   373209.68750000 295636.96875000 
0.15300    13620101.00000000 8808949.00000000 21896440.00000000 3383.90478516   366631.28125000 290359.96875000 
0.15400    13415533.00000000 8676649.00000000 21567430.00000000 3331.81542969   360246.12500000 285232.93750000 
0.15500    13216679.00000000 8547977.00000000 21247526.00000000 3281.05297852   354042.34375000 280257.12500000 
0.15600    13023167.00000000 8422748.00000000 20936212.00000000 3231.48999023   348007.90625000 275417.87500000 
0.15700    12834806.00000000 8300916.00000000 20633318.00000000 3183.07202148   342136.65625000 270708.25000000 
0.15800    12651173.00000000 8182168.50000000 20337932.00000000 3135.62719727   336407.15625000 266118.93750000 
0.15900    12472319.00000000 8066513.00000000 20050362.00000000 3089.17309570   330825.50000000 261646.34375000 
0.16000    12297735.00000000 7953695.50000000 19769596.00000000 3043.60595703   325369.59375000 257278.35937500 
0.16100    12127552.00000000 7843707.00000000 19496058.00000000 2998.88574219   320040.00000000 253010.90625000 
0.16200    11961378.00000000 7736273.00000000 19228830.00000000 2954.91967773   314824.34375000 248835.46875000 
0.16300    11798922.00000000 7631374.50000000 18967758.00000000 2911.67065430   309715.62500000 244746.92187500 
0.16400    11640170.00000000 7528878.50000000 18712684.00000000 2869.09375000   304708.50000000 240742.12500000 
0.16500    11484845.00000000 7428674.00000000 18463204.00000000 2827.15014648   299789.09375000 236810.40625000 
0.16600    11332819.00000000 7330585.50000000 18218908.00000000 2785.81274414   294962.31250000 232951.54687500 
0.16700    11183901.00000000 7234485.50000000 17979818.00000000 2745.00195312   290209.28125000 229155.82812500 
0.16800    11037952.00000000 7140390.50000000 17745336.00000000 2704.72070312   285533.81250000 225421.60937500 
0.16900    10894850.00000000 7048189.00000000 17515674.00000000 2664.97900391   280933.96875000 221746.96875000 
0.17000    10754316.00000000 6957689.00000000 17290262.00000000 2625.66235352   276394.40625000 218123.03125000 
