# SAXS profile: number of points = 501, q_min = 0, q_max = 0.5, delta_q = 0.001
#    q    intensity 
0.00000    162230624.00000000 101202072.00000000 256270560.00000000 110481.99218750 8467478.00000000 6687562.00000000 
0.00100    162190144.00000000 101173152.00000000 256198880.00000000 110442.16406250 8464747.00000000 6685405.00000000 
0.00200    162061888.00000000 101088472.00000000 255984240.00000000 110322.88281250 8456515.00000000 6679019.00000000 
0.00300    161837408.00000000 100948312.00000000 255627312.00000000 110125.63281250 8442903.00000000 6668286.50000000 
0.00400    161515040.00000000 100752672.00000000 255128384.00000000 109848.82031250 8423885.00000000 6653334.50000000 
0.00500    161102224.00000000 100498680.00000000 254484192.00000000 109494.68750000 8399494.00000000 6634158.00000000 
0.00600    160607616.00000000 100192392.00000000 253702944.00000000 109064.39843750 8369823.50000000 6610795.00000000 
0.00700    160015840.00000000 99832336.00000000 252785184.00000000 108558.05468750 8334944.50000000 6583370.00000000 
0.00800    159344032.00000000 99418928.00000000 251731536.00000000 107978.27343750 8294884.50000000 6551894.50000000 
0.00900    158588000.00000000 98953912.00000000 250543472.00000000 107325.16406250 8249818.00000000 6516467.00000000 
0.01000    157750528.00000000 98434920.00000000 249222336.00000000 106601.97656250 8199820.50000000 6477147.00000000 
0.01100    156828944.00000000 97866680.00000000 247773424.00000000 105809.45312500 8145016.50000000 6434078.00000000 
0.01200    155823808.00000000 97247504.00000000 246201664.00000000 104949.99218750 8085595.00000000 6387313.00000000 
0.01300    154744704.00000000 96582176.00000000 244504816.00000000 104026.75781250 8021607.00000000 6336988.50000000 
0.01400    153591872.00000000 95870536.00000000 242691328.00000000 103040.44531250 7953269.00000000 6283204.00000000 
0.01500    152364192.00000000 95113424.00000000 240765728.00000000 101995.95312500 7880700.00000000 6226148.50000000 
0.01600    151068048.00000000 94313592.00000000 238726576.00000000 100893.86718750 7804084.00000000 6165895.50000000 
0.01700    149702640.00000000 93469984.00000000 236581536.00000000 99737.89062500  7723637.50000000 6102632.00000000 
0.01800    148273312.00000000 92589528.00000000 234338240.00000000 98531.67187500  7639498.00000000 6036409.50000000 
0.01900    146783328.00000000 91668624.00000000 231994960.00000000 97276.57812500  7551886.00000000 5967455.50000000 
0.02000    145233536.00000000 90711576.00000000 229558080.00000000 95976.56250000  7460985.50000000 5895896.00000000 
0.02100    143628912.00000000 89720056.00000000 227035792.00000000 94635.16406250  7367028.00000000 5821973.50000000 
0.02200    141971168.00000000 88696688.00000000 224430480.00000000 93255.30468750  7270209.50000000 5745796.50000000 
0.02300    140264880.00000000 87641480.00000000 221746400.00000000 91839.25781250  7170697.50000000 5667488.50000000 
0.02400    138512736.00000000 86557176.00000000 218990832.00000000 90392.05468750  7068807.50000000 5587217.00000000 
0.02500    136716464.00000000 85447464.00000000 216168224.00000000 88915.97656250  6964647.50000000 5505209.00000000 
0.02600    134883264.00000000 84313144.00000000 213281872.00000000 87414.01562500  6858429.00000000 5421609.50000000 
0.02700    133014328.00000000 83156776.00000000 210342016.00000000 85890.52343750  6750466.50000000 5336549.50000000 
0.02800    131113312.00000000 81979712.00000000 207351120.00000000 84348.30468750  6640943.50000000 5250293.00000000 
0.02900    129182000.00000000 80783976.00000000 204311088.00000000 82790.60156250  6530038.50000000 5162936.50000000 
0.03000    127226360.00000000 79572904.00000000 201233152.00000000 81220.01562500  6417968.50000000 5074662.50000000 
0.03100    125248408.00000000 78348096.00000000 198120416.00000000 79640.80468750  6305008.50000000 4985641.50000000 
0.03200    123253048.00000000 77111160.00000000 194976896.00000000 78055.37500000  6191263.00000000 4896050.00000000 
0.03300    121240408.00000000 75863448.00000000 191807040.00000000 76466.91406250  6077070.50000000 4806004.50000000 
0.03400    119216992.00000000 74608280.00000000 188620288.00000000 74877.48437500  5962488.00000000 4715711.50000000 
0.03500    117184112.00000000 73347304.00000000 185417168.00000000 73292.02343750  5847750.50000000 4625269.00000000 
0.03600    115145064.00000000 72081264.00000000 182204224.00000000 71710.25781250  5733090.50000000 4534849.50000000 
0.03700    113104656.00000000 70813616.00000000 178987280.00000000 70136.53906250  5618641.00000000 4444601.50000000 
0.03800    111064304.00000000 69545656.00000000 175771024.00000000 68573.56250000  5504609.50000000 4354671.00000000 
0.03900    109027232.00000000 68279672.00000000 172558960.00000000 67022.91406250  5391181.50000000 4265184.50000000 
0.04000    106996392.00000000 67016780.00000000 169355200.00000000 65487.67187500  5278453.50000000 4176207.00000000 
0.04100    104973568.00000000 65759108.00000000 166164656.00000000 63967.97656250  5166672.50000000 4087969.25000000 
0.04200    102962504.00000000 64507468.00000000 162992560.00000000 62467.86718750  5055845.00000000 4000520.75000000 
0.04300    100964792.00000000 63264328.00000000 159840320.00000000 60988.73828125  4946223.50000000 3913995.75000000 
0.04400    98984224.00000000 62030560.00000000 156714000.00000000 59531.80078125  4837885.00000000 3828477.75000000 
0.04500    97020776.00000000 60807872.00000000 153614928.00000000 58098.58203125  4730960.50000000 3744058.50000000 
0.04600    95078808.00000000 59597484.00000000 150549056.00000000 56690.59375000  4625554.00000000 3660806.25000000 
0.04700    93158976.00000000 58400676.00000000 147516768.00000000 55309.00390625  4521833.00000000 3578841.00000000 
0.04800    91264040.00000000 57218968.00000000 144524000.00000000 53954.65625000  4419758.50000000 3498225.25000000 
0.04900    89395360.00000000 56052656.00000000 141571888.00000000 52628.97656250  4319499.00000000 3419007.00000000 
0.05000    87554320.00000000 54903508.00000000 138664112.00000000 51332.35546875  4221104.50000000 3341257.25000000 
0.05100    85742624.00000000 53772836.00000000 135802128.00000000 50065.56640625  4124638.25000000 3265053.50000000 
0.05200    83961208.00000000 52660236.00000000 132985152.00000000 48829.06250000  4030170.50000000 3190349.75000000 
0.05300    82211352.00000000 51567424.00000000 130219888.00000000 47623.04296875  3937735.50000000 3117306.75000000 
0.05400    80495248.00000000 50494596.00000000 127506016.00000000 46448.22265625  3847374.50000000 3045847.25000000 
0.05500    78813200.00000000 49442536.00000000 124845528.00000000 45304.58593750  3759124.50000000 2976060.50000000 
0.05600    77164840.00000000 48412300.00000000 122239304.00000000 44191.84375000  3672980.50000000 2907946.25000000 
0.05700    75552584.00000000 47404212.00000000 119689032.00000000 43110.38281250  3589002.50000000 2841529.25000000 
0.05800    73976928.00000000 46418180.00000000 117195192.00000000 42059.45703125  3507157.00000000 2776768.50000000 
0.05900    72435968.00000000 45454664.00000000 114758728.00000000 41039.05468750  3427487.00000000 2713766.00000000 
0.06000    70933016.00000000 44513716.00000000 112380944.00000000 40049.10937500  3349904.50000000 2652393.75000000 
0.06100    69467264.00000000 43596036.00000000 110060888.00000000 39088.76171875  3274496.00000000 2592754.75000000 
0.06200    68038184.00000000 42701112.00000000 107799880.00000000 38157.28906250  3201191.75000000 2534771.00000000 
0.06300    66646472.00000000 41830352.00000000 105598360.00000000 37254.58203125  3129956.00000000 2478420.25000000 
0.06400    65292212.00000000 40982832.00000000 103454992.00000000 36379.54296875  3060799.50000000 2423676.25000000 
0.06500    63974336.00000000 40157788.00000000 101370264.00000000 35531.99218750  2993660.00000000 2370574.25000000 
0.06600    62694628.00000000 39356444.00000000 99343672.00000000 34710.81250000  2928502.25000000 2319023.25000000 
0.06700    61449924.00000000 38577588.00000000 97374640.00000000 33914.77343750  2865291.25000000 2269035.25000000 
0.06800    60241188.00000000 37821616.00000000 95463240.00000000 33143.90625000  2803989.00000000 2220514.50000000 
0.06900    59069160.00000000 37088112.00000000 93609200.00000000 32396.51953125  2744543.75000000 2173509.00000000 
0.07000    57931620.00000000 36376376.00000000 91809224.00000000 31672.83203125  2686884.75000000 2127894.00000000 
0.07100    56828144.00000000 35686632.00000000 90065160.00000000 30970.92187500  2630990.50000000 2083695.62500000 
0.07200    55759012.00000000 35018588.00000000 88374200.00000000 30290.05468750  2576755.25000000 2040830.37500000 
0.07300    54723048.00000000 34371172.00000000 86735992.00000000 29629.53515625  2524187.00000000 1999250.87500000 
0.07400    53718864.00000000 33743900.00000000 85148920.00000000 28988.38867188  2473188.50000000 1958934.62500000 
0.07500    52746392.00000000 33137906.00000000 83612736.00000000 28365.69921875  2423690.50000000 1919809.75000000 
0.07600    51804688.00000000 32550288.00000000 82124808.00000000 27760.70703125  2375683.25000000 1881872.50000000 
0.07700    50892568.00000000 31982218.00000000 80686080.00000000 27172.57226562  2329052.75000000 1845032.00000000 
0.07800    50009936.00000000 31432468.00000000 79291384.00000000 26600.18554688  2283786.75000000 1809267.87500000 
0.07900    49154880.00000000 30900366.00000000 77942976.00000000 26042.94921875  2239764.75000000 1774530.37500000 
0.08000    48327092.00000000 30385978.00000000 76637624.00000000 25499.97656250  2197005.25000000 1740747.12500000 
0.08100    47525304.00000000 29888198.00000000 75373712.00000000 24970.74218750  2155403.00000000 1707921.62500000 
0.08200    46749044.00000000 29406282.00000000 74150640.00000000 24454.23242188  2114918.25000000 1675972.12500000 
0.08300    45996988.00000000 28940052.00000000 72965808.00000000 23950.00000000  2075505.62500000 1644870.25000000 
0.08400    45268184.00000000 28488834.00000000 71819176.00000000 23457.34375000  2037095.62500000 1614573.50000000 
0.08500    44562188.00000000 28052322.00000000 70708496.00000000 22975.52734375  1999646.62500000 1585041.87500000 
0.08600    43877296.00000000 27629160.00000000 69632592.00000000 22504.07031250  1963104.75000000 1556226.12500000 
0.08700    43213364.00000000 27219472.00000000 68588144.00000000 22042.48437500  1927430.50000000 1528091.62500000 
0.08800    42569060.00000000 26822320.00000000 67576112.00000000 21590.35351562  1892573.62500000 1500615.00000000 
0.08900    41942944.00000000 26437112.00000000 66594236.00000000 21146.86718750  1858488.00000000 1473778.50000000 
0.09000    41334896.00000000 26063604.00000000 65640736.00000000 20711.80078125  1825169.50000000 1447509.62500000 
0.09100    40744108.00000000 25700852.00000000 64714500.00000000 20285.16796875  1792516.00000000 1421786.37500000 
0.09200    40169736.00000000 25348306.00000000 63814056.00000000 19866.20507812  1760536.37500000 1396600.25000000 
0.09300    39610112.00000000 25005888.00000000 62937896.00000000 19454.48242188  1729191.12500000 1371911.37500000 
0.09400    39065348.00000000 24672494.00000000 62085572.00000000 19050.03906250  1698425.12500000 1347684.37500000 
0.09500    38534368.00000000 24348094.00000000 61254800.00000000 18652.86132812  1668241.12500000 1323899.12500000 
0.09600    38016296.00000000 24032008.00000000 60445264.00000000 18262.27539062  1638594.25000000 1300554.87500000 
0.09700    37510260.00000000 23723520.00000000 59655300.00000000 17878.38476562  1609460.00000000 1277611.87500000 
0.09800    37016444.00000000 23422562.00000000 58883616.00000000 17500.70898438  1580835.12500000 1255056.87500000 
0.09900    36533096.00000000 23128632.00000000 58129076.00000000 17129.55078125  1552673.62500000 1232863.50000000 
0.10000    36060192.00000000 22841034.00000000 57391492.00000000 16764.35937500  1524958.37500000 1211049.25000000 
0.10100    35597016.00000000 22559496.00000000 56668788.00000000 16405.40820312  1497675.87500000 1189535.37500000 
0.10200    35142920.00000000 22283610.00000000 55961048.00000000 16052.38183594  1470818.87500000 1168381.37500000 
0.10300    34697428.00000000 22013440.00000000 55266492.00000000 15705.29003906  1444367.62500000 1147529.25000000 
0.10400    34260220.00000000 21748130.00000000 54585020.00000000 15364.18261719  1418311.62500000 1126987.37500000 
0.10500    33830396.00000000 21487384.00000000 53914984.00000000 15029.08789062  1392627.12500000 1106728.00000000 
0.10600    33407678.00000000 21230800.00000000 53255908.00000000 14699.70312500  1367323.62500000 1086762.37500000 
0.10700    32991860.00000000 20978624.00000000 52607364.00000000 14376.23828125  1342379.50000000 1067076.87500000 
0.10800    32581814.00000000 20730102.00000000 51968560.00000000 14058.51269531  1317784.50000000 1047669.37500000 
0.10900    32177880.00000000 20484942.00000000 51338524.00000000 13746.61621094  1293545.50000000 1028515.50000000 
0.11000    31779410.00000000 20243080.00000000 50717296.00000000 13440.52441406  1269638.37500000 1009628.56250000 
0.11100    31385984.00000000 20004060.00000000 50103960.00000000 13140.19335938  1246061.62500000 991003.00000000 
0.11200    30997214.00000000 19768004.00000000 49497508.00000000 12845.58007812  1222821.62500000 972625.50000000 
0.11300    30613182.00000000 19534432.00000000 48898188.00000000 12556.83691406  1199904.37500000 954502.81250000 
0.11400    30233240.00000000 19303236.00000000 48305456.00000000 12273.69433594  1177315.00000000 936622.06250000 
0.11500    29857594.00000000 19074328.00000000 47718444.00000000 11996.16308594  1155038.87500000 918992.87500000 
0.11600    29485390.00000000 18847286.00000000 47136416.00000000 11724.33593750  1133066.37500000 901598.00000000 
0.11700    29116772.00000000 18622338.00000000 46560456.00000000 11458.13964844  1111426.62500000 884439.56250000 
0.11800    28751450.00000000 18399132.00000000 45988692.00000000 11197.46289062  1090079.50000000 867512.75000000 
0.11900    28389106.00000000 18177494.00000000 45421668.00000000 10942.15527344  1069051.50000000 850835.75000000 
0.12000    28029818.00000000 17957282.00000000 44858716.00000000 10692.33593750  1048301.37500000 834383.62500000 
0.12100    27673496.00000000 17738688.00000000 44300348.00000000 10447.81250000  1027879.62500000 818165.50000000 
0.12200    27319750.00000000 17521266.00000000 43745588.00000000 10208.58203125  1007739.56250000 802175.06250000 
0.12300    26968608.00000000 17305392.00000000 43194608.00000000 9974.56738281   987897.87500000 786417.31250000 
0.12400    26619782.00000000 17090332.00000000 42646620.00000000 9745.51074219   968352.12500000 770874.56250000 
0.12500    26273502.00000000 16876682.00000000 42101748.00000000 9521.46777344   949087.50000000 755560.87500000 
0.12600    25929258.00000000 16664106.00000000 41560964.00000000 9302.39257812   930119.75000000 740476.31250000 
0.12700    25587256.00000000 16452296.00000000 41022692.00000000 9087.95214844   911426.18750000 725601.25000000 
0.12800    25247574.00000000 16241754.00000000 40486876.00000000 8878.10156250   893018.12500000 710949.43750000 
0.12900    24909608.00000000 16031892.00000000 39954360.00000000 8672.95214844   874887.87500000 696515.43750000 
0.13000    24573872.00000000 15823126.00000000 39424620.00000000 8472.11914062   857025.62500000 682289.12500000 
0.13100    24239852.00000000 15615337.00000000 38897532.00000000 8275.48535156   839432.87500000 668278.25000000 
0.13200    23908264.00000000 15408299.00000000 38372968.00000000 8083.10058594   822106.25000000 654468.43750000 
0.13300    23578166.00000000 15202154.00000000 37851660.00000000 7894.75927734   805038.93750000 640874.75000000 
0.13400    23250074.00000000 14997058.00000000 37332508.00000000 7710.28466797   788246.68750000 627475.56250000 
0.13500    22923982.00000000 14792763.00000000 36816244.00000000 7529.60888672   771695.81250000 614285.06250000 
0.13600    22599720.00000000 14589371.00000000 36302756.00000000 7352.58691406   755406.31250000 601288.75000000 
0.13700    22277354.00000000 14387007.00000000 35791696.00000000 7179.14160156   739357.12500000 588488.06250000 
0.13800    21957090.00000000 14185544.00000000 35283484.00000000 7009.17089844   723554.87500000 575876.50000000 
0.13900    21638634.00000000 13985107.00000000 34778184.00000000 6842.48095703   707992.93750000 563461.00000000 
0.14000    21322138.00000000 13785607.00000000 34275992.00000000 6679.10693359   692668.43750000 551239.50000000 
0.14100    21007756.00000000 13587157.00000000 33776028.00000000 6518.83789062   677587.25000000 539195.93750000 
0.14200    20695424.00000000 13389808.00000000 33279438.00000000 6361.61621094   662723.68750000 527343.87500000 
0.14300    20385096.00000000 13193515.00000000 32785754.00000000 6207.35302734   648098.12500000 515668.21875000 
0.14400    20076796.00000000 12998304.00000000 32295140.00000000 6056.01171875   633692.18750000 504170.50000000 
0.14500    19771040.00000000 12804363.00000000 31807918.00000000 5907.50585938   619511.50000000 492853.84375000 
0.14600    19466854.00000000 12611622.00000000 31323868.00000000 5761.73583984   605543.75000000 481713.00000000 
0.14700    19165416.00000000 12420162.00000000 30843468.00000000 5618.67822266   591807.43750000 470744.21875000 
0.14800    18866206.00000000 12230007.00000000 30366214.00000000 5478.26269531   578276.68750000 459944.15625000 
0.14900    18569402.00000000 12041204.00000000 29892598.00000000 5340.46093750   564963.06250000 449319.71875000 
0.15000    18274906.00000000 11853648.00000000 29422826.00000000 5205.29052734   551855.25000000 438861.00000000 
0.15100    17982654.00000000 11667587.00000000 28956592.00000000 5072.66015625   538961.43750000 428571.43750000 
0.15200    17693432.00000000 11483188.00000000 28494586.00000000 4942.58251953   526277.62500000 418449.21875000 
0.15300    17406730.00000000 11300144.00000000 28036526.00000000 4814.95556641   513806.84375000 408492.75000000 
0.15400    17122370.00000000 11118572.00000000 27582132.00000000 4689.90917969   501527.71875000 398701.21875000 
0.15500    16840894.00000000 10938865.00000000 27132384.00000000 4567.30761719   489462.96875000 389069.09375000 
0.15600    16562299.00000000 10760783.00000000 26686686.00000000 4447.20068359   477596.40625000 379599.25000000 
0.15700    16286438.00000000 10584280.00000000 26245686.00000000 4329.60888672   465939.46875000 370300.37500000 
0.15800    16013530.00000000 10409597.00000000 25808774.00000000 4214.48388672   454479.81250000 361154.90625000 
0.15900    15743523.00000000 10236639.00000000 25376700.00000000 4101.93017578   443224.15625000 352174.50000000 
0.16000    15476508.00000000 10065452.00000000 24949336.00000000 3991.80786133   432169.46875000 343350.65625000 
0.16100    15212558.00000000 9896356.00000000 24526820.00000000 3884.29760742   421315.06250000 334689.34375000 
0.16200    14951774.00000000 9728953.00000000 24108992.00000000 3779.30053711   410663.96875000 326187.06250000 
0.16300    14693994.00000000 9563726.00000000 23696144.00000000 3676.80371094   400208.78125000 317847.03125000 
0.16400    14439436.00000000 9400255.00000000 23288256.00000000 3576.89160156   389959.53125000 309660.81250000 
0.16500    14188075.00000000 9238788.00000000 22885612.00000000 3479.53735352   379907.12500000 301634.56250000 
0.16600    13940176.00000000 9079442.00000000 22487942.00000000 3384.76318359   370050.03125000 293767.62500000 
0.16700    13695429.00000000 8922017.00000000 22095426.00000000 3292.50756836   360393.93750000 286053.03125000 
0.16800    13453925.00000000 8766755.00000000 21708364.00000000 3202.80834961   350931.62500000 278496.25000000 
0.16900    13215924.00000000 8613600.00000000 21326396.00000000 3115.74023438   341668.59375000 271096.28125000 
0.17000    12981251.00000000 8462504.00000000 20949770.00000000 3031.19995117   332599.09375000 263851.43750000 
