# SAXS profile: number of points = 501, q_min = 0, q_max = 0.5, delta_q = 0.001
#    q    intensity 
0.00000    162238064.00000000 101201880.00000000 256270976.00000000 92838.05468750  7761954.00000000 6130362.50000000 
0.00100    162210016.00000000 101184096.00000000 256226912.00000000 92816.67187500  7760367.00000000 6129135.00000000 
0.00200    162126288.00000000 101131808.00000000 256094496.00000000 92753.00000000  7755679.50000000 6125437.00000000 
0.00300    161985920.00000000 101044672.00000000 255871856.00000000 92646.69531250  7747840.50000000 6119276.00000000 
0.00400    161789408.00000000 100922584.00000000 255560960.00000000 92498.51562500  7736898.50000000 6110687.50000000 
0.00500    161534736.00000000 100766440.00000000 255162896.00000000 92308.10937500  7722847.00000000 6099658.00000000 
0.00600    161224368.00000000 100576048.00000000 254677392.00000000 92075.52343750  7705705.50000000 6086174.00000000 
0.00700    160857072.00000000 100350208.00000000 254102576.00000000 91802.02343750  7685487.50000000 6070323.50000000 
0.00800    160436736.00000000 100090872.00000000 253441680.00000000 91487.37500000  7662239.50000000 6052084.50000000 
0.00900    159959104.00000000 99798584.00000000 252696528.00000000 91132.39843750  7636002.50000000 6031469.00000000 
0.01000    159428912.00000000 99472776.00000000 251865792.00000000 90737.17968750  7606782.50000000 6008529.00000000 
0.01100    158845632.00000000 99113952.00000000 250950576.00000000 90302.28906250  7574612.50000000 5983271.50000000 
0.01200    158211472.00000000 98722856.00000000 249952288.00000000 89828.30468750  7539555.50000000 5955719.00000000 
0.01300    157524064.00000000 98299712.00000000 248873344.00000000 89316.53906250  7501669.50000000 5925973.00000000 
0.01400    156785248.00000000 97844544.00000000 247713872.00000000 88766.92187500  7460959.00000000 5894005.00000000 
0.01500    155995360.00000000 97358384.00000000 246473456.00000000 88180.62500000  7417472.00000000 5859845.50000000 
0.01600    155154944.00000000 96841616.00000000 245156336.00000000 87558.29687500  7371276.50000000 5823593.00000000 
0.01700    154266976.00000000 96294768.00000000 243764064.00000000 86901.07812500  7322500.00000000 5785238.00000000 
0.01800    153332544.00000000 95718464.00000000 242294816.00000000 86209.63281250  7271112.50000000 5744885.50000000 
0.01900    152349248.00000000 95113568.00000000 240752736.00000000 85484.88281250  7217177.00000000 5702529.00000000 
0.02000    151322464.00000000 94480864.00000000 239139952.00000000 84727.46093750  7160819.50000000 5658261.00000000 
0.02100    150250000.00000000 93820392.00000000 237457712.00000000 83939.39062500  7102115.50000000 5612115.50000000 
0.02200    149134960.00000000 93133864.00000000 235706544.00000000 83120.68750000  7041037.50000000 5564159.00000000 
0.02300    147977424.00000000 92420224.00000000 233889440.00000000 82273.39062500  6977763.00000000 5514447.50000000 
0.02400    146779520.00000000 91682608.00000000 232009856.00000000 81398.14062500  6912347.50000000 5463007.50000000 
0.02500    145542768.00000000 90920408.00000000 230066000.00000000 80496.00781250  6844831.00000000 5409980.50000000 
0.02600    144267120.00000000 90134576.00000000 228064512.00000000 79568.75000000  6775321.00000000 5355344.50000000 
0.02700    142954640.00000000 89325992.00000000 226004704.00000000 78616.26562500  6703869.50000000 5299210.50000000 
0.02800    141607808.00000000 88495032.00000000 223887760.00000000 77641.31250000  6630582.50000000 5241622.50000000 
0.02900    140226016.00000000 87643600.00000000 221720016.00000000 76644.15625000  6555603.00000000 5182695.50000000 
0.03000    138812128.00000000 86771672.00000000 219498592.00000000 75626.39843750  6478898.00000000 5122419.50000000 
0.03100    137367456.00000000 85880744.00000000 217229712.00000000 74589.18750000  6400668.50000000 5060866.50000000 
0.03200    135894096.00000000 84971784.00000000 214914064.00000000 73534.25781250  6320947.00000000 4998200.00000000 
0.03300    134391760.00000000 84045304.00000000 212555136.00000000 72462.81250000  6239829.00000000 4934410.00000000 
0.03400    132862720.00000000 83102648.00000000 210153472.00000000 71375.19531250  6157409.50000000 4869616.50000000 
0.03500    131309224.00000000 82143536.00000000 207712992.00000000 70274.08593750  6073756.00000000 4803846.00000000 
0.03600    129733032.00000000 81170736.00000000 205236032.00000000 69160.35156250  5989032.00000000 4737174.00000000 
0.03700    128134584.00000000 80184056.00000000 202723536.00000000 68034.53906250  5903221.00000000 4669681.50000000 
0.03800    126516384.00000000 79184608.00000000 200180144.00000000 66898.93750000  5816505.50000000 4601509.00000000 
0.03900    124879192.00000000 78173600.00000000 197607184.00000000 65754.31250000  5728958.50000000 4532608.50000000 
0.04000    123224712.00000000 77152136.00000000 195007408.00000000 64602.26171875  5640654.00000000 4463138.50000000 
0.04100    121555144.00000000 76120392.00000000 192382416.00000000 63444.01562500  5551677.50000000 4393112.00000000 
0.04200    119871840.00000000 75079648.00000000 189735744.00000000 62280.42968750  5462126.50000000 4322675.00000000 
0.04300    118175880.00000000 74032680.00000000 187069408.00000000 61113.41015625  5372100.50000000 4251829.50000000 
0.04400    116469424.00000000 72978032.00000000 184385664.00000000 59943.80859375  5281720.00000000 4180664.25000000 
0.04500    114753056.00000000 71917440.00000000 181688544.00000000 58773.15625000  5190996.50000000 4109258.00000000 
0.04600    113029592.00000000 70851248.00000000 178977648.00000000 57602.15625000  5100089.50000000 4037674.50000000 
0.04700    111300552.00000000 69781864.00000000 176256192.00000000 56432.43750000  5008988.50000000 3965969.75000000 
0.04800    109566056.00000000 68708616.00000000 173527216.00000000 55264.54687500  4917908.00000000 3894235.25000000 
0.04900    107828536.00000000 67633192.00000000 170792816.00000000 54100.46875000  4826817.50000000 3822503.75000000 
0.05000    106089096.00000000 66556552.00000000 168055632.00000000 52940.90234375  4735882.50000000 3750876.00000000 
0.05100    104349288.00000000 65479484.00000000 165318656.00000000 51786.72265625  4645146.50000000 3679377.25000000 
0.05200    102610512.00000000 64402828.00000000 162582304.00000000 50639.17578125  4554668.50000000 3608094.00000000 
0.05300    100874400.00000000 63327480.00000000 159850096.00000000 49499.16406250  4464546.50000000 3537079.00000000 
0.05400    99142560.00000000 62254008.00000000 157122400.00000000 48367.91015625  4374864.00000000 3466391.50000000 
0.05500    97415328.00000000 61183704.00000000 154402960.00000000 47245.73828125  4285643.00000000 3396058.50000000 
0.05600    95694584.00000000 60117008.00000000 151692672.00000000 46134.25390625  4197009.50000000 3326203.00000000 
0.05700    93981536.00000000 59054700.00000000 148995024.00000000 45033.81640625  4109007.75000000 3256798.75000000 
0.05800    92277216.00000000 57997900.00000000 146310176.00000000 43945.58984375  4021715.75000000 3187958.00000000 
0.05900    90583344.00000000 56946724.00000000 143640720.00000000 42869.85546875  3935172.25000000 3119674.75000000 
0.06000    88900936.00000000 55902268.00000000 140988912.00000000 41807.81250000  3849435.00000000 3052071.50000000 
0.06100    87230208.00000000 54865180.00000000 138356768.00000000 40759.89062500  3764576.75000000 2985120.25000000 
0.06200    85573472.00000000 53836224.00000000 135744480.00000000 39727.35937500  3680639.00000000 2918880.75000000 
0.06300    83930544.00000000 52815720.00000000 133156760.00000000 38709.70312500  3597701.75000000 2853425.50000000 
0.06400    82303128.00000000 51804520.00000000 130590368.00000000 37708.35937500  3515784.75000000 2788758.25000000 
0.06500    80692464.00000000 50802932.00000000 128050112.00000000 36723.90625000  3434942.75000000 2724933.25000000 
0.06600    79098904.00000000 49812016.00000000 125536560.00000000 35755.98046875  3355216.50000000 2661977.75000000 
0.06700    77523256.00000000 48831788.00000000 123051120.00000000 34805.94921875  3276649.75000000 2599911.25000000 
0.06800    75966680.00000000 47863344.00000000 120595408.00000000 33873.51953125  3199290.50000000 2538790.50000000 
0.06900    74429488.00000000 46906512.00000000 118170032.00000000 32959.60937500  3123149.25000000 2478624.00000000 
0.07000    72912848.00000000 45962480.00000000 115776160.00000000 32064.02343750  3048266.25000000 2419461.75000000 
0.07100    71417288.00000000 45030576.00000000 113415328.00000000 31187.34960938  2974687.25000000 2361302.75000000 
0.07200    69943760.00000000 44112256.00000000 111088048.00000000 30329.95312500  2902414.50000000 2304144.75000000 
0.07300    68492016.00000000 43207316.00000000 108795832.00000000 29491.76757812  2831508.25000000 2248083.00000000 
0.07400    67063036.00000000 42316440.00000000 106539696.00000000 28672.97070312  2761942.00000000 2193056.50000000 
0.07500    65657644.00000000 41440072.00000000 104318952.00000000 27873.75195312  2693761.25000000 2139127.00000000 
0.07600    64275992.00000000 40577460.00000000 102136136.00000000 27094.16406250  2626963.25000000 2086288.75000000 
0.07700    62918340.00000000 39729768.00000000 99990392.00000000 26334.38281250  2561602.25000000 2034536.12500000 
0.07800    61585276.00000000 38897428.00000000 97883512.00000000 25594.03125000  2497649.25000000 1983925.37500000 
0.07900    60277088.00000000 38080072.00000000 95815080.00000000 24873.38671875  2435122.75000000 1934406.87500000 
0.08000    58993588.00000000 37277940.00000000 93785888.00000000 24172.31445312  2374025.25000000 1886026.50000000 
0.08100    57736060.00000000 36491408.00000000 91796520.00000000 23490.99414062  2314360.50000000 1838766.00000000 
0.08200    56503476.00000000 35720488.00000000 89847136.00000000 22828.98632812  2256136.25000000 1792639.25000000 
0.08300    55296860.00000000 34965560.00000000 87937568.00000000 22186.01562500  2199350.00000000 1747630.00000000 
0.08400    54115740.00000000 34225896.00000000 86068512.00000000 21562.10156250  2143974.50000000 1703739.87500000 
0.08500    52960564.00000000 33502704.00000000 84240168.00000000 20957.15820312  2090047.12500000 1660982.00000000 
0.08600    51831360.00000000 32794870.00000000 82452080.00000000 20370.67382812  2037518.25000000 1619335.50000000 
0.08700    50727680.00000000 32103196.00000000 80704616.00000000 19802.59375000  1986402.37500000 1578780.25000000 
0.08800    49649636.00000000 31427326.00000000 78997392.00000000 19252.55273438  1936679.00000000 1539325.62500000 
0.08900    48597536.00000000 30767412.00000000 77330248.00000000 18720.30078125  1888325.62500000 1500955.25000000 
0.09000    47571144.00000000 30123086.00000000 75703528.00000000 18205.44140625  1841346.87500000 1463672.00000000 
0.09100    46569548.00000000 29494280.00000000 74117000.00000000 17707.59570312  1795712.87500000 1427427.75000000 
0.09200    45593780.00000000 28881392.00000000 72570320.00000000 17226.69726562  1751391.87500000 1392238.75000000 
0.09300    44642704.00000000 28283800.00000000 71061760.00000000 16761.98437500  1708385.62500000 1358083.50000000 
0.09400    43716216.00000000 27701618.00000000 69593352.00000000 16313.25683594  1666656.00000000 1324927.87500000 
0.09500    42814276.00000000 27134464.00000000 68162440.00000000 15880.08789062  1626200.62500000 1292778.62500000 
0.09600    41936376.00000000 26582234.00000000 66770088.00000000 15462.03808594  1586970.75000000 1261590.75000000 
0.09700    41082428.00000000 26045060.00000000 65415220.00000000 15058.84277344  1548951.50000000 1231368.25000000 
0.09800    40252272.00000000 25522206.00000000 64097496.00000000 14669.93652344  1512114.12500000 1202087.87500000 
0.09900    39445048.00000000 25014008.00000000 62815812.00000000 14294.83105469  1476449.25000000 1173706.62500000 
0.10000    38660468.00000000 24519500.00000000 61570264.00000000 13933.10742188  1441901.50000000 1146231.87500000 
0.10100    37898024.00000000 24039196.00000000 60359852.00000000 13584.46679688  1408459.37500000 1119617.00000000 
0.10200    37157844.00000000 23572458.00000000 59184252.00000000 13248.40917969  1376081.87500000 1093854.62500000 
0.10300    36438624.00000000 23119090.00000000 58042172.00000000 12924.36328125  1344744.00000000 1068920.25000000 
0.10400    35740408.00000000 22678898.00000000 56933132.00000000 12611.95996094  1314425.00000000 1044770.56250000 
0.10500    35063084.00000000 22251340.00000000 55856968.00000000 12310.79882812  1285085.12500000 1021420.06250000 
0.10600    34405440.00000000 21836204.00000000 54811980.00000000 12020.29199219  1256680.75000000 998800.31250000 
0.10700    33767412.00000000 21433452.00000000 53797936.00000000 11740.22167969  1229206.50000000 976914.75000000 
0.10800    33147858.00000000 21042392.00000000 52814024.00000000 11469.90429688  1202607.25000000 955732.68750000 
0.10900    32547266.00000000 20663172.00000000 51859012.00000000 11209.04980469  1176871.25000000 935225.25000000 
0.11000    31964384.00000000 20294946.00000000 50932412.00000000 10957.23925781  1151951.00000000 915372.87500000 
0.11100    31398936.00000000 19937874.00000000 50033324.00000000 10713.95214844  1127816.12500000 896143.75000000 
0.11200    30850472.00000000 19591174.00000000 49161320.00000000 10478.84472656  1104448.87500000 877528.50000000 
0.11300    30318334.00000000 19254802.00000000 48315064.00000000 10251.48242188  1081818.00000000 859484.68750000 
0.11400    29801812.00000000 18928452.00000000 47493652.00000000 10031.54492188  1059872.50000000 842002.93750000 
0.11500    29300556.00000000 18611658.00000000 46696724.00000000 9818.57031250   1038608.06250000 825043.06250000 
0.11600    28813954.00000000 18304314.00000000 45923040.00000000 9612.30078125   1017974.06250000 808605.81250000 
0.11700    28341784.00000000 18005670.00000000 45172116.00000000 9412.13378906   997948.31250000 792645.06250000 
0.11800    27882682.00000000 17715792.00000000 44442424.00000000 9217.89453125   978506.37500000 777147.56250000 
0.11900    27437032.00000000 17434060.00000000 43733356.00000000 9029.25683594   959612.37500000 762089.18750000 
0.12000    27003840.00000000 17160312.00000000 43044592.00000000 8845.87500000   941241.81250000 747448.68750000 
0.12100    26582578.00000000 16894360.00000000 42375100.00000000 8667.42187500   923377.12500000 733212.18750000 
0.12200    26173002.00000000 16635636.00000000 41723952.00000000 8493.53515625   905978.81250000 719345.75000000 
0.12300    25774038.00000000 16383892.00000000 41090180.00000000 8324.00390625   889025.06250000 705842.68750000 
0.12400    25385878.00000000 16138870.00000000 40473248.00000000 8158.57080078   872491.18750000 692675.25000000 
0.12500    25007518.00000000 15900097.00000000 39872324.00000000 7996.86230469   856359.81250000 679817.37500000 
0.12600    24638916.00000000 15667580.00000000 39286612.00000000 7838.83984375   840608.00000000 667269.81250000 
0.12700    24279144.00000000 15440729.00000000 38715144.00000000 7684.04003906   825199.12500000 655004.93750000 
0.12800    23928052.00000000 15219485.00000000 38157484.00000000 7532.39453125   810127.93750000 643001.43750000 
0.12900    23585216.00000000 15003455.00000000 37613148.00000000 7383.67041016   795366.68750000 631251.12500000 
0.13000    23249846.00000000 14792331.00000000 37080932.00000000 7237.58398438   780899.37500000 619741.37500000 
0.13100    22921930.00000000 14585918.00000000 36560716.00000000 7094.09179688   766703.50000000 608442.37500000 
0.13200    22600750.00000000 14383912.00000000 36051140.00000000 6952.95117188   752765.62500000 597349.25000000 
0.13300    22286250.00000000 14186131.00000000 35552012.00000000 6814.13330078   739071.43750000 586457.50000000 
0.13400    21977642.00000000 13992254.00000000 35062780.00000000 6677.27441406   725602.00000000 575739.00000000 
0.13500    21674864.00000000 13802039.00000000 34582828.00000000 6542.41992188   712337.81250000 565191.87500000 
0.13600    21377418.00000000 13615342.00000000 34111360.00000000 6409.40722656   699271.81250000 554798.68750000 
0.13700    21084866.00000000 13431979.00000000 33648304.00000000 6278.15771484   686389.62500000 544555.43750000 
0.13800    20797202.00000000 13251554.00000000 33192412.00000000 6148.48876953   673676.81250000 534449.18750000 
0.13900    20513874.00000000 13074057.00000000 32743934.00000000 6020.46777344   661123.93750000 524470.56250000 
0.14000    20234622.00000000 12899223.00000000 32301882.00000000 5893.94140625   648722.50000000 514613.40625000 
0.14100    19959352.00000000 12726860.00000000 31866112.00000000 5768.81591797   636460.87500000 504870.25000000 
0.14200    19687684.00000000 12556903.00000000 31436270.00000000 5645.08154297   624331.75000000 495234.21875000 
0.14300    19419186.00000000 12389060.00000000 31011598.00000000 5522.75048828   612329.12500000 485698.15625000 
0.14400    19153792.00000000 12223233.00000000 30591882.00000000 5401.68212891   600443.12500000 476251.93750000 
0.14500    18891352.00000000 12059326.00000000 30177060.00000000 5281.93896484   588672.56250000 466896.65625000 
0.14600    18631670.00000000 11897232.00000000 29766556.00000000 5163.49218750   577004.56250000 457630.06250000 
0.14700    18374386.00000000 11736657.00000000 29359950.00000000 5046.33837891   565442.25000000 448444.34375000 
0.14800    18119328.00000000 11577532.00000000 28957056.00000000 4930.39941406   553973.62500000 439333.28125000 
0.14900    17866604.00000000 11419845.00000000 28557680.00000000 4815.69970703   542605.87500000 430297.25000000 
0.15000    17615812.00000000 11263526.00000000 28161430.00000000 4702.35449219   531324.50000000 421335.62500000 
0.15100    17366946.00000000 11108384.00000000 27768414.00000000 4590.19873047   520132.53125000 412444.40625000 
0.15200    17119910.00000000 10954374.00000000 27378186.00000000 4479.41210938   509038.87500000 403626.62500000 
0.15300    16874410.00000000 10801469.00000000 26990576.00000000 4369.97851562   498030.37500000 394876.09375000 
0.15400    16630476.00000000 10649456.00000000 26605440.00000000 4261.86523438   487107.81250000 386193.40625000 
0.15500    16388200.00000000 10498519.00000000 26222776.00000000 4155.15917969   476273.06250000 377580.81250000 
0.15600    16147244.00000000 10348341.00000000 25842118.00000000 4049.86010742   465529.31250000 369035.68750000 
0.15700    15907660.00000000 10199115.00000000 25463810.00000000 3946.03442383   454876.15625000 360563.93750000 
0.15800    15669317.00000000 10050626.00000000 25087420.00000000 3843.64038086   444310.15625000 352158.09375000 
0.15900    15432315.00000000 9902921.00000000 24713162.00000000 3742.80200195   433837.75000000 343829.37500000 
0.16000    15196553.00000000 9755975.00000000 24340816.00000000 3643.51562500   423462.40625000 335569.15625000 
0.16100    14962133.00000000 9609807.00000000 23970502.00000000 3545.80737305   413184.50000000 327387.87500000 
0.16200    14728876.00000000 9464359.00000000 23601880.00000000 3449.75781250   403005.28125000 319282.90625000 
0.16300    14496901.00000000 9319563.00000000 23235122.00000000 3355.35522461   392928.96875000 311257.87500000 
0.16400    14266063.00000000 9175599.00000000 22870488.00000000 3262.67773438   382957.28125000 303314.00000000 
0.16500    14036518.00000000 9032253.00000000 22507726.00000000 3171.72851562   373095.15625000 295454.78125000 
0.16600    13808297.00000000 8889784.00000000 22146706.00000000 3082.57519531   363344.31250000 287682.56250000 
0.16700    13581330.00000000 8747919.00000000 21787624.00000000 2995.19580078   353707.34375000 279996.00000000 
0.16800    13355602.00000000 8606844.00000000 21430660.00000000 2909.64941406   344186.81250000 272401.84375000 
0.16900    13131400.00000000 8466654.00000000 21075800.00000000 2825.99755859   334794.00000000 264906.28125000 
0.17000    12908563.00000000 8327090.50000000 20723286.00000000 2744.21606445   325520.43750000 257504.39062500 
