# SAXS profile: number of points = 501, q_min = 0, q_max = 0.5, delta_q = 0.001
#    q    intensity 
0.00000    162235696.00000000 101202200.00000000 256270272.00000000 105940.24218750 8291650.00000000 6548684.50000000 
0.00100    162205488.00000000 101182072.00000000 256220672.00000000 105912.57031250 8289693.50000000 6547169.00000000 
0.00200    162113472.00000000 101124160.00000000 256072896.00000000 105828.64843750 8283982.50000000 6542674.00000000 
0.00300    161957632.00000000 101026896.00000000 255825728.00000000 105689.22656250 8274430.00000000 6535168.00000000 
0.00400    161738560.00000000 100891016.00000000 255479648.00000000 105494.32031250 8261014.50000000 6524688.00000000 
0.00500    161453984.00000000 100717064.00000000 255035008.00000000 105243.95312500 8243873.50000000 6511235.50000000 
0.00600    161106416.00000000 100504240.00000000 254491120.00000000 104938.64062500 8222970.00000000 6494840.00000000 
0.00700    160697840.00000000 100253056.00000000 253852064.00000000 104579.53125000 8198336.00000000 6475477.50000000 
0.00800    160226848.00000000 99965624.00000000 253117440.00000000 104167.04687500 8169975.50000000 6453256.00000000 
0.00900    159692688.00000000 99640336.00000000 252287648.00000000 103701.22656250 8138024.50000000 6428117.50000000 
0.01000    159102560.00000000 99278904.00000000 251363536.00000000 103183.55468750 8102418.50000000 6400249.50000000 
0.01100    158454672.00000000 98881104.00000000 250345120.00000000 102614.32812500 8063244.00000000 6369532.50000000 
0.01200    157748240.00000000 98446984.00000000 249235456.00000000 101994.40625000 8020632.50000000 6336097.50000000 
0.01300    156984272.00000000 97976392.00000000 248037152.00000000 101325.81250000 7974566.50000000 6299909.00000000 
0.01400    156161440.00000000 97472016.00000000 246748480.00000000 100608.13281250 7925185.50000000 6261165.00000000 
0.01500    155284000.00000000 96932744.00000000 245374288.00000000 99844.08593750  7872489.50000000 6219834.50000000 
0.01600    154352048.00000000 96360280.00000000 243914304.00000000 99033.84375000  7816554.00000000 6175896.00000000 
0.01700    153366912.00000000 95755624.00000000 242370688.00000000 98179.67968750  7757510.50000000 6129582.00000000 
0.01800    152330912.00000000 95119112.00000000 240745904.00000000 97281.04687500  7695440.00000000 6080811.00000000 
0.01900    151243504.00000000 94451864.00000000 239040832.00000000 96342.55468750  7630402.00000000 6029738.50000000 
0.02000    150107120.00000000 93753944.00000000 237259696.00000000 95362.39062500  7562465.50000000 5976453.50000000 
0.02100    148922400.00000000 93026456.00000000 235403824.00000000 94344.06250000  7491799.00000000 5920942.00000000 
0.02200    147692336.00000000 92270144.00000000 233473344.00000000 93288.56250000  7418448.00000000 5863393.50000000 
0.02300    146416960.00000000 91486280.00000000 231474848.00000000 92197.91406250  7342538.50000000 5803760.50000000 
0.02400    145098400.00000000 90675976.00000000 229406848.00000000 91073.04687500  7264185.00000000 5742241.00000000 
0.02500    143738256.00000000 89840080.00000000 227273920.00000000 89916.42187500  7183468.50000000 5678830.50000000 
0.02600    142337952.00000000 88979440.00000000 225077632.00000000 88730.28906250  7100499.00000000 5613667.50000000 
0.02700    140898928.00000000 88095112.00000000 222822528.00000000 87514.83593750  7015441.50000000 5546893.50000000 
0.02800    139424704.00000000 87188328.00000000 220508496.00000000 86273.23437500  6928348.00000000 5478451.00000000 
0.02900    137915040.00000000 86259192.00000000 218139744.00000000 85006.43750000  6839376.50000000 5408535.50000000 
0.03000    136372640.00000000 85310040.00000000 215720896.00000000 83716.64062500  6748581.50000000 5337231.50000000 
0.03100    134798000.00000000 84340984.00000000 213250656.00000000 82405.88281250  6656158.50000000 5264596.50000000 
0.03200    133194792.00000000 83354464.00000000 210735552.00000000 81076.10156250  6562184.00000000 5190755.50000000 
0.03300    131564432.00000000 82350544.00000000 208175888.00000000 79728.25000000  6466847.00000000 5115818.00000000 
0.03400    129907232.00000000 81330264.00000000 205576368.00000000 78365.78906250  6370153.50000000 5039840.50000000 
0.03500    128227032.00000000 80295600.00000000 202938688.00000000 76989.71875000  6272319.50000000 4962905.50000000 
0.03600    126525168.00000000 79246320.00000000 200266928.00000000 75601.60937500  6173388.50000000 4885158.00000000 
0.03700    124802248.00000000 78184680.00000000 197561968.00000000 74203.16406250  6073552.00000000 4806663.50000000 
0.03800    123061800.00000000 77111928.00000000 194827584.00000000 72797.69531250  5972893.00000000 4727480.00000000 
0.03900    121305144.00000000 76029272.00000000 192070240.00000000 71385.44531250  5871552.50000000 4647771.00000000 
0.04000    119533928.00000000 74937368.00000000 189288496.00000000 69969.12500000  5769625.00000000 4567609.00000000 
0.04100    117750184.00000000 73837320.00000000 186484912.00000000 68549.25781250  5667278.00000000 4487092.50000000 
0.04200    115955640.00000000 72729936.00000000 183666496.00000000 67129.28125000  5564534.00000000 4406269.00000000 
0.04300    114151632.00000000 71616728.00000000 180832560.00000000 65709.81250000  5461554.00000000 4325264.50000000 
0.04400    112340064.00000000 70499096.00000000 177986464.00000000 64292.70312500  5358515.50000000 4244105.00000000 
0.04500    110524072.00000000 69377792.00000000 175131056.00000000 62879.64843750  5255420.00000000 4162989.50000000 
0.04600    108704600.00000000 68253336.00000000 172270544.00000000 61472.06250000  5152478.00000000 4081896.75000000 
0.04700    106882808.00000000 67127448.00000000 169406176.00000000 60071.63671875  5049697.00000000 4000995.50000000 
0.04800    105061440.00000000 66001288.00000000 166541712.00000000 58679.70703125  4947226.50000000 3920289.75000000 
0.04900    103240960.00000000 64875672.00000000 163679440.00000000 57297.87109375  4845215.00000000 3839918.75000000 
0.05000    101423800.00000000 63751456.00000000 160820240.00000000 55927.50781250  4743656.50000000 3759930.75000000 
0.05100    99610848.00000000 62630324.00000000 157969264.00000000 54569.72656250  4642731.50000000 3680393.50000000 
0.05200    97805464.00000000 61512104.00000000 155126320.00000000 53225.65625000  4542469.00000000 3601390.50000000 
0.05300    96006856.00000000 60398876.00000000 152295264.00000000 51897.07421875  4443017.50000000 3522989.50000000 
0.05400    94217808.00000000 59290712.00000000 149480080.00000000 50584.76953125  4344418.00000000 3445242.25000000 
0.05500    92439336.00000000 58188852.00000000 146680000.00000000 49289.35546875  4246777.50000000 3368226.25000000 
0.05600    90673032.00000000 57093932.00000000 143898160.00000000 48012.57812500  4150110.50000000 3292013.00000000 
0.05700    88920592.00000000 56006976.00000000 141136656.00000000 46755.21875000  4054598.75000000 3216637.00000000 
0.05800    87182112.00000000 54929028.00000000 138398512.00000000 45518.28125000  3960199.00000000 3142187.75000000 
0.05900    85459296.00000000 53859920.00000000 135684688.00000000 44301.86718750  3867061.75000000 3068660.75000000 
0.06000    83753768.00000000 52801276.00000000 132998936.00000000 43107.37890625  3775217.25000000 2996158.75000000 
0.06100    82066800.00000000 51753704.00000000 130339800.00000000 41935.26562500  3684713.75000000 2924696.25000000 
0.06200    80398704.00000000 50717276.00000000 127710392.00000000 40786.35546875  3595598.75000000 2854334.50000000 
0.06300    78751320.00000000 49693196.00000000 125112336.00000000 39661.03515625  3507950.00000000 2785116.50000000 
0.06400    77125136.00000000 48681928.00000000 122546800.00000000 38559.54296875  3421797.00000000 2717015.25000000 
0.06500    75521376.00000000 47683912.00000000 120016320.00000000 37482.88671875  3337191.00000000 2650166.75000000 
0.06600    73940000.00000000 46699768.00000000 117520800.00000000 36431.28906250  3254178.25000000 2584557.00000000 
0.06700    72382624.00000000 45729884.00000000 115062680.00000000 35404.80468750  3172748.00000000 2520177.25000000 
0.06800    70849640.00000000 44775064.00000000 112642952.00000000 34403.71875000  3092966.75000000 2457092.00000000 
0.06900    69341256.00000000 43835564.00000000 110261952.00000000 33428.17578125  3014885.00000000 2395294.00000000 
0.07000    67860056.00000000 42911564.00000000 107921288.00000000 32478.55078125  2938479.50000000 2334840.50000000 
0.07100    66403948.00000000 42003720.00000000 105621824.00000000 31554.48046875  2863756.75000000 2275725.00000000 
0.07200    64974396.00000000 41111756.00000000 103363752.00000000 30656.43164062  2790791.00000000 2217946.50000000 
0.07300    63573152.00000000 40236316.00000000 101148224.00000000 29784.08984375  2719559.25000000 2161527.00000000 
0.07400    62199204.00000000 39378292.00000000 98976232.00000000 28937.52343750  2650057.50000000 2106480.00000000 
0.07500    60852664.00000000 38536708.00000000 96847856.00000000 28116.63671875  2582332.25000000 2052805.50000000 
0.07600    59535040.00000000 37712560.00000000 94763512.00000000 27320.87695312  2516320.75000000 2000511.12500000 
0.07700    58245572.00000000 36905936.00000000 92723352.00000000 26550.40820312  2452077.75000000 1949555.62500000 
0.07800    56984540.00000000 36116800.00000000 90727736.00000000 25804.73828125  2389572.50000000 1900009.62500000 
0.07900    55752236.00000000 35345024.00000000 88777712.00000000 25083.73242188  2328807.00000000 1851808.25000000 
0.08000    54549232.00000000 34591332.00000000 86872472.00000000 24386.61914062  2269745.75000000 1804947.87500000 
0.08100    53374748.00000000 33855020.00000000 85012568.00000000 23713.52734375  2212418.75000000 1759444.50000000 
0.08200    52229068.00000000 33136546.00000000 83197888.00000000 23063.75195312  2156764.25000000 1715260.75000000 
0.08300    51112132.00000000 32435648.00000000 81428008.00000000 22436.86132812  2102801.25000000 1672406.00000000 
0.08400    50023548.00000000 31752160.00000000 79703560.00000000 21832.24804688  2050454.37500000 1630832.50000000 
0.08500    48963648.00000000 31086416.00000000 78023000.00000000 21249.67187500  1999760.00000000 1590545.00000000 
0.08600    47932108.00000000 30438066.00000000 76387128.00000000 20688.34179688  1950668.50000000 1551523.00000000 
0.08700    46928456.00000000 29807182.00000000 74794728.00000000 20147.69921875  1903134.87500000 1513737.50000000 
0.08800    45952208.00000000 29193182.00000000 73246888.00000000 19627.59179688  1857142.62500000 1477158.62500000 
0.08900    45003328.00000000 28596290.00000000 71741408.00000000 19126.78515625  1812664.62500000 1441781.50000000 
0.09000    44082080.00000000 28016072.00000000 70278952.00000000 18645.07031250  1769657.25000000 1407566.62500000 
0.09100    43187176.00000000 27452348.00000000 68858136.00000000 18181.73828125  1728100.00000000 1374481.62500000 
0.09200    42318560.00000000 26904766.00000000 67478744.00000000 17736.22070312  1687930.62500000 1342514.50000000 
0.09300    41475672.00000000 26373562.00000000 66140476.00000000 17307.79687500  1649150.12500000 1311628.75000000 
0.09400    40658236.00000000 25857778.00000000 64841732.00000000 16895.68359375  1611689.75000000 1281796.00000000 
0.09500    39865244.00000000 25357634.00000000 63581720.00000000 16499.35156250  1575505.12500000 1252978.25000000 
0.09600    39097248.00000000 24872532.00000000 62361084.00000000 16118.30761719  1540581.37500000 1225144.12500000 
0.09700    38352516.00000000 24402232.00000000 61177284.00000000 15751.73242188  1506867.87500000 1198277.12500000 
0.09800    37631036.00000000 23946526.00000000 60030608.00000000 15398.91796875  1474327.37500000 1172334.62500000 
0.09900    36932280.00000000 23504926.00000000 58919592.00000000 15059.42578125  1442909.00000000 1147292.37500000 
0.10000    36255760.00000000 23077158.00000000 57843336.00000000 14732.38476562  1412577.12500000 1123100.25000000 
0.10100    35600708.00000000 22662840.00000000 56800976.00000000 14417.34375000  1383275.50000000 1099741.37500000 
0.10200    34966168.00000000 22261628.00000000 55791860.00000000 14113.67285156  1354990.00000000 1077174.75000000 
0.10300    34352148.00000000 21872870.00000000 54814648.00000000 13820.60644531  1327660.50000000 1055380.62500000 
0.10400    33757380.00000000 21496666.00000000 53868708.00000000 13537.80957031  1301253.50000000 1034316.00000000 
0.10500    33181514.00000000 21132356.00000000 52952800.00000000 13264.56347656  1275730.75000000 1013943.56250000 
0.10600    32624252.00000000 20779496.00000000 52065432.00000000 13000.09375000  1251020.50000000 994241.12500000 
0.10700    32084530.00000000 20437780.00000000 51206528.00000000 12744.22265625  1227123.62500000 975171.25000000 
0.10800    31561884.00000000 20106850.00000000 50374396.00000000 12496.20214844  1203982.00000000 956716.62500000 
0.10900    31055510.00000000 19786116.00000000 49568652.00000000 12255.57226562  1181556.62500000 938822.37500000 
0.11000    30564748.00000000 19475318.00000000 48787532.00000000 12021.79199219  1159804.00000000 921479.62500000 
0.11100    30089130.00000000 19174238.00000000 48030552.00000000 11794.44433594  1138699.62500000 904647.18750000 
0.11200    29627960.00000000 18882086.00000000 47296272.00000000 11572.96679688  1118204.87500000 888301.31250000 
0.11300    29180520.00000000 18598908.00000000 46584048.00000000 11357.10546875  1098279.25000000 872414.00000000 
0.11400    28746130.00000000 18323824.00000000 45893124.00000000 11146.29199219  1078892.87500000 856956.93750000 
0.11500    28324414.00000000 18057120.00000000 45221924.00000000 10940.24511719  1060009.50000000 841907.31250000 
0.11600    27914690.00000000 17797682.00000000 44569844.00000000 10738.45898438  1041589.50000000 827232.75000000 
0.11700    27515904.00000000 17545634.00000000 43936084.00000000 10540.73437500  1023613.18750000 812916.87500000 
0.11800    27128154.00000000 17300344.00000000 43319088.00000000 10346.47949219  1006042.87500000 798922.25000000 
0.11900    26750390.00000000 17061684.00000000 42718388.00000000 10155.75683594  988858.62500000 785241.50000000 
0.12000    26382160.00000000 16829096.00000000 42133080.00000000 9967.93359375   972021.12500000 771848.06250000 
0.12100    26023144.00000000 16602391.00000000 41562556.00000000 9782.99902344   955524.43750000 758718.31250000 
0.12200    25672462.00000000 16381195.00000000 41005472.00000000 9600.61718750   939325.87500000 745834.00000000 
0.12300    25329836.00000000 16165107.00000000 40460948.00000000 9420.52539062   923410.93750000 733180.56250000 
0.12400    24994660.00000000 15953825.00000000 39928900.00000000 9242.52148438   907747.81250000 720734.25000000 
0.12500    24666446.00000000 15746997.00000000 39407540.00000000 9066.46093750   892323.50000000 708477.25000000 
0.12600    24344940.00000000 15544554.00000000 38897468.00000000 8892.26953125   877122.18750000 696407.25000000 
0.12700    24029344.00000000 15345920.00000000 38397000.00000000 8719.64746094   862120.31250000 684498.00000000 
0.12800    23719396.00000000 15151169.00000000 37905312.00000000 8548.50976562   847294.43750000 672730.93750000 
0.12900    23414744.00000000 14959762.00000000 37422184.00000000 8378.72265625   832644.37500000 661107.68750000 
0.13000    23114846.00000000 14771530.00000000 36947152.00000000 8210.37402344   818143.18750000 649604.50000000 
0.13100    22819392.00000000 14586041.00000000 36479172.00000000 8043.08349609   803782.56250000 638215.37500000 
0.13200    22528088.00000000 14403377.00000000 36017632.00000000 7877.05761719   789548.68750000 626939.25000000 
0.13300    22240696.00000000 14223375.00000000 35562556.00000000 7712.17285156   775441.06250000 615756.25000000 
0.13400    21956612.00000000 14045501.00000000 35112856.00000000 7548.33007812   761429.93750000 604658.75000000 
0.13500    21675684.00000000 13869669.00000000 34668456.00000000 7385.56201172   747528.37500000 593643.25000000 
0.13600    21397682.00000000 13695759.00000000 34228784.00000000 7223.92041016   733711.12500000 582704.81250000 
0.13700    21122144.00000000 13523530.00000000 33793008.00000000 7063.31445312   719989.50000000 571839.75000000 
0.13800    20849112.00000000 13352965.00000000 33361418.00000000 6903.78466797   706346.81250000 561037.81250000 
0.13900    20578280.00000000 13183911.00000000 32933188.00000000 6745.41503906   692780.50000000 550297.56250000 
0.14000    20309374.00000000 13015927.00000000 32508342.00000000 6588.17480469   679294.06250000 539619.25000000 
0.14100    20042150.00000000 12849245.00000000 32086458.00000000 6432.14990234   665876.06250000 528999.68750000 
0.14200    19776606.00000000 12683578.00000000 31666612.00000000 6277.34179688   652529.43750000 518437.09375000 
0.14300    19512578.00000000 12518933.00000000 31249624.00000000 6123.92041016   639250.56250000 507927.37500000 
0.14400    19249618.00000000 12355003.00000000 30834330.00000000 5971.78320312   626043.25000000 497470.00000000 
0.14500    18988112.00000000 12191952.00000000 30421452.00000000 5821.12695312   612910.25000000 487075.12500000 
0.14600    18727580.00000000 12029603.00000000 30010144.00000000 5671.98242188   599847.56250000 476738.65625000 
0.14700    18468112.00000000 11867879.00000000 29600292.00000000 5524.48437500   586860.43750000 466457.96875000 
0.14800    18209492.00000000 11706726.00000000 29192090.00000000 5378.56201172   573949.00000000 456233.37500000 
0.14900    17951636.00000000 11546194.00000000 28785184.00000000 5234.42236328   561116.87500000 446073.59375000 
0.15000    17694856.00000000 11386044.00000000 28379358.00000000 5092.10693359   548371.75000000 435977.03125000 
0.15100    17438652.00000000 11226324.00000000 27975152.00000000 4951.75146484   535713.43750000 425948.68750000 
0.15200    17183412.00000000 11067308.00000000 27571862.00000000 4813.39746094   523146.53125000 415994.71875000 
0.15300    16928814.00000000 10908552.00000000 27169972.00000000 4677.06738281   510675.06250000 406114.43750000 
0.15400    16675099.00000000 10750309.00000000 26769202.00000000 4542.89404297   498309.59375000 396307.62500000 
0.15500    16422132.00000000 10592523.00000000 26369356.00000000 4410.97998047   486046.87500000 386587.18750000 
0.15600    16169894.00000000 10435071.00000000 25970772.00000000 4281.39746094   473897.31250000 376951.84375000 
0.15700    15918619.00000000 10278205.00000000 25574020.00000000 4154.20214844   461869.31250000 367408.50000000 
0.15800    15668174.00000000 10121788.00000000 25177882.00000000 4029.45629883   449960.25000000 357956.84375000 
0.15900    15418727.00000000 9965868.00000000 24783394.00000000 3907.25805664   438182.06250000 348605.34375000 
0.16000    15170233.00000000 9810526.00000000 24390466.00000000 3787.62255859   426539.68750000 339359.40625000 
0.16100    14922865.00000000 9655825.00000000 23999164.00000000 3670.66845703   415042.90625000 330222.40625000 
0.16200    14676600.00000000 9501634.00000000 23609436.00000000 3556.43823242   403682.93750000 321197.18750000 
0.16300    14431576.00000000 9348123.00000000 23221620.00000000 3444.93725586   392479.00000000 312289.81250000 
0.16400    14187842.00000000 9195342.00000000 22835538.00000000 3336.27441406   381434.87500000 303501.62500000 
0.16500    13945403.00000000 9043376.00000000 22451454.00000000 3230.42993164   370549.46875000 294840.62500000 
0.16600    13704508.00000000 8892158.00000000 22069656.00000000 3127.49975586   359836.71875000 286309.75000000 
0.16700    13465091.00000000 8741751.00000000 21690110.00000000 3027.44238281   349293.62500000 277913.65625000 
0.16800    13227372.00000000 8592247.00000000 21313032.00000000 2930.31591797   338927.31250000 269650.84375000 
0.16900    12991387.00000000 8443867.00000000 20938718.00000000 2836.17456055   328747.15625000 261535.21875000 
0.17000    12757325.00000000 8296351.50000000 20567130.00000000 2745.01000977   318752.96875000 253558.43750000 
