# SAXS profile: number of points = 501, q_min = 0, q_max = 0.5, delta_q = 0.001
#    q    intensity 
0.00000    162236080.00000000 101202096.00000000 256271632.00000000 101029.47656250 8097161.50000000 6395120.00000000 
0.00100    162204512.00000000 101180976.00000000 256218896.00000000 101003.09375000 8095239.50000000 6393588.00000000 
0.00200    162106016.00000000 101119232.00000000 256060752.00000000 100923.21875000 8089500.50000000 6389087.50000000 
0.00300    161940576.00000000 101015824.00000000 255797120.00000000 100789.85937500 8079982.00000000 6381616.00000000 
0.00400    161705392.00000000 100871808.00000000 255430128.00000000 100603.68750000 8066599.00000000 6371168.00000000 
0.00500    161402864.00000000 100686360.00000000 254956944.00000000 100365.50000000 8049499.50000000 6357721.50000000 
0.00600    161034448.00000000 100460152.00000000 254378944.00000000 100075.05468750 8028641.50000000 6341319.00000000 
0.00700    160602256.00000000 100193064.00000000 253700656.00000000 99732.46093750  8004076.00000000 6322047.50000000 
0.00800    160101168.00000000 99886952.00000000 252919472.00000000 99339.23437500  7975828.00000000 6299882.50000000 
0.00900    159536896.00000000 99541872.00000000 252038896.00000000 98895.57031250  7943912.50000000 6274836.00000000 
0.01000    158910224.00000000 99157208.00000000 251055520.00000000 98401.97656250  7908451.50000000 6246991.50000000 
0.01100    158222480.00000000 98734816.00000000 249976064.00000000 97859.90625000  7869419.50000000 6216353.50000000 
0.01200    157473120.00000000 98273584.00000000 248800608.00000000 97269.24218750  7826938.50000000 6183021.00000000 
0.01300    156663312.00000000 97775016.00000000 247527808.00000000 96632.47656250  7781053.50000000 6146996.00000000 
0.01400    155792464.00000000 97239376.00000000 246162656.00000000 95949.76562500  7731825.50000000 6108328.50000000 
0.01500    154861408.00000000 96668264.00000000 244705616.00000000 95221.89843750  7679357.50000000 6067169.00000000 
0.01600    153875456.00000000 96061520.00000000 243159808.00000000 94450.89062500  7623716.50000000 6023460.00000000 
0.01700    152833840.00000000 95421184.00000000 241526096.00000000 93637.35156250  7564954.00000000 5977339.50000000 
0.01800    151738880.00000000 94748112.00000000 239807264.00000000 92783.69531250  7503189.00000000 5928870.50000000 
0.01900    150590032.00000000 94041352.00000000 238005712.00000000 91889.78906250  7438520.00000000 5878096.00000000 
0.02000    149390160.00000000 93303264.00000000 236123904.00000000 90957.97656250  7371036.50000000 5825100.50000000 
0.02100    148140880.00000000 92534760.00000000 234163456.00000000 89990.03906250  7300824.50000000 5769957.50000000 
0.02200    146843952.00000000 91736880.00000000 232127824.00000000 88986.60156250  7227946.50000000 5712719.00000000 
0.02300    145499904.00000000 90909488.00000000 230020160.00000000 87950.10937500  7152646.00000000 5653553.50000000 
0.02400    144112688.00000000 90055552.00000000 227842336.00000000 86881.88281250  7074885.50000000 5592467.00000000 
0.02500    142681552.00000000 89175184.00000000 225596928.00000000 85783.71875000  6994884.50000000 5529599.00000000 
0.02600    141210016.00000000 88268816.00000000 223286832.00000000 84656.60156250  6912627.00000000 5465016.00000000 
0.02700    139699984.00000000 87339632.00000000 220917664.00000000 83502.90625000  6828374.50000000 5398794.50000000 
0.02800    138152688.00000000 86386008.00000000 218488320.00000000 82324.16406250  6742176.00000000 5331065.50000000 
0.02900    136569920.00000000 85411168.00000000 216005104.00000000 81123.05468750  6654131.00000000 5261882.00000000 
0.03000    134955056.00000000 84416128.00000000 213469488.00000000 79899.95312500  6564398.50000000 5191339.00000000 
0.03100    133308776.00000000 83401568.00000000 210884240.00000000 78657.11718750  6473067.00000000 5119543.00000000 
0.03200    131633712.00000000 82368552.00000000 208254160.00000000 77397.04687500  6380298.00000000 5046607.50000000 
0.03300    129932240.00000000 81319648.00000000 205581232.00000000 76120.62500000  6286189.00000000 4972613.00000000 
0.03400    128205864.00000000 80255272.00000000 202869072.00000000 74830.95312500  6190884.50000000 4897666.00000000 
0.03500    126455512.00000000 79175920.00000000 200120064.00000000 73527.91406250  6094475.50000000 4821868.00000000 
0.03600    124685376.00000000 78083552.00000000 197341024.00000000 72214.35937500  5997076.50000000 4745260.00000000 
0.03700    122896216.00000000 76979408.00000000 194528944.00000000 70892.02343750  5898853.00000000 4667990.00000000 
0.03800    121091008.00000000 75864800.00000000 191691760.00000000 69563.42187500  5799888.00000000 4590156.00000000 
0.03900    119271336.00000000 74741448.00000000 188831904.00000000 68228.65625000  5700382.50000000 4511869.00000000 
0.04000    117438696.00000000 73610296.00000000 185952064.00000000 66890.40625000  5600359.50000000 4433148.50000000 
0.04100    115595968.00000000 72471848.00000000 183054896.00000000 65550.34375000  5499977.00000000 4354179.50000000 
0.04200    113744080.00000000 71328072.00000000 180143328.00000000 64209.95703125  5399318.00000000 4274955.00000000 
0.04300    111886616.00000000 70179344.00000000 177221184.00000000 62870.71484375  5298566.50000000 4195603.50000000 
0.04400    110023944.00000000 69027528.00000000 174291664.00000000 61534.58984375  5197788.50000000 4116252.50000000 
0.04500    108158968.00000000 67873440.00000000 171359232.00000000 60202.60546875  5097058.50000000 4036957.00000000 
0.04600    106293112.00000000 66719364.00000000 168423104.00000000 58876.12500000  4996572.00000000 3957805.00000000 
0.04700    104428392.00000000 65565084.00000000 165489184.00000000 57557.30468750  4896360.50000000 3878869.50000000 
0.04800    102566176.00000000 64412512.00000000 162558544.00000000 56246.98437500  4796566.50000000 3800228.00000000 
0.04900    100708824.00000000 63262360.00000000 159636032.00000000 54946.73437500  4697248.00000000 3721979.50000000 
0.05000    98857896.00000000 62115652.00000000 156720768.00000000 53658.20703125  4598557.50000000 3644181.50000000 
0.05100    97015352.00000000 60973848.00000000 153820720.00000000 52381.38671875  4500533.00000000 3566910.50000000 
0.05200    95182696.00000000 59837528.00000000 150934192.00000000 51118.33984375  4403248.50000000 3490228.25000000 
0.05300    93361208.00000000 58707796.00000000 148064576.00000000 49870.14843750  4306905.50000000 3414247.50000000 
0.05400    91552184.00000000 57585520.00000000 145214096.00000000 48638.02343750  4211424.50000000 3338965.00000000 
0.05500    89757760.00000000 56471624.00000000 142386752.00000000 47422.25390625  4116991.75000000 3264488.75000000 
0.05600    87978416.00000000 55367028.00000000 139582944.00000000 46224.30859375  4023647.50000000 3190834.25000000 
0.05700    86216808.00000000 54272932.00000000 136804864.00000000 45045.18359375  3931494.25000000 3118105.25000000 
0.05800    84471776.00000000 53189460.00000000 134057200.00000000 43885.02343750  3840527.25000000 3046307.00000000 
0.05900    82747672.00000000 52117432.00000000 131337912.00000000 42745.30078125  3750865.00000000 2975512.00000000 
0.06000    81043416.00000000 51058100.00000000 128650392.00000000 41625.96875000  3662546.75000000 2905790.00000000 
0.06100    79362128.00000000 50011624.00000000 125996472.00000000 40527.98046875  3575619.25000000 2837142.75000000 
0.06200    77702320.00000000 48979116.00000000 123378576.00000000 39451.85156250  3490148.50000000 2769641.00000000 
0.06300    76066960.00000000 47960956.00000000 120798056.00000000 38398.37890625  3406169.25000000 2703294.50000000 
0.06400    74455880.00000000 46957728.00000000 118255056.00000000 37367.45703125  3323712.25000000 2638132.50000000 
0.06500    72870984.00000000 45969756.00000000 115751840.00000000 36359.83593750  3242850.50000000 2574210.75000000 
0.06600    71310872.00000000 44997984.00000000 113289512.00000000 35375.36328125  3163562.00000000 2511541.25000000 
0.06700    69778720.00000000 44042416.00000000 110869400.00000000 34414.54687500  3085915.00000000 2450124.75000000 
0.06800    68273880.00000000 43103628.00000000 108492040.00000000 33477.67578125  3009935.00000000 2390019.50000000 
0.06900    66797480.00000000 42181944.00000000 106159592.00000000 32564.48437500  2935590.75000000 2331228.75000000 
0.07000    65349388.00000000 41277952.00000000 103870720.00000000 31675.82421875  2862959.75000000 2273758.75000000 
0.07100    63930020.00000000 40391812.00000000 101627104.00000000 30810.75390625  2792022.00000000 2217627.25000000 
0.07200    62540748.00000000 39523396.00000000 99429904.00000000 29969.81445312  2722802.25000000 2162845.00000000 
0.07300    61180992.00000000 38673156.00000000 97280120.00000000 29152.65820312  2655304.50000000 2109390.50000000 
0.07400    59851424.00000000 37841456.00000000 95176664.00000000 28359.30078125  2589519.00000000 2057283.00000000 
0.07500    58551816.00000000 37028512.00000000 93120288.00000000 27589.58593750  2525470.50000000 2006532.75000000 
0.07600    57282420.00000000 36233780.00000000 91112424.00000000 26843.03515625  2463103.50000000 1957138.37500000 
0.07700    56043976.00000000 35457904.00000000 89151600.00000000 26119.69726562  2402460.25000000 1909080.87500000 
0.07800    54835332.00000000 34701064.00000000 87238416.00000000 25419.17382812  2343510.25000000 1862356.25000000 
0.07900    53657280.00000000 33962372.00000000 85372688.00000000 24740.91992188  2286209.25000000 1816941.00000000 
0.08000    52509412.00000000 33242806.00000000 83555080.00000000 24084.72265625  2230619.50000000 1772836.87500000 
0.08100    51392012.00000000 32541854.00000000 81784992.00000000 23450.16796875  2176625.00000000 1730029.00000000 
0.08200    50304728.00000000 31859352.00000000 80061544.00000000 22836.90234375  2124294.25000000 1688500.62500000 
0.08300    49246804.00000000 31195174.00000000 78385600.00000000 22244.15820312  2073519.87500000 1648225.87500000 
0.08400    48218564.00000000 30549446.00000000 76756192.00000000 21671.57617188  2024325.87500000 1609188.12500000 
0.08500    47219312.00000000 29921868.00000000 75171696.00000000 21119.03320312  1976691.12500000 1571369.87500000 
0.08600    46249236.00000000 29312170.00000000 73633384.00000000 20585.67773438  1930557.87500000 1534741.37500000 
0.08700    45307404.00000000 28719816.00000000 72139648.00000000 20070.81054688  1885890.00000000 1499268.87500000 
0.08800    44393164.00000000 28145212.00000000 70690648.00000000 19574.09375000  1842678.75000000 1464960.62500000 
0.08900    43507104.00000000 27587530.00000000 69283440.00000000 19094.87109375  1800868.37500000 1431755.00000000 
0.09000    42647632.00000000 27046852.00000000 67920336.00000000 18632.39453125  1760432.12500000 1399631.37500000 
0.09100    41815092.00000000 26522598.00000000 66599204.00000000 18186.45117188  1721335.37500000 1368551.62500000 
0.09200    41008020.00000000 26014416.00000000 65318444.00000000 17756.29101562  1683522.12500000 1338520.75000000 
0.09300    40226336.00000000 25522328.00000000 64077824.00000000 17341.29101562  1646974.50000000 1309465.12500000 
0.09400    39469516.00000000 25045400.00000000 62876456.00000000 16940.60156250  1611630.25000000 1281372.62500000 
0.09500    38736912.00000000 24583662.00000000 61713148.00000000 16554.01171875  1577463.25000000 1254214.25000000 
0.09600    38027552.00000000 24136836.00000000 60587128.00000000 16180.65722656  1544424.25000000 1227956.00000000 
0.09700    37341444.00000000 23704274.00000000 59497328.00000000 15820.08789062  1512487.00000000 1202560.62500000 
0.09800    36677028.00000000 23285800.00000000 58442532.00000000 15471.75683594  1481592.00000000 1178002.75000000 
0.09900    36034200.00000000 22880662.00000000 57421932.00000000 15135.04003906  1451712.87500000 1154234.00000000 
0.10000    35412344.00000000 22488504.00000000 56434144.00000000 14809.16308594  1422780.62500000 1131243.00000000 
0.10100    34810348.00000000 22109196.00000000 55478564.00000000 14493.67089844  1394787.50000000 1108980.00000000 
0.10200    34227960.00000000 21742126.00000000 54553428.00000000 14188.28515625  1367676.00000000 1087426.25000000 
0.10300    33663844.00000000 21386704.00000000 53658276.00000000 13892.07910156  1341409.00000000 1066531.62500000 
0.10400    33118000.00000000 21042884.00000000 52791548.00000000 13604.95019531  1315937.62500000 1046278.68750000 
0.10500    32589488.00000000 20709834.00000000 51952496.00000000 13326.03320312  1291235.37500000 1026633.75000000 
0.10600    32077390.00000000 20387230.00000000 51139808.00000000 13055.01171875  1267242.50000000 1007566.81250000 
0.10700    31581432.00000000 20074882.00000000 50351996.00000000 12791.40820312  1243943.00000000 989044.00000000 
0.10800    31100310.00000000 19772088.00000000 49588968.00000000 12534.80078125  1221289.87500000 971041.75000000 
0.10900    30633798.00000000 19478574.00000000 48848332.00000000 12284.57617188  1199252.75000000 953522.31250000 
0.11000    30180992.00000000 19193680.00000000 48130480.00000000 12040.54003906  1177787.62500000 936467.81250000 
0.11100    29741502.00000000 18917432.00000000 47433228.00000000 11802.24804688  1156870.75000000 919841.37500000 
0.11200    29314346.00000000 18648904.00000000 46755976.00000000 11569.25683594  1136461.50000000 903626.50000000 
0.11300    28898872.00000000 18388246.00000000 46097600.00000000 11341.28125000  1116521.50000000 887792.06250000 
0.11400    28494838.00000000 18134408.00000000 45457052.00000000 11118.00585938  1097044.62500000 872311.68750000 
0.11500    28101412.00000000 17887524.00000000 44833872.00000000 10899.06835938  1077973.50000000 857171.18750000 
0.11600    27717780.00000000 17647046.00000000 44226444.00000000 10684.17675781  1059298.62500000 842335.81250000 
0.11700    27343838.00000000 17412546.00000000 43634072.00000000 10473.20605469  1040989.62500000 827799.12500000 
0.11800    26978404.00000000 17183784.00000000 43055468.00000000 10265.63281250  1023012.62500000 813528.18750000 
0.11900    26621332.00000000 16960426.00000000 42490736.00000000 10061.47558594  1005352.31250000 799509.00000000 
0.12000    26271964.00000000 16741885.00000000 41938060.00000000 9860.36621094   987985.56250000 785720.93750000 
0.12100    25929986.00000000 16528108.00000000 41397020.00000000 9662.31250000   970885.93750000 772152.00000000 
0.12200    25594784.00000000 16318791.00000000 40867108.00000000 9466.97558594   954042.18750000 758785.37500000 
0.12300    25265776.00000000 16113401.00000000 40347164.00000000 9274.11328125   937430.06250000 745603.18750000 
0.12400    24942692.00000000 15911860.00000000 39836704.00000000 9083.86230469   921034.62500000 732590.12500000 
0.12500    24624804.00000000 15713772.00000000 39334960.00000000 8895.92382812   904835.31250000 719736.12500000 
0.12600    24312138.00000000 15519081.00000000 38841328.00000000 8710.35839844   888829.18750000 707033.31250000 
0.12700    24004092.00000000 15327295.00000000 38354828.00000000 8526.86523438   872987.25000000 694467.93750000 
0.12800    23700212.00000000 15138151.00000000 37875216.00000000 8345.47070312   857313.87500000 682029.37500000 
0.12900    23400430.00000000 14951725.00000000 37402380.00000000 8166.12255859   841790.31250000 669710.12500000 
0.13000    23104076.00000000 14767535.00000000 36935044.00000000 7988.75830078   826402.06250000 657499.31250000 
0.13100    22811150.00000000 14585443.00000000 36472936.00000000 7813.35449219   811150.06250000 645395.06250000 
0.13200    22521102.00000000 14405322.00000000 36015840.00000000 7639.88134766   796024.93750000 633385.75000000 
0.13300    22233980.00000000 14227068.00000000 35563104.00000000 7468.40380859   781017.75000000 621475.06250000 
0.13400    21949294.00000000 14050360.00000000 35114404.00000000 7298.80908203   766125.87500000 609651.12500000 
0.13500    21667038.00000000 13875153.00000000 34669416.00000000 7131.20019531   751342.18750000 597914.25000000 
0.13600    21386784.00000000 13701408.00000000 34228056.00000000 6965.48925781   736669.06250000 586262.18750000 
0.13700    21108622.00000000 13528705.00000000 33789580.00000000 6801.79443359   722100.31250000 574688.18750000 
0.13800    20832196.00000000 13357197.00000000 33353954.00000000 6640.10644531   707635.50000000 563195.81250000 
0.13900    20557534.00000000 13186656.00000000 32920812.00000000 6480.44238281   693275.00000000 551781.81250000 
0.14000    20284122.00000000 13017110.00000000 32489978.00000000 6322.87988281   679020.31250000 540448.81250000 
0.14100    20012198.00000000 12848459.00000000 32061544.00000000 6167.45849609   664866.75000000 529199.43750000 
0.14200    19741754.00000000 12680536.00000000 31635188.00000000 6014.17480469   650820.31250000 518026.28125000 
0.14300    19472578.00000000 12513389.00000000 31210924.00000000 5863.11718750   636888.06250000 506937.71875000 
0.14400    19204610.00000000 12346861.00000000 30788064.00000000 5714.35595703   623057.18750000 495929.06250000 
0.14500    18937658.00000000 12181027.00000000 30367118.00000000 5567.92285156   609345.62500000 485014.96875000 
0.14600    18671948.00000000 12015818.00000000 29947992.00000000 5423.83300781   595749.68750000 474189.06250000 
0.14700    18407354.00000000 11851266.00000000 29530500.00000000 5282.17773438   582277.06250000 463457.43750000 
0.14800    18143836.00000000 11687306.00000000 29114490.00000000 5143.01464844   568927.75000000 452819.93750000 
0.14900    17881424.00000000 11523869.00000000 28700224.00000000 5006.36132812   555706.68750000 442276.93750000 
0.15000    17620102.00000000 11361152.00000000 28287310.00000000 4872.25244141   542623.00000000 431841.65625000 
0.15100    17359878.00000000 11198906.00000000 27876384.00000000 4740.79101562   529675.68750000 421512.34375000 
0.15200    17101072.00000000 11037310.00000000 27467390.00000000 4612.03613281   516878.37500000 411298.43750000 
0.15300    16843184.00000000 10876320.00000000 27059704.00000000 4485.89794922   504225.00000000 401193.75000000 
0.15400    16586674.00000000 10716041.00000000 26653980.00000000 4362.47802734   491723.40625000 391210.46875000 
0.15500    16331483.00000000 10556493.00000000 26250064.00000000 4241.86962891   479384.12500000 381349.34375000 
0.15600    16077692.00000000 10397657.00000000 25848444.00000000 4124.03271484   467209.68750000 371615.62500000 
0.15700    15825293.00000000 10239574.00000000 25448710.00000000 4008.99584961   455205.78125000 362014.12500000 
0.15800    15574454.00000000 10082274.00000000 25051474.00000000 3896.73950195   443371.68750000 352545.43750000 
0.15900    15325303.00000000 9925874.00000000 24656300.00000000 3787.41015625   431716.46875000 343217.15625000 
0.16000    15077633.00000000 9770276.00000000 24263686.00000000 3680.86035156   420242.43750000 334031.78125000 
0.16100    14831898.00000000 9615751.00000000 23873624.00000000 3577.22509766   408960.96875000 324992.09375000 
0.16200    14587866.00000000 9462155.00000000 23486286.00000000 3476.38647461   397869.00000000 316102.87500000 
0.16300    14345786.00000000 9309682.00000000 23101878.00000000 3378.39697266   386970.90625000 307367.46875000 
0.16400    14105663.00000000 9158239.00000000 22720426.00000000 3283.27172852   376275.93750000 298786.25000000 
0.16500    13867722.00000000 9007964.00000000 22341950.00000000 3190.93066406   365781.62500000 290365.46875000 
0.16600    13631909.00000000 8858950.00000000 21967058.00000000 3101.41528320   355489.71875000 282104.40625000 
0.16700    13398350.00000000 8711105.00000000 21595210.00000000 3014.64746094   345407.93750000 274007.96875000 
0.16800    13167055.00000000 8564664.00000000 21227086.00000000 2930.63525391   335533.31250000 266075.68750000 
0.16900    12938338.00000000 8419618.00000000 20862546.00000000 2849.34204102   325875.37500000 258313.56250000 
0.17000    12712041.00000000 8275922.00000000 20501710.00000000 2770.73901367   316432.00000000 250720.50000000 
