# SAXS profile: number of points = 501, q_min = 0, q_max = 0.5, delta_q = 0.001
#    q    intensity 
0.00000    162234544.00000000 101201832.00000000 256270944.00000000 103975.43750000 8214284.50000000 6487664.00000000 
0.00100    162203968.00000000 101181144.00000000 256218048.00000000 103946.00781250 8212313.00000000 6486060.50000000 
0.00200    162105792.00000000 101119448.00000000 256060816.00000000 103857.31250000 8206194.00000000 6481290.50000000 
0.00300    161941392.00000000 101015808.00000000 255798704.00000000 103711.17968750 8196059.00000000 6473350.00000000 
0.00400    161706624.00000000 100871832.00000000 255429344.00000000 103506.36718750 8181916.00000000 6462194.00000000 
0.00500    161405168.00000000 100686576.00000000 254957184.00000000 103244.14843750 8163790.00000000 6447941.50000000 
0.00600    161035616.00000000 100459864.00000000 254381760.00000000 102924.10156250 8141641.50000000 6430584.00000000 
0.00700    160603872.00000000 100194424.00000000 253702800.00000000 102548.26562500 8115578.00000000 6410058.00000000 
0.00800    160102768.00000000 99887920.00000000 252922624.00000000 102115.46093750 8085632.00000000 6386513.50000000 
0.00900    159540112.00000000 99542416.00000000 252042032.00000000 101628.17968750 8051799.50000000 6359958.00000000 
0.01000    158915648.00000000 99159080.00000000 251061920.00000000 101085.81250000 8014251.00000000 6330418.00000000 
0.01100    158228752.00000000 98736048.00000000 249983760.00000000 100490.58593750 7972936.00000000 6297937.50000000 
0.01200    157482256.00000000 98275600.00000000 248808528.00000000 99843.21875000  7927906.00000000 6262619.50000000 
0.01300    156672784.00000000 97777448.00000000 247539104.00000000 99144.66406250  7879395.00000000 6224419.00000000 
0.01400    155803296.00000000 97241888.00000000 246176544.00000000 98396.31250000  7827354.00000000 6183520.50000000 
0.01500    154876752.00000000 96672200.00000000 244722320.00000000 97600.10156250  7771894.00000000 6139933.50000000 
0.01600    153893664.00000000 96067200.00000000 243180304.00000000 96756.43750000  7713023.00000000 6093693.50000000 
0.01700    152855920.00000000 95428304.00000000 241551200.00000000 95867.85156250  7651043.50000000 6044953.50000000 
0.01800    151762880.00000000 94755680.00000000 239837648.00000000 94935.42968750  7585867.00000000 5993700.50000000 
0.01900    150618288.00000000 94050984.00000000 238041136.00000000 93959.96875000  7517705.00000000 5940092.50000000 
0.02000    149424784.00000000 93315144.00000000 236164928.00000000 92944.85156250  7446575.00000000 5884162.00000000 
0.02100    148180256.00000000 92548568.00000000 234212528.00000000 91890.88281250  7372680.00000000 5826078.50000000 
0.02200    146888304.00000000 91753592.00000000 232184960.00000000 90800.42187500  7296048.50000000 5765816.00000000 
0.02300    145550784.00000000 90929200.00000000 230086256.00000000 89675.11718750  7216867.50000000 5703544.50000000 
0.02400    144170592.00000000 90078584.00000000 227916528.00000000 88515.67187500  7135191.00000000 5639332.00000000 
0.02500    142747040.00000000 89201176.00000000 225682208.00000000 87326.17187500  7051238.50000000 5573266.50000000 
0.02600    141284272.00000000 88300168.00000000 223385072.00000000 86107.58593750  6965028.50000000 5505498.00000000 
0.02700    139783712.00000000 87374336.00000000 221028624.00000000 84861.41406250  6876785.50000000 5436086.00000000 
0.02800    138246272.00000000 86426208.00000000 218614368.00000000 83590.64062500  6786628.00000000 5365111.00000000 
0.02900    136676240.00000000 85456440.00000000 216145568.00000000 82296.32812500  6694626.00000000 5292759.50000000 
0.03000    135071536.00000000 84466936.00000000 213625616.00000000 80981.79687500  6600945.50000000 5219022.00000000 
0.03100    133438432.00000000 83458304.00000000 211060160.00000000 79647.96093750  6505697.50000000 5144112.50000000 
0.03200    131776496.00000000 82432896.00000000 208448048.00000000 78297.47656250  6409091.50000000 5068054.50000000 
0.03300    130089064.00000000 81390768.00000000 205795344.00000000 76932.71093750  6311167.00000000 4990978.00000000 
0.03400    128377184.00000000 80333832.00000000 203106752.00000000 75554.54687500  6212129.00000000 4912996.00000000 
0.03500    126643872.00000000 79262464.00000000 200378992.00000000 74165.93750000  6112049.00000000 4834208.00000000 
0.03600    124890112.00000000 78178888.00000000 197622384.00000000 72768.62500000  6011105.00000000 4754778.50000000 
0.03700    123118800.00000000 77084320.00000000 194837936.00000000 71364.86718750  5909483.50000000 4674717.50000000 
0.03800    121332728.00000000 75979440.00000000 192027472.00000000 69956.43750000  5807156.00000000 4594175.50000000 
0.03900    119532048.00000000 74866448.00000000 189195856.00000000 68545.57031250  5704371.00000000 4513226.50000000 
0.04000    117719464.00000000 73745496.00000000 186344976.00000000 67133.45312500  5601295.00000000 4432041.50000000 
0.04100    115898368.00000000 72617912.00000000 183477904.00000000 65722.14843750  5497929.00000000 4350594.00000000 
0.04200    114068560.00000000 71485040.00000000 180599088.00000000 64313.49218750  5394450.00000000 4269085.50000000 
0.04300    112233456.00000000 70348248.00000000 177710208.00000000 62909.89062500  5291032.00000000 4187563.00000000 
0.04400    110394072.00000000 69208520.00000000 174814768.00000000 61511.92578125  5187657.50000000 4106132.50000000 
0.04500    108553232.00000000 68067784.00000000 171916992.00000000 60121.73828125  5084588.00000000 4024890.75000000 
0.04600    106712496.00000000 66926760.00000000 169018656.00000000 58741.00781250  4981881.50000000 3943910.50000000 
0.04700    104873088.00000000 65786264.00000000 166120768.00000000 57371.34765625  4879604.50000000 3863282.50000000 
0.04800    103037024.00000000 64647520.00000000 163230272.00000000 56013.67187500  4777898.50000000 3783097.75000000 
0.04900    101206464.00000000 63511652.00000000 160345152.00000000 54670.05468750  4676879.50000000 3703407.50000000 
0.05000    99382656.00000000 62379428.00000000 157471504.00000000 53341.32421875  4576630.50000000 3624348.50000000 
0.05100    97568000.00000000 61252436.00000000 154610608.00000000 52028.47265625  4477194.00000000 3545913.00000000 
0.05200    95762584.00000000 60130864.00000000 151764656.00000000 50733.04687500  4378735.50000000 3468223.75000000 
0.05300    93969136.00000000 59016336.00000000 148936432.00000000 49456.65234375  4281321.00000000 3391326.50000000 
0.05400    92187584.00000000 57909380.00000000 146128208.00000000 48199.25390625  4184963.75000000 3315298.75000000 
0.05500    90421128.00000000 56811064.00000000 143342160.00000000 46962.32812500  4089805.75000000 3240184.25000000 
0.05600    88670912.00000000 55721832.00000000 140580496.00000000 45746.67578125  3995871.75000000 3166060.75000000 
0.05700    86937592.00000000 54643056.00000000 137845776.00000000 44553.15625000  3903282.75000000 3092950.00000000 
0.05800    85221888.00000000 53574984.00000000 135139296.00000000 43382.58203125  3812077.50000000 3020908.00000000 
0.05900    83525960.00000000 52518380.00000000 132462520.00000000 42235.09375000  3722290.50000000 2949990.75000000 
0.06000    81850232.00000000 51474444.00000000 129816656.00000000 41111.57421875  3633998.25000000 2880235.25000000 
0.06100    80195576.00000000 50443340.00000000 127204992.00000000 40012.62109375  3547223.00000000 2811693.25000000 
0.06200    78563928.00000000 49426040.00000000 124627264.00000000 38938.60546875  3462025.25000000 2744374.00000000 
0.06300    76955184.00000000 48422648.00000000 122086744.00000000 37889.81640625  3378452.50000000 2678304.50000000 
0.06400    75370176.00000000 47433772.00000000 119583208.00000000 36866.09765625  3296513.25000000 2613542.50000000 
0.06500    73810632.00000000 46460320.00000000 117118200.00000000 35868.64062500  3216275.25000000 2550104.00000000 
0.06600    72276360.00000000 45502432.00000000 114693048.00000000 34896.46093750  3137718.50000000 2487994.50000000 
0.06700    70768600.00000000 44559972.00000000 112309432.00000000 33950.25781250  3060867.00000000 2427217.50000000 
0.06800    69286160.00000000 43634536.00000000 109967144.00000000 33030.17968750  2985780.00000000 2367818.00000000 
0.06900    67832832.00000000 42725200.00000000 107667232.00000000 32135.62890625  2912446.00000000 2309806.00000000 
0.07000    66406220.00000000 41833268.00000000 105410960.00000000 31267.13281250  2840845.00000000 2253147.75000000 
0.07100    65007480.00000000 40958288.00000000 103198256.00000000 30423.88867188  2771028.25000000 2197910.00000000 
0.07200    63636832.00000000 40100912.00000000 101030784.00000000 29606.14453125  2702948.25000000 2144017.25000000 
0.07300    62295236.00000000 39260688.00000000 98907328.00000000 28813.60156250  2636651.00000000 2091532.00000000 
0.07400    60981936.00000000 38438440.00000000 96829072.00000000 28045.56640625  2572093.00000000 2040415.00000000 
0.07500    59697940.00000000 37634164.00000000 94796024.00000000 27301.98828125  2509278.25000000 1990681.62500000 
0.07600    58442480.00000000 36847652.00000000 92808944.00000000 26582.51367188  2448194.00000000 1942294.87500000 
0.07700    57216536.00000000 36078892.00000000 90866864.00000000 25886.54882812  2388824.00000000 1895275.37500000 
0.07800    56019100.00000000 35328408.00000000 88971208.00000000 25213.77929688  2331152.50000000 1849588.25000000 
0.07900    54850820.00000000 34595716.00000000 87120792.00000000 24563.49414062  2275126.50000000 1805222.25000000 
0.08000    53711168.00000000 33880980.00000000 85316328.00000000 23935.32421875  2220785.75000000 1762146.00000000 
0.08100    52599880.00000000 33183914.00000000 83555816.00000000 23328.78125000  2168043.00000000 1720364.00000000 
0.08200    51517248.00000000 32504708.00000000 81840384.00000000 22743.13671875  2116906.00000000 1679828.00000000 
0.08300    50462760.00000000 31842780.00000000 80169512.00000000 22177.58984375  2067334.75000000 1640529.37500000 
0.08400    49435988.00000000 31198508.00000000 78542792.00000000 21631.86718750  2019288.12500000 1602438.12500000 
0.08500    48437260.00000000 30571176.00000000 76959320.00000000 21105.36132812  1972745.62500000 1565538.12500000 
0.08600    47465496.00000000 29961190.00000000 75419352.00000000 20597.16601562  1927639.50000000 1529781.12500000 
0.08700    46520492.00000000 29367650.00000000 73921624.00000000 20106.80468750  1883967.00000000 1495147.37500000 
0.08800    45601620.00000000 28790782.00000000 72465440.00000000 19633.59960938  1841681.12500000 1461618.50000000 
0.08900    44708736.00000000 28230114.00000000 71049736.00000000 19176.85937500  1800731.37500000 1429148.50000000 
0.09000    43841552.00000000 27685244.00000000 69675504.00000000 18735.90234375  1761099.50000000 1397718.50000000 
0.09100    42998912.00000000 27156026.00000000 68339680.00000000 18310.13867188  1722724.00000000 1367280.00000000 
0.09200    42180996.00000000 26642410.00000000 67042856.00000000 17898.84375000  1685582.50000000 1337810.75000000 
0.09300    41386728.00000000 26143690.00000000 65784348.00000000 17501.30664062  1649598.62500000 1309284.37500000 
0.09400    40615348.00000000 25659742.00000000 64562072.00000000 17117.21875000  1614769.25000000 1281660.25000000 
0.09500    39867076.00000000 25190008.00000000 63376576.00000000 16745.57617188  1581033.12500000 1254900.12500000 
0.09600    39140952.00000000 24734278.00000000 62225880.00000000 16385.79296875  1548354.50000000 1228984.50000000 
0.09700    38436124.00000000 24292222.00000000 61109540.00000000 16037.43457031  1516695.75000000 1203873.25000000 
0.09800    37752564.00000000 23863290.00000000 60026016.00000000 15699.95507812  1486007.75000000 1179534.62500000 
0.09900    37089000.00000000 23447292.00000000 58975156.00000000 15372.64550781  1456252.87500000 1155937.50000000 
0.10000    36445096.00000000 23043870.00000000 57955288.00000000 15054.87207031  1427386.12500000 1133037.50000000 
0.10100    35820416.00000000 22652180.00000000 56965996.00000000 14746.19726562  1399369.00000000 1110828.37500000 
0.10200    35214136.00000000 22272480.00000000 56006180.00000000 14446.31738281  1372167.00000000 1089262.12500000 
0.10300    34624992.00000000 21903882.00000000 55074604.00000000 14154.21386719  1345738.00000000 1068306.12500000 
0.10400    34053812.00000000 21546428.00000000 54169968.00000000 13869.95117188  1320049.50000000 1047939.06250000 
0.10500    33499074.00000000 21199368.00000000 53292488.00000000 13592.82031250  1295056.12500000 1028134.12500000 
0.10600    32959678.00000000 20862250.00000000 52439652.00000000 13322.25585938  1270730.50000000 1008850.37500000 
0.10700    32436172.00000000 20535070.00000000 51611724.00000000 13058.18164062  1247040.75000000 990070.56250000 
0.10800    31926984.00000000 20217262.00000000 50806620.00000000 12799.98242188  1223933.00000000 971763.12500000 
0.10900    31431782.00000000 19908444.00000000 50024452.00000000 12547.24023438  1201408.37500000 953913.87500000 
0.11000    30950048.00000000 19608136.00000000 49263672.00000000 12299.81347656  1179415.37500000 936482.68750000 
0.11100    30481600.00000000 19316228.00000000 48523788.00000000 12057.23339844  1157923.62500000 919452.00000000 
0.11200    30025122.00000000 19031944.00000000 47803064.00000000 11819.26171875  1136906.12500000 902803.93750000 
0.11300    29580256.00000000 18755260.00000000 47101460.00000000 11585.60839844  1116344.62500000 886507.43750000 
0.11400    29146816.00000000 18485932.00000000 46417636.00000000 11356.06054688  1096210.12500000 870554.93750000 
0.11500    28724152.00000000 18223296.00000000 45750824.00000000 11130.36425781  1076469.37500000 854918.00000000 
0.11600    28311610.00000000 17967200.00000000 45100588.00000000 10908.28320312  1057099.37500000 839580.81250000 
0.11700    27908706.00000000 17717310.00000000 44465692.00000000 10689.61523438  1038099.31250000 824529.31250000 
0.11800    27514788.00000000 17473174.00000000 43845344.00000000 10474.18847656  1019421.43750000 809730.12500000 
0.11900    27129668.00000000 17234594.00000000 43239096.00000000 10261.90136719  1001061.75000000 795192.00000000 
0.12000    26752952.00000000 17001358.00000000 42645596.00000000 10052.55371094  982995.62500000 780885.00000000 
0.12100    26383832.00000000 16773180.00000000 42064912.00000000 9846.14355469   965227.25000000 766804.62500000 
0.12200    26022248.00000000 16549587.00000000 41495780.00000000 9642.37890625   947706.37500000 752926.50000000 
0.12300    25667602.00000000 16330455.00000000 40937964.00000000 9441.40039062   930449.93750000 739250.50000000 
0.12400    25319480.00000000 16115509.00000000 40390844.00000000 9242.87890625   913427.25000000 725769.93750000 
0.12500    24977712.00000000 15904463.00000000 39853328.00000000 9046.91796875   896626.06250000 712457.18750000 
0.12600    24641792.00000000 15697325.00000000 39325288.00000000 8853.46289062   880048.87500000 699325.31250000 
0.12700    24311344.00000000 15493504.00000000 38806028.00000000 8662.50195312   863674.93750000 686341.12500000 
0.12800    23986208.00000000 15293129.00000000 38295076.00000000 8473.89550781   847499.62500000 673524.50000000 
0.12900    23665826.00000000 15095733.00000000 37792124.00000000 8287.70410156   831519.75000000 660851.81250000 
0.13000    23350284.00000000 14901216.00000000 37296156.00000000 8103.91992188   815711.81250000 648323.56250000 
0.13100    23038914.00000000 14709498.00000000 36807252.00000000 7922.41601562   800089.06250000 635932.06250000 
0.13200    22731816.00000000 14520286.00000000 36324876.00000000 7743.37158203   784640.56250000 623676.93750000 
0.13300    22428642.00000000 14333520.00000000 35848528.00000000 7566.73437500   769354.12500000 611546.37500000 
0.13400    22129056.00000000 14148869.00000000 35378108.00000000 7392.50244141   754234.43750000 599550.06250000 
0.13500    21833080.00000000 13966431.00000000 34913052.00000000 7220.78173828   739278.00000000 587676.12500000 
0.13600    21540272.00000000 13786071.00000000 34452968.00000000 7051.40576172   724477.06250000 575925.43750000 
0.13700    21250324.00000000 13607482.00000000 33997408.00000000 6884.56396484   709836.75000000 564302.12500000 
0.13800    20963710.00000000 13430614.00000000 33546910.00000000 6720.22216797   695342.68750000 552791.43750000 
0.13900    20679714.00000000 13255458.00000000 33100970.00000000 6558.45654297   681015.00000000 541406.68750000 
0.14000    20398458.00000000 13081839.00000000 32658538.00000000 6399.15820312   666840.62500000 530138.31250000 
0.14100    20119726.00000000 12909740.00000000 32220160.00000000 6242.58447266   652823.56250000 518994.93750000 
0.14200    19843384.00000000 12738999.00000000 31785448.00000000 6088.54833984   638954.50000000 507968.00000000 
0.14300    19569594.00000000 12569607.00000000 31354344.00000000 5937.14794922   625246.93750000 497065.21875000 
0.14400    19297682.00000000 12401467.00000000 30926668.00000000 5788.46191406   611688.81250000 486280.78125000 
0.14500    19028096.00000000 12234577.00000000 30502222.00000000 5642.40332031   598302.00000000 475620.12500000 
0.14600    18760618.00000000 12068805.00000000 30081012.00000000 5499.13867188   585064.62500000 465087.25000000 
0.14700    18495256.00000000 11904221.00000000 29662730.00000000 5358.58007812   571995.56250000 454678.03125000 
0.14800    18231928.00000000 11740763.00000000 29247438.00000000 5220.78173828   559083.37500000 444395.25000000 
0.14900    17970442.00000000 11578249.00000000 28835014.00000000 5085.65478516   546346.68750000 434239.43750000 
0.15000    17710964.00000000 11416874.00000000 28425658.00000000 4953.35644531   533765.25000000 424215.31250000 
0.15100    17453426.00000000 11256535.00000000 28018762.00000000 4823.79931641   521353.21875000 414324.50000000 
0.15200    17197766.00000000 11097189.00000000 27615114.00000000 4697.03076172   509119.37500000 404565.53125000 
0.15300    16943874.00000000 10938852.00000000 27214046.00000000 4573.04980469   497050.65625000 394942.34375000 
0.15400    16691849.00000000 10781467.00000000 26815462.00000000 4451.77343750   485155.21875000 385451.90625000 
0.15500    16441776.00000000 10625089.00000000 26419804.00000000 4333.28125000   473438.40625000 376104.65625000 
0.15600    16193600.00000000 10469795.00000000 26026956.00000000 4217.50292969   461897.21875000 366890.06250000 
0.15700    15947194.00000000 10315437.00000000 25636886.00000000 4104.48193359   450536.12500000 357821.50000000 
0.15800    15702795.00000000 10162037.00000000 25249322.00000000 3994.09960938   439350.65625000 348888.84375000 
0.15900    15460247.00000000 10009739.00000000 24864886.00000000 3886.42895508   428348.53125000 340104.59375000 
0.16000    15219514.00000000 9858397.00000000 24483082.00000000 3781.38647461   417527.09375000 331461.65625000 
0.16100    14980943.00000000 9708202.00000000 24104278.00000000 3678.98583984   406893.00000000 322966.50000000 
0.16200    14744285.00000000 9558984.00000000 23728314.00000000 3579.17431641   396438.81250000 314613.09375000 
0.16300    14509520.00000000 9410876.00000000 23355474.00000000 3481.89794922   386171.46875000 306407.25000000 
0.16400    14276920.00000000 9263952.00000000 22985492.00000000 3387.17553711   376092.25000000 298350.50000000 
0.16500    14046252.00000000 9118065.00000000 22618688.00000000 3294.93115234   366195.28125000 290438.75000000 
0.16600    13817758.00000000 8973372.00000000 22255000.00000000 3205.13842773   356485.43750000 282675.62500000 
0.16700    13591284.00000000 8829852.00000000 21894234.00000000 3117.69360352   346956.93750000 275058.81250000 
0.16800    13366998.00000000 8687557.00000000 21536948.00000000 3032.63647461   337612.50000000 267589.06250000 
0.16900    13144896.00000000 8546496.00000000 21182996.00000000 2949.90991211   328459.90625000 260271.65625000 
0.17000    12925083.00000000 8406703.00000000 20832192.00000000 2869.42504883   319491.68750000 253097.95312500 
