# SAXS profile: number of points = 501, q_min = 0, q_max = 0.5, delta_q = 0.001
#    q    intensity 
0.00000    162236528.00000000 101201784.00000000 256271200.00000000 98959.48437500  8013752.50000000 6329235.50000000 
0.00100    162209040.00000000 101184136.00000000 256226464.00000000 98937.98437500  8012166.50000000 6327994.00000000 
0.00200    162125680.00000000 101130944.00000000 256090752.00000000 98872.30468750  8007384.00000000 6324225.50000000 
0.00300    161983328.00000000 101041392.00000000 255866192.00000000 98764.21093750  7999420.00000000 6317948.00000000 
0.00400    161782864.00000000 100917032.00000000 255550032.00000000 98612.66406250  7988311.50000000 6309135.00000000 
0.00500    161526944.00000000 100757296.00000000 255143952.00000000 98417.83593750  7974015.50000000 6297924.00000000 
0.00600    161212160.00000000 100562304.00000000 254650192.00000000 98180.92968750  7956614.00000000 6284178.00000000 
0.00700    160841408.00000000 100332160.00000000 254066032.00000000 97901.59375000  7936048.50000000 6267977.00000000 
0.00800    160416544.00000000 100068160.00000000 253395712.00000000 97580.46093750  7912429.00000000 6249348.00000000 
0.00900    159932704.00000000 99769384.00000000 252638176.00000000 97217.38281250  7885750.50000000 6228331.00000000 
0.01000    159397424.00000000 99437280.00000000 251795264.00000000 96813.73437500  7856061.50000000 6204938.00000000 
0.01100    158807232.00000000 99071608.00000000 250866384.00000000 96369.64843750  7823411.50000000 6179130.50000000 
0.01200    158166912.00000000 98672328.00000000 249853600.00000000 95885.73437500  7787755.00000000 6151080.00000000 
0.01300    157471872.00000000 98240968.00000000 248757728.00000000 95362.71093750  7749262.00000000 6120677.00000000 
0.01400    156726048.00000000 97777176.00000000 247580720.00000000 94801.65625000  7707911.00000000 6088061.00000000 
0.01500    155928192.00000000 97282080.00000000 246323840.00000000 94203.31250000  7663795.00000000 6053281.50000000 
0.01600    155080416.00000000 96754976.00000000 244989232.00000000 93567.50781250  7616900.00000000 6016306.00000000 
0.01700    154185248.00000000 96198608.00000000 243576960.00000000 92896.19531250  7567371.50000000 5977253.00000000 
0.01800    153241232.00000000 95612784.00000000 242088144.00000000 92190.22656250  7515274.00000000 5936170.00000000 
0.01900    152250928.00000000 94997848.00000000 240527872.00000000 91450.41406250  7460590.00000000 5893028.50000000 
0.02000    151215424.00000000 94353632.00000000 238895168.00000000 90677.69531250  7403421.50000000 5847962.00000000 
0.02100    150135328.00000000 93683064.00000000 237192720.00000000 89872.80468750  7343888.50000000 5801008.00000000 
0.02200    149012448.00000000 92985304.00000000 235422304.00000000 89037.43750000  7282001.50000000 5752190.50000000 
0.02300    147847616.00000000 92261920.00000000 233584944.00000000 88172.75781250  7217902.00000000 5701626.50000000 
0.02400    146641216.00000000 91512736.00000000 231685696.00000000 87279.22656250  7151604.00000000 5649329.50000000 
0.02500    145397776.00000000 90739688.00000000 229723824.00000000 86358.34375000  7083198.00000000 5595405.50000000 
0.02600    144115136.00000000 89943256.00000000 227703104.00000000 85410.88281250  7012845.00000000 5539919.00000000 
0.02700    142796992.00000000 89123504.00000000 225624144.00000000 84439.65625000  6940565.50000000 5482884.00000000 
0.02800    141443376.00000000 88283496.00000000 223490416.00000000 83444.38281250  6866371.00000000 5424409.00000000 
0.02900    140057424.00000000 87422136.00000000 221305536.00000000 82426.53125000  6790525.00000000 5364608.00000000 
0.03000    138640112.00000000 86541032.00000000 219070512.00000000 81387.89843750  6713001.50000000 5303419.00000000 
0.03100    137191632.00000000 85640304.00000000 216786976.00000000 80329.56250000  6633906.50000000 5241073.00000000 
0.03200    135714448.00000000 84722992.00000000 214457936.00000000 79252.23437500  6553321.50000000 5177497.00000000 
0.03300    134210256.00000000 83787960.00000000 212086576.00000000 78158.55468750  6471398.00000000 5112873.00000000 
0.03400    132680608.00000000 82837584.00000000 209674928.00000000 77048.69531250  6388156.50000000 5047228.50000000 
0.03500    131127568.00000000 81871752.00000000 207225504.00000000 75924.45312500  6303744.00000000 4980622.50000000 
0.03600    129551320.00000000 80892784.00000000 204740352.00000000 74786.46875000  6218194.50000000 4913157.00000000 
0.03700    127955160.00000000 79900160.00000000 202222928.00000000 73637.17968750  6131684.50000000 4844884.00000000 
0.03800    126339304.00000000 78895896.00000000 199675136.00000000 72477.07031250  6044214.00000000 4775901.00000000 
0.03900    124706080.00000000 77880320.00000000 197099952.00000000 71308.03125000  5955946.50000000 4706249.50000000 
0.04000    123057384.00000000 76855488.00000000 194499248.00000000 70131.05468750  5866918.00000000 4636042.50000000 
0.04100    121393608.00000000 75821776.00000000 191875904.00000000 68947.16406250  5777271.50000000 4565347.50000000 
0.04200    119717784.00000000 74779208.00000000 189234192.00000000 67758.14843750  5687107.50000000 4494157.50000000 
0.04300    118030512.00000000 73731168.00000000 186573872.00000000 66565.04687500  5596452.50000000 4422665.50000000 
0.04400    116333888.00000000 72675984.00000000 183897728.00000000 65368.63671875  5505412.50000000 4350854.50000000 
0.04500    114629128.00000000 71616344.00000000 181209632.00000000 64170.80859375  5414157.50000000 4278819.00000000 
0.04600    112917936.00000000 70551736.00000000 178511104.00000000 62972.21484375  5322617.50000000 4206648.00000000 
0.04700    111201576.00000000 69484488.00000000 175803248.00000000 61774.45312500  5231017.50000000 4134352.50000000 
0.04800    109482280.00000000 68415120.00000000 173090960.00000000 60578.39843750  5139362.00000000 4062047.25000000 
0.04900    107760840.00000000 67344752.00000000 170376224.00000000 59385.34765625  5047831.50000000 3989798.75000000 
0.05000    106038160.00000000 66273304.00000000 167659120.00000000 58196.16406250  4956342.00000000 3917641.00000000 
0.05100    104316808.00000000 65202992.00000000 164943696.00000000 57011.89453125  4865139.50000000 3845642.75000000 
0.05200    102598000.00000000 64133616.00000000 162232784.00000000 55833.12890625  4774192.00000000 3773888.00000000 
0.05300    100882368.00000000 63066408.00000000 159527024.00000000 54661.83593750  4683601.50000000 3702415.75000000 
0.05400    99171656.00000000 62002424.00000000 156828176.00000000 53498.22265625  4593457.00000000 3631266.25000000 
0.05500    97467048.00000000 60941996.00000000 154139344.00000000 52343.46875000  4503796.00000000 3560525.00000000 
0.05600    95770920.00000000 59886316.00000000 151461984.00000000 51198.29687500  4414727.00000000 3490223.25000000 
0.05700    94082152.00000000 58835980.00000000 148798080.00000000 50063.57031250  4326260.00000000 3420415.50000000 
0.05800    92403256.00000000 57791528.00000000 146149456.00000000 48939.98437500  4238509.50000000 3351156.50000000 
0.05900    90735808.00000000 56754084.00000000 143518368.00000000 47828.29296875  4151480.50000000 3282484.75000000 
0.06000    89079288.00000000 55723600.00000000 140906560.00000000 46729.30078125  4065259.25000000 3214439.75000000 
0.06100    87436888.00000000 54701520.00000000 138315632.00000000 45643.62500000  3979903.00000000 3147084.00000000 
0.06200    85807832.00000000 53688036.00000000 135745296.00000000 44571.86328125  3895469.75000000 3080437.50000000 
0.06300    84193712.00000000 52683972.00000000 133199920.00000000 43514.60546875  3811977.00000000 3014542.25000000 
0.06400    82595928.00000000 51689748.00000000 130678616.00000000 42472.06640625  3729473.75000000 2949423.75000000 
0.06500    81014912.00000000 50705512.00000000 128183744.00000000 41445.57031250  3648053.00000000 2885152.75000000 
0.06600    79450824.00000000 49732448.00000000 125716560.00000000 40434.41796875  3567678.00000000 2821710.25000000 
0.06700    77905088.00000000 48770856.00000000 123278152.00000000 39439.78906250  3488416.75000000 2759150.75000000 
0.06800    76378544.00000000 47820708.00000000 120869776.00000000 38462.12500000  3410306.75000000 2697517.00000000 
0.06900    74871912.00000000 46883532.00000000 118492304.00000000 37501.36718750  3333398.25000000 2636789.50000000 
0.07000    73385160.00000000 45958196.00000000 116147200.00000000 36557.84765625  3257681.25000000 2577034.75000000 
0.07100    71919592.00000000 45046276.00000000 113834888.00000000 35631.75390625  3183215.00000000 2518261.50000000 
0.07200    70475408.00000000 44147396.00000000 111556480.00000000 34723.66796875  3110004.25000000 2460464.00000000 
0.07300    69053456.00000000 43262536.00000000 109312624.00000000 33833.60156250  3038030.25000000 2403662.00000000 
0.07400    67653872.00000000 42391256.00000000 107103528.00000000 32961.49609375  2967390.00000000 2347906.00000000 
0.07500    66276456.00000000 41534328.00000000 104931456.00000000 32107.47460938  2898043.00000000 2293150.00000000 
0.07600    64922560.00000000 40691532.00000000 102794896.00000000 31271.78515625  2830016.00000000 2239472.50000000 
0.07700    63591716.00000000 39863684.00000000 100694808.00000000 30454.37109375  2763321.00000000 2186813.75000000 
0.07800    62284704.00000000 39050328.00000000 98633440.00000000 29655.21679688  2697964.00000000 2135217.50000000 
0.07900    61001528.00000000 38251768.00000000 96609112.00000000 28874.23632812  2633916.50000000 2084666.50000000 
0.08000    59742624.00000000 37468396.00000000 94622296.00000000 28111.51367188  2571232.00000000 2035204.75000000 
0.08100    58507736.00000000 36700032.00000000 92674432.00000000 27366.94140625  2509887.25000000 1986764.50000000 
0.08200    57297336.00000000 35947128.00000000 90764392.00000000 26640.25195312  2449892.25000000 1939405.75000000 
0.08300    56111116.00000000 35209112.00000000 88893456.00000000 25931.41796875  2391199.25000000 1893098.75000000 
0.08400    54949076.00000000 34486072.00000000 87060352.00000000 25240.26562500  2333876.50000000 1847838.25000000 
0.08500    53812128.00000000 33778796.00000000 85266768.00000000 24566.49609375  2277851.75000000 1803614.75000000 
0.08600    52698900.00000000 33086204.00000000 83510424.00000000 23909.98046875  2223133.50000000 1760432.37500000 
0.08700    51610012.00000000 32408980.00000000 81793144.00000000 23270.51562500  2169705.75000000 1718280.87500000 
0.08800    50545376.00000000 31746962.00000000 80113424.00000000 22647.94140625  2117596.25000000 1677133.50000000 
0.08900    49504724.00000000 31099560.00000000 78472416.00000000 22041.89257812  2066737.62500000 1637005.25000000 
0.09000    48487848.00000000 30467490.00000000 76868392.00000000 21452.04687500  2017145.75000000 1597855.25000000 
0.09100    47494548.00000000 29849796.00000000 75301840.00000000 20878.06445312  1968772.50000000 1559683.37500000 
0.09200    46524516.00000000 29246824.00000000 73772072.00000000 20319.59179688  1921640.50000000 1522483.00000000 
0.09300    45577640.00000000 28658372.00000000 72279048.00000000 19776.64843750  1875707.00000000 1486226.62500000 
0.09400    44653624.00000000 28084060.00000000 70822224.00000000 19248.62500000  1830936.62500000 1450899.25000000 
0.09500    43751924.00000000 27523742.00000000 69400424.00000000 18735.36914062  1787322.25000000 1416492.75000000 
0.09600    42872708.00000000 26977428.00000000 68014424.00000000 18236.11328125  1744852.62500000 1382972.87500000 
0.09700    42015248.00000000 26444860.00000000 66662296.00000000 17750.99609375  1703500.50000000 1350336.62500000 
0.09800    41179536.00000000 25925536.00000000 65344872.00000000 17279.56835938  1663220.50000000 1318553.25000000 
0.09900    40364808.00000000 25419534.00000000 64060820.00000000 16821.13671875  1624020.50000000 1287615.87500000 
0.10000    39570360.00000000 24926368.00000000 62809208.00000000 16375.71679688  1585848.75000000 1257500.87500000 
0.10100    38796700.00000000 24445938.00000000 61589300.00000000 15942.75683594  1548680.75000000 1228167.00000000 
0.10200    38042656.00000000 23978144.00000000 60401232.00000000 15522.04199219  1512503.37500000 1199620.87500000 
0.10300    37308204.00000000 23522322.00000000 59244244.00000000 15113.11523438  1477291.87500000 1171833.62500000 
0.10400    36592808.00000000 23078368.00000000 58116900.00000000 14715.42871094  1443008.00000000 1144786.00000000 
0.10500    35896188.00000000 22646108.00000000 57019140.00000000 14329.06542969  1409633.62500000 1118452.00000000 
0.10600    35217056.00000000 22225184.00000000 55949680.00000000 13953.14843750  1377133.25000000 1092813.12500000 
0.10700    34555908.00000000 21815216.00000000 54908676.00000000 13587.82226562  1345496.87500000 1067843.75000000 
0.10800    33911936.00000000 21416060.00000000 53894576.00000000 13232.45019531  1314680.62500000 1043529.25000000 
0.10900    33284500.00000000 21027272.00000000 52907016.00000000 12886.78222656  1284678.75000000 1019850.87500000 
0.11000    32673712.00000000 20648820.00000000 51944700.00000000 12550.60644531  1255438.37500000 996774.12500000 
0.11100    32078540.00000000 20280064.00000000 51007600.00000000 12223.31445312  1226941.50000000 974300.56250000 
0.11200    31498568.00000000 19920914.00000000 50094756.00000000 11904.74511719  1199185.62500000 952393.68750000 
0.11300    30933466.00000000 19571160.00000000 49205324.00000000 11594.67382812  1172132.37500000 931036.87500000 
0.11400    30382854.00000000 19230076.00000000 48338596.00000000 11292.76269531  1145748.87500000 910218.56250000 
0.11500    29846122.00000000 18897952.00000000 47493716.00000000 10998.73046875  1120017.37500000 889905.50000000 
0.11600    29322532.00000000 18574094.00000000 46670428.00000000 10712.23925781  1094919.50000000 870094.75000000 
0.11700    28812098.00000000 18258418.00000000 45867652.00000000 10433.13378906  1070428.50000000 850763.25000000 
0.11800    28314228.00000000 17950478.00000000 45084116.00000000 10160.95507812  1046512.87500000 831883.43750000 
0.11900    27828420.00000000 17649944.00000000 44320020.00000000 9895.64941406   1023165.37500000 813444.31250000 
0.12000    27354268.00000000 17356834.00000000 43574208.00000000 9636.80078125   1000363.43750000 795428.18750000 
0.12100    26891662.00000000 17070848.00000000 42846388.00000000 9384.53027344   978076.87500000 777840.00000000 
0.12200    26439470.00000000 16791428.00000000 42135408.00000000 9138.28125000   956289.87500000 760636.18750000 
0.12300    25998026.00000000 16518612.00000000 41440972.00000000 8898.01269531   935001.43750000 743804.81250000 
0.12400    25566284.00000000 16251855.00000000 40762332.00000000 8663.44921875   914165.43750000 727344.81250000 
0.12500    25144308.00000000 15991192.00000000 40099048.00000000 8434.43945312   893781.18750000 711234.37500000 
0.12600    24731698.00000000 15736297.00000000 39449872.00000000 8210.79101562   873832.81250000 695460.37500000 
0.12700    24327836.00000000 15486840.00000000 38815004.00000000 7992.45996094   854297.06250000 680016.81250000 
0.12800    23932502.00000000 15242728.00000000 38193744.00000000 7779.08886719   835159.43750000 664881.43750000 
0.12900    23545404.00000000 15003678.00000000 37585156.00000000 7570.74169922   816410.06250000 650053.00000000 
0.13000    23166362.00000000 14769409.00000000 36989208.00000000 7367.11962891   798032.56250000 635514.12500000 
0.13100    22794698.00000000 14539834.00000000 36404712.00000000 7168.09472656   780018.00000000 621250.56250000 
0.13200    22430272.00000000 14314734.00000000 35831348.00000000 6973.66259766   762349.18750000 607262.56250000 
0.13300    22072986.00000000 14093920.00000000 35269456.00000000 6783.76123047   745019.12500000 593534.50000000 
0.13400    21722124.00000000 13877134.00000000 34717736.00000000 6598.12744141   728014.75000000 580062.81250000 
0.13500    21377754.00000000 13664294.00000000 34176308.00000000 6416.72900391   711322.93750000 566837.37500000 
0.13600    21039470.00000000 13455330.00000000 33644172.00000000 6239.43408203   694936.37500000 553844.68750000 
0.13700    20707282.00000000 13249804.00000000 33121542.00000000 6066.24023438   678843.81250000 541085.06250000 
0.13800    20380452.00000000 13047764.00000000 32607502.00000000 5897.03320312   663043.81250000 528551.18750000 
0.13900    20059414.00000000 12849162.00000000 32102052.00000000 5731.75097656   647525.18750000 516231.96875000 
0.14000    19743346.00000000 12653668.00000000 31604688.00000000 5570.33203125   632285.75000000 504129.25000000 
0.14100    19432668.00000000 12461210.00000000 31115402.00000000 5412.67187500   617307.93750000 492235.40625000 
0.14200    19126392.00000000 12271645.00000000 30633520.00000000 5258.74755859   602593.93750000 480543.93750000 
0.14300    18825134.00000000 12084966.00000000 30158974.00000000 5108.51513672   588136.37500000 469047.62500000 
0.14400    18528168.00000000 11900920.00000000 29691368.00000000 4961.89990234   573927.43750000 457746.50000000 
0.14500    18235722.00000000 11719532.00000000 29230658.00000000 4818.92773438   559969.25000000 446638.40625000 
0.14600    17947492.00000000 11540724.00000000 28776038.00000000 4679.47070312   546249.06250000 435717.46875000 
0.14700    17663312.00000000 11364366.00000000 28328226.00000000 4543.53955078   532776.37500000 424983.50000000 
0.14800    17383108.00000000 11190270.00000000 27886460.00000000 4411.05761719   519531.03125000 414428.15625000 
0.14900    17106760.00000000 11018470.00000000 27450576.00000000 4281.97265625   506515.03125000 404052.28125000 
0.15000    16834056.00000000 10848972.00000000 27020332.00000000 4156.30175781   493731.59375000 393855.96875000 
0.15100    16565198.00000000 10681617.00000000 26595786.00000000 4033.97387695   481174.53125000 383832.71875000 
0.15200    16299760.00000000 10516316.00000000 26176780.00000000 3915.02221680   468844.31250000 373987.34375000 
0.15300    16037975.00000000 10353113.00000000 25763154.00000000 3799.28369141   456731.90625000 364312.93750000 
0.15400    15779392.00000000 10191900.00000000 25354590.00000000 3686.81542969   444840.31250000 354810.84375000 
0.15500    15524226.00000000 10032614.00000000 24951324.00000000 3577.52661133   433169.31250000 345473.68750000 
0.15600    15272324.00000000 9875218.00000000 24552752.00000000 3471.43481445   421713.31250000 336307.12500000 
0.15700    15023689.00000000 9719792.00000000 24159424.00000000 3368.50244141   410476.53125000 327312.56250000 
0.15800    14778050.00000000 9566078.00000000 23770692.00000000 3268.62939453   399447.75000000 318477.56250000 
0.15900    14535771.00000000 9414280.00000000 23386968.00000000 3171.83032227   388634.06250000 309810.78125000 
0.16000    14296347.00000000 9264299.00000000 23007744.00000000 3078.04663086   378031.15625000 301308.50000000 
0.16100    14060189.00000000 9116093.00000000 22633494.00000000 2987.26806641   367641.90625000 292971.68750000 
0.16200    13826843.00000000 8969606.00000000 22263458.00000000 2899.38574219   357457.96875000 284798.15625000 
0.16300    13596545.00000000 8824850.00000000 21898244.00000000 2814.40112305   347483.62500000 276786.84375000 
0.16400    13369261.00000000 8681889.00000000 21537490.00000000 2732.27587891   337714.03125000 268938.15625000 
0.16500    13144903.00000000 8540604.00000000 21181222.00000000 2652.91064453   328148.93750000 261249.70312500 
0.16600    12923440.00000000 8401057.00000000 20829320.00000000 2576.31567383   318791.15625000 253721.25000000 
0.16700    12704899.00000000 8263111.50000000 20481992.00000000 2502.37500000   309633.34375000 246350.18750000 
0.16800    12489136.00000000 8126867.00000000 20139024.00000000 2431.05371094   300676.00000000 239137.85937500 
0.16900    12276319.00000000 7992393.00000000 19800466.00000000 2362.33764648   291922.90625000 232083.62500000 
0.17000    12066335.00000000 7859505.50000000 19466354.00000000 2296.15405273   283364.09375000 225186.50000000 
