# SAXS profile: number of points = 501, q_min = 0, q_max = 0.5, delta_q = 0.001
#    q    intensity 
0.00000    162230240.00000000 101203064.00000000 256269696.00000000 109818.87500000 8442016.00000000 6667497.00000000 
0.00100    162191648.00000000 101174744.00000000 256200752.00000000 109779.20312500 8439306.00000000 6665329.50000000 
0.00200    162068480.00000000 101094104.00000000 255995776.00000000 109661.07031250 8431298.00000000 6659090.00000000 
0.00300    161855088.00000000 100959688.00000000 255654304.00000000 109464.36718750 8417945.00000000 6648592.00000000 
0.00400    161545600.00000000 100772248.00000000 255173504.00000000 109189.46875000 8399272.00000000 6633958.50000000 
0.00500    161149248.00000000 100529264.00000000 254556864.00000000 108837.65625000 8375359.00000000 6615173.50000000 
0.00600    160670384.00000000 100235952.00000000 253810080.00000000 108409.89062500 8346246.00000000 6592377.00000000 
0.00700    160099216.00000000 99891480.00000000 252928528.00000000 107906.11718750 8311960.00000000 6565467.00000000 
0.00800    159452704.00000000 99496392.00000000 251915472.00000000 107328.95312500 8272697.50000000 6534664.50000000 
0.00900    158727904.00000000 99050952.00000000 250775696.00000000 106680.16406250 8228438.00000000 6499953.50000000 
0.01000    157922064.00000000 98554320.00000000 249507568.00000000 105960.23437500 8179367.50000000 6461453.00000000 
0.01100    157033504.00000000 98008944.00000000 248117824.00000000 105172.75781250 8125594.00000000 6419197.00000000 
0.01200    156066784.00000000 97416024.00000000 246605536.00000000 104318.10156250 8067219.50000000 6373347.00000000 
0.01300    155026768.00000000 96777952.00000000 244975488.00000000 103399.72656250 8004342.50000000 6324065.00000000 
0.01400    153914784.00000000 96095384.00000000 243232720.00000000 102419.23437500 7937267.50000000 6271382.50000000 
0.01500    152731264.00000000 95369024.00000000 241377552.00000000 101380.08593750 7865916.50000000 6215396.00000000 
0.01600    151480208.00000000 94600096.00000000 239415200.00000000 100284.46875000 7790612.00000000 6156271.00000000 
0.01700    150161712.00000000 93790616.00000000 237351552.00000000 99135.07031250  7711496.50000000 6094178.50000000 
0.01800    148781328.00000000 92943528.00000000 235186784.00000000 97934.78906250  7628778.50000000 6029201.50000000 
0.01900    147341136.00000000 92057328.00000000 232927360.00000000 96686.57812500  7542606.00000000 5961525.00000000 
0.02000    145841808.00000000 91136104.00000000 230575968.00000000 95393.42968750  7453166.50000000 5891274.00000000 
0.02100    144288784.00000000 90180640.00000000 228141184.00000000 94059.03906250  7360666.00000000 5818604.50000000 
0.02200    142683760.00000000 89193312.00000000 225621024.00000000 92685.28125000  7265303.00000000 5743653.50000000 
0.02300    141029184.00000000 88174880.00000000 223025952.00000000 91277.77343750  7167290.50000000 5666643.50000000 
0.02400    139329152.00000000 87127896.00000000 220357728.00000000 89836.78906250  7066828.00000000 5587677.50000000 
0.02500    137586144.00000000 86055064.00000000 217623632.00000000 88368.21093750  6964123.50000000 5506973.00000000 
0.02600    135804848.00000000 84957968.00000000 214825904.00000000 86873.94531250  6859370.50000000 5424613.50000000 
0.02700    133986568.00000000 83836848.00000000 211972592.00000000 85357.31250000  6752784.50000000 5340778.00000000 
0.02800    132135072.00000000 82694960.00000000 209065200.00000000 83821.29687500  6644618.50000000 5255710.00000000 
0.02900    130254632.00000000 81534560.00000000 206109824.00000000 82270.15625000  6534967.00000000 5169563.00000000 
0.03000    128346528.00000000 80357880.00000000 203113232.00000000 80706.08593750  6424249.50000000 5082383.50000000 
0.03100    126414752.00000000 79165672.00000000 200076288.00000000 79132.94531250  6312460.50000000 4994457.50000000 
0.03200    124462928.00000000 77960664.00000000 197007744.00000000 77552.89843750  6199907.50000000 4905882.00000000 
0.03300    122493672.00000000 76743920.00000000 193910944.00000000 75969.99218750  6086738.00000000 4816775.00000000 
0.03400    120511040.00000000 75517880.00000000 190793888.00000000 74386.70312500  5973143.00000000 4727354.00000000 
0.03500    118516224.00000000 74283288.00000000 187654208.00000000 72804.60937500  5859376.50000000 4637789.50000000 
0.03600    116512912.00000000 73043192.00000000 184502080.00000000 71227.38281250  5745553.00000000 4548093.50000000 
0.03700    114504688.00000000 71799928.00000000 181341840.00000000 69658.64843750  5631880.00000000 4458512.00000000 
0.03800    112493896.00000000 70554680.00000000 178177632.00000000 68098.22656250  5518487.00000000 4369136.00000000 
0.03900    110482832.00000000 69307728.00000000 175011472.00000000 66550.12500000  5405594.00000000 4280147.00000000 
0.04000    108476032.00000000 68063472.00000000 171848848.00000000 65016.72265625  5293295.50000000 4191657.25000000 
0.04100    106473984.00000000 66820484.00000000 168694560.00000000 63499.51171875  5181810.50000000 4103714.50000000 
0.04200    104480112.00000000 65582548.00000000 165551120.00000000 62000.60546875  5071262.50000000 4016505.50000000 
0.04300    102496632.00000000 64350380.00000000 162422976.00000000 60521.80859375  4961772.00000000 3930106.75000000 
0.04400    100525456.00000000 63125220.00000000 159317376.00000000 59064.48046875  4853428.50000000 3844631.25000000 
0.04500    98569568.00000000 61909148.00000000 156231152.00000000 57630.56250000  4746380.00000000 3760139.00000000 
0.04600    96630624.00000000 60702344.00000000 153172560.00000000 56221.08593750  4640734.50000000 3676739.00000000 
0.04700    94710872.00000000 59506660.00000000 150142768.00000000 54837.17968750  4536649.00000000 3594504.75000000 
0.04800    92810920.00000000 58323840.00000000 147146608.00000000 53480.21093750  4434153.00000000 3513538.00000000 
0.04900    90934864.00000000 57154028.00000000 144182896.00000000 52151.23437500  4333326.00000000 3433880.75000000 
0.05000    89082040.00000000 55998888.00000000 141256608.00000000 50850.36718750  4234240.50000000 3355607.25000000 
0.05100    87255920.00000000 54859040.00000000 138371072.00000000 49579.17187500  4137009.25000000 3278739.25000000 
0.05200    85455584.00000000 53736032.00000000 135528672.00000000 48337.37890625  4041649.75000000 3203340.25000000 
0.05300    83684960.00000000 52629688.00000000 132727640.00000000 47125.88671875  3948244.75000000 3129464.00000000 
0.05400    81943616.00000000 51541344.00000000 129973104.00000000 45944.73828125  3856802.75000000 3057150.00000000 
0.05500    80232976.00000000 50471512.00000000 127267464.00000000 44794.11328125  3767409.75000000 2986374.25000000 
0.05600    78552952.00000000 49421012.00000000 124611352.00000000 43674.31250000  3680001.25000000 2917232.25000000 
0.05700    76905736.00000000 48390348.00000000 122005344.00000000 42585.14062500  3594680.50000000 2849696.25000000 
0.05800    75291896.00000000 47380248.00000000 119450904.00000000 41526.49218750  3511456.00000000 2783762.75000000 
0.05900    73712056.00000000 46389608.00000000 116949712.00000000 40498.16015625  3430275.75000000 2719489.25000000 
0.06000    72165280.00000000 45420764.00000000 114501864.00000000 39499.47656250  3351164.50000000 2656842.75000000 
0.06100    70654056.00000000 44473112.00000000 112108640.00000000 38530.46875000  3274157.75000000 2595809.75000000 
0.06200    69177200.00000000 43547604.00000000 109769808.00000000 37590.16796875  3199197.75000000 2536422.50000000 
0.06300    67735920.00000000 42643156.00000000 107486160.00000000 36678.62500000  3126281.00000000 2478633.75000000 
0.06400    66329976.00000000 41760680.00000000 105258544.00000000 35795.07812500  3055382.50000000 2422478.00000000 
0.06500    64959100.00000000 40900272.00000000 103086904.00000000 34938.90625000  2986496.75000000 2367850.25000000 
0.06600    63623660.00000000 40061508.00000000 100969384.00000000 34108.82031250  2919557.00000000 2314785.25000000 
0.06700    62323068.00000000 39244836.00000000 98908768.00000000 33305.09375000  2854579.50000000 2263276.50000000 
0.06800    61057212.00000000 38449972.00000000 96902224.00000000 32526.00781250  2791456.50000000 2213251.25000000 
0.06900    59826556.00000000 37676828.00000000 94950440.00000000 31771.24609375  2730265.00000000 2164703.75000000 
0.07000    58629788.00000000 36925056.00000000 93054368.00000000 31040.06054688  2670817.50000000 2117574.75000000 
0.07100    57466920.00000000 36194936.00000000 91211112.00000000 30331.56640625  2613156.25000000 2071873.50000000 
0.07200    56337884.00000000 35485388.00000000 89421576.00000000 29644.58007812  2557213.00000000 2027506.12500000 
0.07300    55241952.00000000 34797184.00000000 87684192.00000000 28978.89062500  2502948.25000000 1984482.37500000 
0.07400    54178220.00000000 34129040.00000000 85998136.00000000 28333.06640625  2450291.00000000 1942736.87500000 
0.07500    53146088.00000000 33481710.00000000 84363248.00000000 27706.41210938  2399210.25000000 1902247.25000000 
0.07600    52145428.00000000 32853612.00000000 82777000.00000000 27098.33593750  2349643.00000000 1862958.62500000 
0.07700    51175516.00000000 32245098.00000000 81240072.00000000 26507.97265625  2301546.00000000 1824823.00000000 
0.07800    50234956.00000000 31655262.00000000 79750440.00000000 25934.18750000  2254867.00000000 1787819.25000000 
0.07900    49324036.00000000 31084144.00000000 78307920.00000000 25376.74414062  2209533.25000000 1751911.12500000 
0.08000    48441224.00000000 30530922.00000000 76909544.00000000 24834.37500000  2165502.25000000 1717027.62500000 
0.08100    47586148.00000000 29995436.00000000 75557184.00000000 24306.98828125  2122733.25000000 1683163.00000000 
0.08200    46757724.00000000 29476846.00000000 74246888.00000000 23793.28320312  2081156.75000000 1650234.37500000 
0.08300    45955284.00000000 28975238.00000000 72977504.00000000 23292.91015625  2040766.12500000 1618237.00000000 
0.08400    45178328.00000000 28489620.00000000 71749264.00000000 22805.04882812  2001464.62500000 1587139.75000000 
0.08500    44426108.00000000 28019868.00000000 70560056.00000000 22329.21679688  1963218.75000000 1556874.25000000 
0.08600    43697404.00000000 27565158.00000000 69408104.00000000 21864.91796875  1926008.25000000 1527414.37500000 
0.08700    42991288.00000000 27124896.00000000 68293264.00000000 21411.52148438  1889752.25000000 1498743.62500000 
0.08800    42307560.00000000 26698966.00000000 67213768.00000000 20968.47460938  1854417.00000000 1470812.62500000 
0.08900    41644924.00000000 26286738.00000000 66168336.00000000 20535.40429688  1819986.37500000 1443571.00000000 
0.09000    41002648.00000000 25887716.00000000 65155456.00000000 20111.95507812  1786394.62500000 1417002.75000000 
0.09100    40379572.00000000 25501126.00000000 64174348.00000000 19697.56054688  1753601.87500000 1391104.25000000 
0.09200    39776180.00000000 25126702.00000000 63222468.00000000 19291.93164062  1721584.75000000 1365797.00000000 
0.09300    39190536.00000000 24764018.00000000 62301240.00000000 18894.61914062  1690323.00000000 1341093.12500000 
0.09400    38621496.00000000 24411970.00000000 61406040.00000000 18505.27734375  1659747.00000000 1316949.87500000 
0.09500    38069804.00000000 24071036.00000000 60538180.00000000 18123.82812500  1629845.25000000 1293327.75000000 
0.09600    37533596.00000000 23740030.00000000 59695764.00000000 17749.91992188  1600581.12500000 1270228.87500000 
0.09700    37013168.00000000 23418938.00000000 58877660.00000000 17383.28710938  1571943.25000000 1247609.75000000 
0.09800    36506152.00000000 23106882.00000000 58082368.00000000 17023.80078125  1543906.00000000 1225479.62500000 
0.09900    36013196.00000000 22803686.00000000 57308700.00000000 16671.09570312  1516432.75000000 1203782.12500000 
0.10000    35533172.00000000 22508818.00000000 56556352.00000000 16325.11914062  1489491.00000000 1182523.25000000 
0.10100    35066120.00000000 22221942.00000000 55823308.00000000 15985.56738281  1463067.75000000 1161673.87500000 
0.10200    34610592.00000000 21942512.00000000 55109324.00000000 15652.32910156  1437157.00000000 1141213.00000000 
0.10300    34165684.00000000 21670090.00000000 54413448.00000000 15325.55371094  1411718.87500000 1121137.00000000 
0.10400    33731724.00000000 21404464.00000000 53733788.00000000 15004.62792969  1386747.50000000 1101430.62500000 
0.10500    33307958.00000000 21145044.00000000 53070580.00000000 14689.92773438  1362239.87500000 1082082.25000000 
0.10600    32893358.00000000 20891846.00000000 52422116.00000000 14381.14453125  1338152.87500000 1063050.75000000 
0.10700    32487784.00000000 20644086.00000000 51787920.00000000 14077.96386719  1314471.25000000 1044370.31250000 
0.10800    32090366.00000000 20401632.00000000 51166468.00000000 13780.63769531  1291221.00000000 1025994.12500000 
0.10900    31700926.00000000 20163976.00000000 50557736.00000000 13488.84179688  1268344.62500000 1007928.56250000 
0.11000    31318908.00000000 19930916.00000000 49961000.00000000 13202.61914062  1245846.25000000 990154.93750000 
0.11100    30943708.00000000 19702130.00000000 49375056.00000000 12921.77832031  1223724.75000000 972678.00000000 
0.11200    30575430.00000000 19477568.00000000 48798904.00000000 12646.34570312  1201960.87500000 955470.25000000 
0.11300    30213068.00000000 19256526.00000000 48232536.00000000 12376.11523438  1180537.62500000 938535.87500000 
0.11400    29856202.00000000 19038896.00000000 47674980.00000000 12111.32519531  1159461.75000000 921865.87500000 
0.11500    29504758.00000000 18824450.00000000 47125428.00000000 11851.48046875  1138707.37500000 905449.00000000 
0.11600    29158062.00000000 18613094.00000000 46583436.00000000 11596.78027344  1118277.50000000 889284.62500000 
0.11700    28816024.00000000 18404244.00000000 46049196.00000000 11347.00683594  1098158.62500000 873356.18750000 
0.11800    28478166.00000000 18197978.00000000 45520632.00000000 11102.08496094  1078333.50000000 857666.37500000 
0.11900    28144334.00000000 17993980.00000000 44998036.00000000 10861.82324219  1058812.62500000 842204.31250000 
0.12000    27813870.00000000 17791804.00000000 44481092.00000000 10626.38964844  1039578.37500000 826953.93750000 
0.12100    27487328.00000000 17591780.00000000 43969608.00000000 10395.61132812  1020630.81250000 811939.31250000 
0.12200    27163324.00000000 17393104.00000000 43462076.00000000 10169.25488281  1001953.18750000 797132.56250000 
0.12300    26842048.00000000 17196284.00000000 42958880.00000000 9947.28222656   983542.43750000 782530.50000000 
0.12400    26523642.00000000 17000748.00000000 42459528.00000000 9729.60742188   965384.06250000 768126.68750000 
0.12500    26207536.00000000 16806470.00000000 41963676.00000000 9516.14257812   947492.81250000 753917.87500000 
0.12600    25893456.00000000 16613350.00000000 41470692.00000000 9306.86328125   929850.25000000 739907.93750000 
0.12700    25581532.00000000 16421037.00000000 40980848.00000000 9101.47949219   912435.50000000 726084.12500000 
0.12800    25271090.00000000 16229813.00000000 40492892.00000000 8899.97265625   895262.56250000 712438.93750000 
0.12900    24962498.00000000 16039116.00000000 40007600.00000000 8702.54785156   878322.31250000 698976.18750000 
0.13000    24655158.00000000 15849164.00000000 39524060.00000000 8508.58007812   861598.25000000 685690.00000000 
0.13100    24349342.00000000 15659725.00000000 39042392.00000000 8318.36621094   845106.37500000 672566.87500000 
0.13200    24044854.00000000 15470825.00000000 38562872.00000000 8131.62988281   828817.18750000 659616.37500000 
0.13300    23741066.00000000 15282463.00000000 38083832.00000000 7948.35205078   812739.87500000 646826.12500000 
0.13400    23438650.00000000 15094448.00000000 37606636.00000000 7768.32421875   796871.31250000 634193.56250000 
0.13500    23137104.00000000 14906738.00000000 37131004.00000000 7591.62548828   781192.31250000 621717.62500000 
0.13600    22836232.00000000 14719294.00000000 36655424.00000000 7418.10888672   765717.56250000 609396.68750000 
0.13700    22536214.00000000 14532177.00000000 36182016.00000000 7247.68017578   750431.68750000 597220.06250000 
0.13800    22237090.00000000 14345220.00000000 35708580.00000000 7080.27001953   735321.62500000 585192.12500000 
0.13900    21938682.00000000 14158539.00000000 35236212.00000000 6915.87207031   720408.75000000 573317.68750000 
0.14000    21641082.00000000 13972108.00000000 34764968.00000000 6754.39453125   705677.12500000 561580.25000000 
0.14100    21344060.00000000 13785891.00000000 34294640.00000000 6595.73583984   691122.43750000 549981.25000000 
0.14200    21047790.00000000 13599872.00000000 33824916.00000000 6439.86816406   676738.81250000 538517.50000000 
0.14300    20752234.00000000 13414199.00000000 33356476.00000000 6286.75390625   662530.06250000 527198.62500000 
0.14400    20457430.00000000 13228699.00000000 32888380.00000000 6136.38037109   648495.00000000 516005.25000000 
0.14500    20163282.00000000 13043542.00000000 32421934.00000000 5988.60107422   634631.37500000 504957.34375000 
0.14600    19870298.00000000 12858689.00000000 31956042.00000000 5843.53466797   620934.68750000 494036.71875000 
0.14700    19577828.00000000 12674236.00000000 31491436.00000000 5701.07763672   607407.93750000 483250.56250000 
0.14800    19286512.00000000 12490203.00000000 31028356.00000000 5561.19189453   594047.31250000 472593.75000000 
0.14900    18996274.00000000 12306533.00000000 30566616.00000000 5423.82910156   580847.37500000 462071.31250000 
0.15000    18706864.00000000 12123489.00000000 30106048.00000000 5289.10644531   567818.18750000 451680.09375000 
0.15100    18418490.00000000 11940839.00000000 29647190.00000000 5156.85791016   554950.18750000 441420.53125000 
0.15200    18131724.00000000 11759064.00000000 29190376.00000000 5027.20898438   542261.00000000 431296.59375000 
0.15300    17846126.00000000 11577792.00000000 28735294.00000000 4900.09277344   529732.00000000 421299.03125000 
0.15400    17562004.00000000 11397284.00000000 28282348.00000000 4775.40429688   517373.40625000 411439.37500000 
0.15500    17279282.00000000 11217696.00000000 27831560.00000000 4653.34277344   505175.62500000 401711.71875000 
0.15600    16998150.00000000 11038920.00000000 27383020.00000000 4533.72216797   493155.46875000 392117.37500000 
0.15700    16718787.00000000 10861093.00000000 26937448.00000000 4416.72460938   481310.03125000 382662.78125000 
0.15800    16441412.00000000 10684253.00000000 26494376.00000000 4302.14990234   469629.06250000 373338.06250000 
0.15900    16165760.00000000 10508628.00000000 26054432.00000000 4190.17822266   458126.34375000 364156.84375000 
0.16000    15892203.00000000 10334074.00000000 25617196.00000000 4080.68237305   446795.31250000 355113.75000000 
0.16100    15620822.00000000 10160832.00000000 25183696.00000000 3973.78662109   435646.37500000 346208.96875000 
0.16200    15351654.00000000 9988854.00000000 24753260.00000000 3869.37158203   424672.68750000 337448.25000000 
0.16300    15084837.00000000 9818256.00000000 24326674.00000000 3767.49902344   413880.06250000 328827.37500000 
0.16400    14820560.00000000 9649227.00000000 23903798.00000000 3668.16503906   403270.43750000 320350.21875000 
0.16500    14558725.00000000 9481713.00000000 23485082.00000000 3571.29638672   392843.84375000 312020.46875000 
0.16600    14299742.00000000 9315728.00000000 23070270.00000000 3476.97583008   382600.71875000 303834.50000000 
0.16700    14043348.00000000 9151334.00000000 22659846.00000000 3385.11962891   372542.75000000 295795.78125000 
0.16800    13789868.00000000 8988786.00000000 22253948.00000000 3295.73779297   362670.90625000 287900.15625000 
0.16900    13539397.00000000 8828078.00000000 21852734.00000000 3208.84838867   352988.65625000 280163.84375000 
0.17000    13291979.00000000 8669085.00000000 21456212.00000000 3124.36352539   343493.18750000 272565.75000000 
