# SAXS profile: number of points = 501, q_min = 0, q_max = 0.5, delta_q = 0.001
#    q    intensity 
0.00000    162237168.00000000 101201768.00000000 256271664.00000000 101459.28125000 8114337.50000000 6408693.50000000 
0.00100    162197296.00000000 101176264.00000000 256206624.00000000 101430.00000000 8112119.50000000 6406913.50000000 
0.00200    162076000.00000000 101098680.00000000 256010912.00000000 101341.57031250 8105508.50000000 6401678.00000000 
0.00300    161868656.00000000 100970240.00000000 255685168.00000000 101195.26562500 8094439.00000000 6392984.50000000 
0.00400    161578912.00000000 100790456.00000000 255227984.00000000 100990.83593750 8078954.00000000 6380794.00000000 
0.00500    161206704.00000000 100560168.00000000 254642800.00000000 100728.60156250 8059086.00000000 6365153.50000000 
0.00600    160752944.00000000 100277944.00000000 253927168.00000000 100408.97656250 8034919.00000000 6346115.00000000 
0.00700    160218864.00000000 99947432.00000000 253088128.00000000 100032.42187500 8006490.50000000 6323703.00000000 
0.00800    159603264.00000000 99566600.00000000 252121824.00000000 99601.39062500  7973816.50000000 6297964.50000000 
0.00900    158911616.00000000 99137768.00000000 251032192.00000000 99113.89062500  7936976.00000000 6268905.00000000 
0.01000    158145440.00000000 98661168.00000000 249822816.00000000 98572.99218750  7896021.00000000 6236637.50000000 
0.01100    157301888.00000000 98137624.00000000 248491040.00000000 97978.64062500  7850970.50000000 6201187.50000000 
0.01200    156383344.00000000 97567552.00000000 247044576.00000000 97331.57812500  7802051.00000000 6162584.00000000 
0.01300    155391088.00000000 96952280.00000000 245483232.00000000 96635.21875000  7749274.50000000 6120996.00000000 
0.01400    154329184.00000000 96292744.00000000 243808896.00000000 95888.83593750  7692732.50000000 6076445.50000000 
0.01500    153196736.00000000 95590200.00000000 242026736.00000000 95094.83593750  7632500.50000000 6028969.50000000 
0.01600    151999008.00000000 94847200.00000000 240137440.00000000 94254.07031250  7568744.50000000 5978715.00000000 
0.01700    150735712.00000000 94062872.00000000 238147072.00000000 93368.19531250  7501551.00000000 5925757.00000000 
0.01800    149408416.00000000 93238672.00000000 236056576.00000000 92439.55468750  7431017.00000000 5870179.00000000 
0.01900    148020432.00000000 92377952.00000000 233871680.00000000 91468.83593750  7357325.00000000 5812067.50000000 
0.02000    146576320.00000000 91480328.00000000 231594096.00000000 90458.59375000  7280548.00000000 5751591.00000000 
0.02100    145073120.00000000 90548496.00000000 229226672.00000000 89410.11718750  7200865.50000000 5688785.00000000 
0.02200    143518720.00000000 89583952.00000000 226776384.00000000 88325.90625000  7118386.00000000 5623780.50000000 
0.02300    141913920.00000000 88587232.00000000 224247760.00000000 87207.12500000  7033277.50000000 5556638.00000000 
0.02400    140259344.00000000 87560184.00000000 221641136.00000000 86056.21093750  6945618.00000000 5487594.00000000 
0.02500    138560448.00000000 86505512.00000000 218964144.00000000 84875.31250000  6855627.50000000 5416653.00000000 
0.02600    136818912.00000000 85423872.00000000 216218592.00000000 83666.77343750  6763458.50000000 5343982.50000000 
0.02700    135037632.00000000 84318216.00000000 213409920.00000000 82431.44531250  6669220.50000000 5269685.50000000 
0.02800    133218008.00000000 83188832.00000000 210544400.00000000 81172.32812500  6573060.00000000 5193914.50000000 
0.02900    131365024.00000000 82038136.00000000 207623872.00000000 79891.28125000  6475221.50000000 5116739.00000000 
0.03000    129480752.00000000 80867792.00000000 204654144.00000000 78590.41406250  6375749.00000000 5038337.00000000 
0.03100    127567472.00000000 79679736.00000000 201639392.00000000 77271.63281250  6274842.00000000 4958813.00000000 
0.03200    125629472.00000000 78476328.00000000 198585120.00000000 75937.63281250  6172679.50000000 4878242.00000000 
0.03300    123668568.00000000 77257992.00000000 195493328.00000000 74590.09375000  6069426.00000000 4796831.00000000 
0.03400    121687736.00000000 76027936.00000000 192371024.00000000 73230.71093750  5965188.50000000 4714630.00000000 
0.03500    119690064.00000000 74787176.00000000 189223104.00000000 71862.48437500  5860119.50000000 4631830.00000000 
0.03600    117678152.00000000 73537640.00000000 186050352.00000000 70486.43750000  5754404.00000000 4548430.00000000 
0.03700    115655312.00000000 72281096.00000000 182862976.00000000 69105.50000000  5648195.00000000 4464709.00000000 
0.03800    113624664.00000000 71019960.00000000 179661120.00000000 67720.62500000  5541647.00000000 4380742.50000000 
0.03900    111587328.00000000 69754768.00000000 176450080.00000000 66335.28125000  5434928.00000000 4296529.00000000 
0.04000    109547680.00000000 68487008.00000000 173233616.00000000 64949.34375000  5328117.00000000 4212295.50000000 
0.04100    107508208.00000000 67219520.00000000 170017520.00000000 63566.42968750  5221331.50000000 4128095.75000000 
0.04200    105469936.00000000 65953516.00000000 166805488.00000000 62186.89062500  5114816.50000000 4044088.50000000 
0.04300    103437112.00000000 64690276.00000000 163600320.00000000 60813.62890625  5008615.00000000 3960345.50000000 
0.04400    101412248.00000000 63431608.00000000 160406592.00000000 59447.33203125  4902944.50000000 3876979.75000000 
0.04500    99396488.00000000 62179044.00000000 157229920.00000000 58090.27734375  4797812.50000000 3794065.00000000 
0.04600    97393096.00000000 60934020.00000000 154069984.00000000 56744.56640625  4693423.50000000 3711747.75000000 
0.04700    95403480.00000000 59697832.00000000 150935328.00000000 55409.98828125  4589896.50000000 3630059.25000000 
0.04800    93431616.00000000 58471540.00000000 147824816.00000000 54089.13281250  4487310.00000000 3549122.25000000 
0.04900    91478200.00000000 57256876.00000000 144743040.00000000 52783.16015625  4385746.00000000 3469013.00000000 
0.05000    89545000.00000000 56055196.00000000 141693008.00000000 51492.96875000  4285363.00000000 3389835.00000000 
0.05100    87634280.00000000 54867524.00000000 138681280.00000000 50220.42968750  4186208.25000000 3311612.00000000 
0.05200    85747672.00000000 53694380.00000000 135706992.00000000 48965.90625000  4088419.50000000 3234458.00000000 
0.05300    83886840.00000000 52537692.00000000 132772904.00000000 47731.39453125  3992046.25000000 3158406.50000000 
0.05400    82054344.00000000 51398196.00000000 129882120.00000000 46516.75781250  3897162.75000000 3083570.50000000 
0.05500    80250152.00000000 50276708.00000000 127037448.00000000 45323.12500000  3803842.00000000 3009926.25000000 
0.05600    78476920.00000000 49174000.00000000 124240440.00000000 44151.94531250  3712184.50000000 2937602.75000000 
0.05700    76735448.00000000 48091008.00000000 121493648.00000000 43003.36718750  3622219.50000000 2866619.75000000 
0.05800    75026640.00000000 47028328.00000000 118798584.00000000 41878.09765625  3533998.50000000 2797020.75000000 
0.05900    73351864.00000000 45986940.00000000 116157536.00000000 40776.42968750  3447581.00000000 2728794.75000000 
0.06000    71711896.00000000 44967416.00000000 113571496.00000000 39699.57421875  3363027.25000000 2662078.50000000 
0.06100    70108608.00000000 43970148.00000000 111041952.00000000 38647.35546875  3280335.50000000 2596829.00000000 
0.06200    68540832.00000000 42995272.00000000 108569688.00000000 37620.27343750  3199574.50000000 2533106.25000000 
0.06300    67010804.00000000 42043980.00000000 106156624.00000000 36618.35546875  3120761.25000000 2470882.00000000 
0.06400    65518808.00000000 41115812.00000000 103803032.00000000 35642.06250000  3043875.25000000 2410216.50000000 
0.06500    64064720.00000000 40211760.00000000 101509800.00000000 34691.57031250  2969005.25000000 2351126.75000000 
0.06600    62649376.00000000 39331504.00000000 99276216.00000000 33766.56250000  2896121.75000000 2293593.00000000 
0.06700    61272776.00000000 38475152.00000000 97105432.00000000 32867.53125000  2825226.00000000 2237626.25000000 
0.06800    59934992.00000000 37643584.00000000 94995824.00000000 31994.02148438  2756314.00000000 2183249.75000000 
0.06900    58635980.00000000 36836012.00000000 92947432.00000000 31146.01171875  2689399.50000000 2130431.75000000 
0.07000    57376300.00000000 36052672.00000000 90960656.00000000 30323.09765625  2624475.75000000 2079180.62500000 
0.07100    56155396.00000000 35293464.00000000 89035448.00000000 29525.32031250  2561500.50000000 2029475.50000000 
0.07200    54973140.00000000 34558772.00000000 87170488.00000000 28752.33789062  2500478.75000000 1981312.12500000 
0.07300    53828992.00000000 33847500.00000000 85366880.00000000 28003.75976562  2441399.75000000 1934685.00000000 
0.07400    52723024.00000000 33160084.00000000 83622848.00000000 27279.11328125  2384186.25000000 1889529.37500000 
0.07500    51654808.00000000 32495846.00000000 81937960.00000000 26578.07421875  2328877.00000000 1845872.50000000 
0.07600    50623236.00000000 31855122.00000000 80311936.00000000 25900.02539062  2275399.50000000 1803644.00000000 
0.07700    49628320.00000000 31236910.00000000 78743216.00000000 25244.69335938  2223718.50000000 1762871.50000000 
0.07800    48668912.00000000 30641116.00000000 77231232.00000000 24611.24218750  2173813.75000000 1723481.87500000 
0.07900    47744908.00000000 30067124.00000000 75774616.00000000 23999.38085938  2125638.25000000 1685448.12500000 
0.08000    46854752.00000000 29514574.00000000 74372552.00000000 23408.29492188  2079121.00000000 1648750.25000000 
0.08100    45998552.00000000 28983404.00000000 73023024.00000000 22837.68164062  2034260.50000000 1613344.37500000 
0.08200    45174948.00000000 28471994.00000000 71724880.00000000 22286.50000000  1990989.37500000 1579188.25000000 
0.08300    44382936.00000000 27980730.00000000 70477664.00000000 21754.42187500  1949240.87500000 1546255.37500000 
0.08400    43621808.00000000 27508978.00000000 69277936.00000000 21240.72265625  1908985.12500000 1514495.87500000 
0.08500    42890204.00000000 27055592.00000000 68127024.00000000 20744.66992188  1870182.12500000 1483859.50000000 
0.08600    42187708.00000000 26620320.00000000 67020528.00000000 20265.53515625  1832739.50000000 1454319.25000000 
0.08700    41513204.00000000 26202544.00000000 65958776.00000000 19802.66406250  1796635.62500000 1425846.12500000 
0.08800    40865340.00000000 25801426.00000000 64939592.00000000 19355.29296875  1761812.75000000 1398375.12500000 
0.08900    40242992.00000000 25416420.00000000 63960024.00000000 18922.99804688  1728206.62500000 1371870.00000000 
0.09000    39645340.00000000 25046720.00000000 63020272.00000000 18505.15625000  1695761.12500000 1346269.25000000 
0.09100    39071256.00000000 24691948.00000000 62117108.00000000 18100.66601562  1664426.37500000 1321563.75000000 
0.09200    38519716.00000000 24351064.00000000 61250252.00000000 17709.20507812  1634159.87500000 1297681.25000000 
0.09300    37988824.00000000 24023782.00000000 60416636.00000000 17330.00781250  1604885.75000000 1274601.00000000 
0.09400    37478776.00000000 23708888.00000000 59614992.00000000 16962.39843750  1576558.87500000 1252263.75000000 
0.09500    36987768.00000000 23406450.00000000 58843680.00000000 16605.70898438  1549136.37500000 1230642.25000000 
0.09600    36514732.00000000 23115130.00000000 58101000.00000000 16259.65527344  1522549.87500000 1209680.62500000 
0.09700    36058704.00000000 22834484.00000000 57385396.00000000 15923.41113281  1496764.25000000 1189348.37500000 
0.09800    35618828.00000000 22563836.00000000 56694896.00000000 15596.40234375  1471725.25000000 1169618.62500000 
0.09900    35193364.00000000 22302416.00000000 56028092.00000000 15278.01464844  1447381.62500000 1150426.37500000 
0.10000    34781988.00000000 22049858.00000000 55383040.00000000 14967.98339844  1423684.00000000 1131741.75000000 
0.10100    34383424.00000000 21805154.00000000 54758208.00000000 14665.50097656  1400595.75000000 1113544.75000000 
0.10200    33996836.00000000 21568012.00000000 54152692.00000000 14370.34472656  1378061.50000000 1095785.00000000 
0.10300    33621152.00000000 21337774.00000000 53564284.00000000 14081.81445312  1356058.62500000 1078434.00000000 
0.10400    33255376.00000000 21113758.00000000 52991904.00000000 13799.64941406  1334526.00000000 1061465.75000000 
0.10500    32899098.00000000 20895592.00000000 52433636.00000000 13523.54394531  1313436.37500000 1044846.00000000 
0.10600    32550806.00000000 20682388.00000000 51888956.00000000 13252.83789062  1292758.12500000 1028539.43750000 
0.10700    32210038.00000000 20473952.00000000 51355536.00000000 12987.31933594  1272443.00000000 1012524.62500000 
0.10800    31876012.00000000 20269852.00000000 50833248.00000000 12726.58984375  1252471.62500000 996778.56250000 
0.10900    31547690.00000000 20069368.00000000 50319980.00000000 12470.52734375  1232796.87500000 981265.12500000 
0.11000    31224726.00000000 19871942.00000000 49814952.00000000 12218.59570312  1213407.75000000 965982.12500000 
0.11100    30906304.00000000 19677488.00000000 49316824.00000000 11970.76367188  1194283.87500000 950885.93750000 
0.11200    30591752.00000000 19485558.00000000 48825004.00000000 11726.68261719  1175375.75000000 935971.18750000 
0.11300    30280448.00000000 19295300.00000000 48338552.00000000 11486.14648438  1156674.25000000 921225.12500000 
0.11400    29972166.00000000 19107008.00000000 47856240.00000000 11248.92382812  1138174.37500000 906615.93750000 
0.11500    29665966.00000000 18919878.00000000 47377504.00000000 11015.00292969  1119834.00000000 892138.93750000 
0.11600    29361342.00000000 18733912.00000000 46900984.00000000 10784.12207031  1101643.87500000 877781.18750000 
0.11700    29058170.00000000 18548650.00000000 46426788.00000000 10556.22558594  1083595.00000000 863527.43750000 
0.11800    28755908.00000000 18363796.00000000 45953816.00000000 10331.04687500  1065663.75000000 849359.12500000 
0.11900    28454024.00000000 18179212.00000000 45481528.00000000 10108.65917969  1047846.43750000 835282.31250000 
0.12000    28152388.00000000 17994624.00000000 45009308.00000000 9888.93554688   1030135.25000000 821276.62500000 
0.12100    27850738.00000000 17809898.00000000 44537336.00000000 9671.86718750   1012525.56250000 807351.06250000 
0.12200    27548630.00000000 17624828.00000000 44064264.00000000 9457.37890625   995000.18750000 793490.06250000 
0.12300    27246176.00000000 17439268.00000000 43590040.00000000 9245.41015625   977563.25000000 779690.87500000 
0.12400    26942992.00000000 17252994.00000000 43114604.00000000 9035.96191406   960203.06250000 765950.87500000 
0.12500    26638590.00000000 17066078.00000000 42637500.00000000 8829.19824219   942925.06250000 752266.62500000 
0.12600    26333374.00000000 16878626.00000000 42158972.00000000 8624.85253906   925732.25000000 738646.62500000 
0.12700    26027156.00000000 16690041.00000000 41677780.00000000 8423.21875000   908612.43750000 725085.37500000 
0.12800    25719456.00000000 16500575.00000000 41195152.00000000 8224.07226562   891573.81250000 711572.68750000 
0.12900    25410628.00000000 16310265.00000000 40710124.00000000 8027.66015625   874629.06250000 698128.12500000 
0.13000    25100750.00000000 16118959.00000000 40222864.00000000 7833.88818359   857758.75000000 684749.68750000 
0.13100    24789412.00000000 15926713.00000000 39733340.00000000 7642.81884766   840985.50000000 671432.68750000 
0.13200    24477204.00000000 15733555.00000000 39242032.00000000 7454.57080078   824306.37500000 658185.25000000 
0.13300    24163566.00000000 15539472.00000000 38748416.00000000 7269.15722656   807727.56250000 645016.68750000 
0.13400    23849072.00000000 15344612.00000000 38252900.00000000 7086.61230469   791265.62500000 631929.00000000 
0.13500    23533756.00000000 15148858.00000000 37755916.00000000 6907.00488281   774906.50000000 618922.12500000 
0.13600    23217370.00000000 14952531.00000000 37256956.00000000 6730.44042969   758682.06250000 606008.87500000 
0.13700    22900362.00000000 14755393.00000000 36756756.00000000 6556.89453125   742575.50000000 593191.00000000 
0.13800    22582792.00000000 14557755.00000000 36255808.00000000 6386.45458984   726612.25000000 580475.50000000 
0.13900    22264974.00000000 14359646.00000000 35753672.00000000 6219.22900391   710785.87500000 567870.00000000 
0.14000    21946796.00000000 14161172.00000000 35250900.00000000 6055.16503906   695114.12500000 555382.62500000 
0.14100    21628490.00000000 13962376.00000000 34747648.00000000 5894.44970703   679604.31250000 543011.87500000 
0.14200    21310362.00000000 13763528.00000000 34244424.00000000 5736.95507812   664259.93750000 530766.43750000 
0.14300    20992532.00000000 13564617.00000000 33741428.00000000 5582.89062500   649089.56250000 518658.34375000 
0.14400    20675120.00000000 13365712.00000000 33238956.00000000 5432.07275391   634098.50000000 506690.59375000 
0.14500    20358628.00000000 13167176.00000000 32737316.00000000 5284.77197266   619305.75000000 494869.81250000 
0.14600    20042794.00000000 12968939.00000000 32236646.00000000 5140.93652344   604705.62500000 483201.34375000 
0.14700    19728284.00000000 12771187.00000000 31737550.00000000 5000.49218750   590312.12500000 471691.71875000 
0.14800    19414958.00000000 12573920.00000000 31240170.00000000 4863.52880859   576123.06250000 460340.25000000 
0.14900    19102894.00000000 12377363.00000000 30744846.00000000 4730.01269531   562151.81250000 449155.15625000 
0.15000    18792714.00000000 12181698.00000000 30252064.00000000 4599.98095703   548404.37500000 438144.93750000 
0.15100    18484428.00000000 11987018.00000000 29762012.00000000 4473.48339844   534883.37500000 427312.28125000 
0.15200    18178224.00000000 11793416.00000000 29274854.00000000 4350.41845703   521594.59375000 416662.03125000 
0.15300    17874404.00000000 11601131.00000000 28791094.00000000 4230.80273438   508540.46875000 406195.21875000 
0.15400    17572648.00000000 11409999.00000000 28310784.00000000 4114.58105469   495726.65625000 395913.81250000 
0.15500    17273698.00000000 11220331.00000000 27834408.00000000 4001.77172852   483157.68750000 385825.43750000 
0.15600    16977342.00000000 11032228.00000000 27362200.00000000 3892.31542969   470833.87500000 375925.25000000 
0.15700    16684284.00000000 10845887.00000000 26894282.00000000 3786.23120117   458761.25000000 366229.56250000 
0.15800    16393874.00000000 10661222.00000000 26431082.00000000 3683.34008789   446933.90625000 356723.46875000 
0.15900    16106828.00000000 10478260.00000000 25972724.00000000 3583.75146484   435362.84375000 347417.34375000 
0.16000    15823040.00000000 10297330.00000000 25519424.00000000 3487.31250000   424040.31250000 338310.00000000 
0.16100    15542928.00000000 10118439.00000000 25071430.00000000 3394.03930664   412974.93750000 329405.15625000 
0.16200    15266132.00000000 9941618.00000000 24629182.00000000 3303.81884766   402162.40625000 320699.28125000 
0.16300    14993033.00000000 9766972.00000000 24192258.00000000 3216.59106445   391597.71875000 312191.56250000 
0.16400    14723764.00000000 9594506.00000000 23761184.00000000 3132.30737305   381287.75000000 303883.21875000 
0.16500    14458386.00000000 9424357.00000000 23335774.00000000 3050.85424805   371226.12500000 295771.71875000 
0.16600    14196778.00000000 9256575.00000000 22916830.00000000 2972.24804688   361413.78125000 287858.81250000 
0.16700    13939259.00000000 9091086.00000000 22503838.00000000 2896.32373047   351844.34375000 280140.53125000 
0.16800    13685601.00000000 8928072.00000000 22097068.00000000 2823.04638672   342513.34375000 272611.87500000 
0.16900    13436129.00000000 8767522.00000000 21696866.00000000 2752.34326172   333427.96875000 265279.81250000 
0.17000    13190821.00000000 8609479.00000000 21302898.00000000 2684.10864258   324577.21875000 258132.70312500 
