# SAXS profile: number of points = 501, q_min = 0, q_max = 0.5, delta_q = 0.001
#    q    intensity 
0.00000    162238432.00000000 101201688.00000000 256272224.00000000 101238.10156250 8105507.00000000 6401720.00000000 
0.00100    162209872.00000000 101184016.00000000 256226272.00000000 101216.46093750 8103921.50000000 6400452.50000000 
0.00200    162125312.00000000 101130464.00000000 256091440.00000000 101152.75000000 8099203.00000000 6396713.50000000 
0.00300    161982208.00000000 101041384.00000000 255864928.00000000 101045.48437500 8091286.00000000 6390523.50000000 
0.00400    161781680.00000000 100917184.00000000 255548704.00000000 100896.00000000 8080264.50000000 6381822.00000000 
0.00500    161523360.00000000 100757080.00000000 255143776.00000000 100704.11718750 8066110.50000000 6370688.00000000 
0.00600    161208048.00000000 100561208.00000000 254646832.00000000 100469.75000000 8048839.00000000 6357072.50000000 
0.00700    160837280.00000000 100331736.00000000 254061568.00000000 100193.74218750 8028480.00000000 6341016.00000000 
0.00800    160409664.00000000 100066104.00000000 253388928.00000000 99876.53906250  8005053.00000000 6322546.00000000 
0.00900    159927488.00000000 99767128.00000000 252629120.00000000 99517.38281250  7978614.50000000 6301678.00000000 
0.01000    159388544.00000000 99433040.00000000 251782688.00000000 99117.89843750  7949070.50000000 6278460.00000000 
0.01100    158796272.00000000 99065960.00000000 250849568.00000000 98678.27343750  7916611.00000000 6252889.50000000 
0.01200    158150288.00000000 98665424.00000000 249832992.00000000 98198.98437500  7881205.50000000 6224977.00000000 
0.01300    157452288.00000000 98232456.00000000 248732560.00000000 97680.25781250  7842930.50000000 6194796.50000000 
0.01400    156701904.00000000 97766144.00000000 247548960.00000000 97122.92187500  7801724.50000000 6162345.00000000 
0.01500    155899392.00000000 97268064.00000000 246283584.00000000 96527.86718750  7757763.00000000 6127720.50000000 
0.01600    155045808.00000000 96738744.00000000 244939584.00000000 95896.04687500  7711018.50000000 6090877.00000000 
0.01700    154141760.00000000 96178040.00000000 243517040.00000000 95227.44531250  7661582.50000000 6051888.00000000 
0.01800    153190368.00000000 95587520.00000000 242016320.00000000 94523.50000000  7609483.00000000 6010849.50000000 
0.01900    152189856.00000000 94966904.00000000 240442224.00000000 93784.43750000  7554782.00000000 5967744.50000000 
0.02000    151143664.00000000 94318088.00000000 238792800.00000000 93011.86718750  7497534.50000000 5922634.00000000 
0.02100    150051904.00000000 93640344.00000000 237072800.00000000 92206.41406250  7437865.50000000 5875584.50000000 
0.02200    148914416.00000000 92935088.00000000 235282048.00000000 91368.53125000  7375755.00000000 5826660.50000000 
0.02300    147735088.00000000 92202960.00000000 233423360.00000000 90500.00781250  7311303.00000000 5775874.00000000 
0.02400    146512800.00000000 91444472.00000000 231497712.00000000 89601.38281250  7244575.50000000 5723310.50000000 
0.02500    145249920.00000000 90661080.00000000 229506704.00000000 88673.50781250  7175676.50000000 5668993.50000000 
0.02600    143947136.00000000 89852960.00000000 227456000.00000000 87717.96093750  7104700.50000000 5613031.50000000 
0.02700    142605872.00000000 89021176.00000000 225343552.00000000 86735.32031250  7031644.50000000 5555468.50000000 
0.02800    141228368.00000000 88166088.00000000 223173056.00000000 85726.71875000  6956610.00000000 5496346.00000000 
0.02900    139815536.00000000 87289488.00000000 220947312.00000000 84694.24218750  6879702.00000000 5435763.00000000 
0.03000    138368432.00000000 86392072.00000000 218667008.00000000 83638.32031250  6800974.00000000 5373695.50000000 
0.03100    136888320.00000000 85473360.00000000 216336816.00000000 82559.92968750  6720564.00000000 5310314.00000000 
0.03200    135377856.00000000 84536544.00000000 213956016.00000000 81459.92968750  6638500.00000000 5245664.00000000 
0.03300    133837552.00000000 83580656.00000000 211529392.00000000 80340.92187500  6554902.00000000 5179753.00000000 
0.03400    132269536.00000000 82607344.00000000 209058192.00000000 79202.74218750  6469826.50000000 5112707.50000000 
0.03500    130674576.00000000 81617696.00000000 206546288.00000000 78047.39843750  6383372.50000000 5044596.50000000 
0.03600    129054024.00000000 80612584.00000000 203992992.00000000 76875.88281250  6295649.00000000 4975415.00000000 
0.03700    127410584.00000000 79592560.00000000 201404576.00000000 75689.18750000  6206719.50000000 4905334.00000000 
0.03800    125744912.00000000 78558832.00000000 198779680.00000000 74489.06250000  6116679.50000000 4834381.00000000 
0.03900    124059792.00000000 77512864.00000000 196123408.00000000 73276.37500000  6025618.50000000 4762603.00000000 
0.04000    122355040.00000000 76454976.00000000 193438384.00000000 72052.18750000  5933614.00000000 4690111.50000000 
0.04100    120633112.00000000 75386856.00000000 190725312.00000000 70819.00000000  5840799.50000000 4616904.50000000 
0.04200    118895968.00000000 74308872.00000000 187988752.00000000 69576.36718750  5747202.50000000 4543120.00000000 
0.04300    117144368.00000000 73222088.00000000 185229152.00000000 68326.43750000  5652945.50000000 4468856.00000000 
0.04400    115381064.00000000 72126960.00000000 182450480.00000000 67070.28125000  5558082.00000000 4394061.00000000 
0.04500    113606728.00000000 71025776.00000000 179654608.00000000 65809.26562500  5462797.50000000 4318947.00000000 
0.04600    111822352.00000000 69919008.00000000 176843120.00000000 64544.16015625  5367062.00000000 4243490.00000000 
0.04700    110030672.00000000 68806976.00000000 174020432.00000000 63276.50781250  5271010.50000000 4167776.25000000 
0.04800    108232176.00000000 67691384.00000000 171188304.00000000 62007.56640625  5174746.50000000 4091883.75000000 
0.04900    106429992.00000000 66572424.00000000 168347696.00000000 60738.19921875  5078363.00000000 4015865.00000000 
0.05000    104624144.00000000 65451908.00000000 165502048.00000000 59469.71093750  4981870.50000000 3939818.00000000 
0.05100    102816760.00000000 64329760.00000000 162654192.00000000 58203.30078125  4885428.00000000 3863771.50000000 
0.05200    101009152.00000000 63207876.00000000 159805024.00000000 56940.14453125  4789064.00000000 3787809.00000000 
0.05300    99202264.00000000 62086840.00000000 156958960.00000000 55680.99609375  4692902.00000000 3711990.50000000 
0.05400    97398608.00000000 60967224.00000000 154116816.00000000 54427.09375000  4597003.50000000 3636370.50000000 
0.05500    95598512.00000000 59849664.00000000 151279600.00000000 53179.59765625  4501421.00000000 3561024.50000000 
0.05600    93803776.00000000 58735924.00000000 148452448.00000000 51939.14453125  4406264.00000000 3485981.00000000 
0.05700    92016224.00000000 57626196.00000000 145636464.00000000 50706.66796875  4311593.00000000 3411323.00000000 
0.05800    90236592.00000000 56521588.00000000 142831648.00000000 49484.08203125  4217474.00000000 3337104.00000000 
0.05900    88465960.00000000 55422560.00000000 140042128.00000000 48270.94531250  4123955.75000000 3263380.00000000 
0.06000    86706472.00000000 54330244.00000000 137269200.00000000 47069.27734375  4031151.00000000 3190180.50000000 
0.06100    84958696.00000000 53244844.00000000 134514832.00000000 45878.85156250  3939090.75000000 3117588.00000000 
0.06200    83223856.00000000 52168188.00000000 131779624.00000000 44701.75000000  3847854.75000000 3045618.00000000 
0.06300    81502640.00000000 51099872.00000000 129067800.00000000 43537.73046875  3757501.50000000 2974366.00000000 
0.06400    79796824.00000000 50040792.00000000 126379504.00000000 42387.87890625  3668067.00000000 2903844.25000000 
0.06500    78107472.00000000 48992000.00000000 123717744.00000000 41252.74218750  3579622.00000000 2834079.75000000 
0.06600    76435440.00000000 47953608.00000000 121082528.00000000 40133.60156250  3492238.50000000 2765147.50000000 
0.06700    74781880.00000000 46926848.00000000 118475704.00000000 39030.21875000  3405930.50000000 2697066.00000000 
0.06800    73146568.00000000 45911880.00000000 115899192.00000000 37943.89453125  3320767.75000000 2629902.75000000 
0.06900    71531760.00000000 44909360.00000000 113354240.00000000 36875.00000000  3236816.00000000 2563678.75000000 
0.07000    69937656.00000000 43919900.00000000 110842880.00000000 35823.53906250  3154074.00000000 2498380.50000000 
0.07100    68365992.00000000 42943840.00000000 108365056.00000000 34791.10937500  3072612.50000000 2434092.75000000 
0.07200    66815936.00000000 41981772.00000000 105923176.00000000 33777.22656250  2992444.50000000 2370871.25000000 
0.07300    65289680.00000000 41033904.00000000 103517024.00000000 32782.66796875  2913628.25000000 2308684.25000000 
0.07400    63787436.00000000 40100932.00000000 101149032.00000000 31807.58593750  2836191.75000000 2247568.50000000 
0.07500    62309272.00000000 39183368.00000000 98819632.00000000 30852.64062500  2760147.00000000 2187586.00000000 
0.07600    60856540.00000000 38281036.00000000 96529416.00000000 29918.06054688  2685556.50000000 2128707.50000000 
0.07700    59429484.00000000 37394856.00000000 94280176.00000000 29003.91210938  2612416.00000000 2070985.62500000 
0.07800    58028472.00000000 36524644.00000000 92072040.00000000 28110.53320312  2540752.00000000 2014429.62500000 
0.07900    56653736.00000000 35670768.00000000 89905328.00000000 27238.17773438  2470586.75000000 1959042.12500000 
0.08000    55306176.00000000 34834128.00000000 87781296.00000000 26386.87109375  2401945.25000000 1904862.87500000 
0.08100    53986256.00000000 34014124.00000000 85700296.00000000 25557.10546875  2334822.00000000 1851884.87500000 
0.08200    52693592.00000000 33211416.00000000 83662864.00000000 24748.42968750  2269249.25000000 1800128.75000000 
0.08300    51428948.00000000 32425928.00000000 81669448.00000000 23961.16015625  2205239.50000000 1749582.75000000 
0.08400    50192560.00000000 31657788.00000000 79719832.00000000 23195.49218750  2142773.25000000 1700265.12500000 
0.08500    48984392.00000000 30907232.00000000 77815832.00000000 22451.11328125  2081877.25000000 1652181.62500000 
0.08600    47804468.00000000 30174480.00000000 75955816.00000000 21728.29101562  2022556.37500000 1605337.25000000 
0.08700    46653576.00000000 29459480.00000000 74141440.00000000 21026.61718750  1964809.12500000 1559727.62500000 
0.08800    45530728.00000000 28762050.00000000 72371672.00000000 20346.13476562  1908603.62500000 1515347.37500000 
0.08900    44437116.00000000 28082580.00000000 70646968.00000000 19686.82226562  1853976.25000000 1472190.25000000 
0.09000    43371952.00000000 27420788.00000000 68967136.00000000 19048.41601562  1800898.75000000 1430266.62500000 
0.09100    42335068.00000000 26776622.00000000 67332968.00000000 18430.77148438  1749362.25000000 1389545.62500000 
0.09200    41326792.00000000 26150102.00000000 65743332.00000000 17833.61328125  1699375.12500000 1350042.37500000 
0.09300    40346992.00000000 25541286.00000000 64198596.00000000 17256.77148438  1650895.62500000 1311740.87500000 
0.09400    39395092.00000000 24949772.00000000 62697792.00000000 16699.85742188  1603935.50000000 1274632.25000000 
0.09500    38471468.00000000 24375776.00000000 61241172.00000000 16162.83105469  1558462.87500000 1238689.50000000 
0.09600    37575112.00000000 23818840.00000000 59828320.00000000 15645.30566406  1514466.37500000 1203913.87500000 
0.09700    36706744.00000000 23279120.00000000 58458296.00000000 15146.83593750  1471933.37500000 1170289.75000000 
0.09800    35865172.00000000 22756216.00000000 57131472.00000000 14667.17578125  1430833.25000000 1137784.25000000 
0.09900    35050836.00000000 22249794.00000000 55847020.00000000 14206.04492188  1391149.37500000 1106409.12500000 
0.10000    34262532.00000000 21759932.00000000 54604108.00000000 13762.87011719  1352848.75000000 1076118.25000000 
0.10100    33500432.00000000 21286198.00000000 53402496.00000000 13337.35156250  1315916.62500000 1046900.87500000 
0.10200    32764456.00000000 20828504.00000000 52241268.00000000 12929.05078125  1280330.00000000 1018745.87500000 
0.10300    32053284.00000000 20386430.00000000 51119904.00000000 12537.74414062  1246048.62500000 991622.12500000 
0.10400    31366962.00000000 19959816.00000000 50037560.00000000 12162.75292969  1213053.37500000 965507.87500000 
0.10500    30705386.00000000 19548326.00000000 48993400.00000000 11803.86718750  1181314.37500000 940381.93750000 
0.10600    30067230.00000000 19151518.00000000 47987088.00000000 11460.35253906  1150790.50000000 916224.25000000 
0.10700    29452572.00000000 18769256.00000000 47017244.00000000 11132.16210938  1121473.87500000 893004.68750000 
0.10800    28860766.00000000 18401282.00000000 46083608.00000000 10818.36328125  1093315.12500000 870698.18750000 
0.10900    28290978.00000000 18046720.00000000 45185112.00000000 10518.75585938  1066276.25000000 849284.93750000 
0.11000    27743212.00000000 17705914.00000000 44320516.00000000 10232.83300781  1040343.00000000 828735.50000000 
0.11100    27216364.00000000 17378200.00000000 43489336.00000000 9960.22460938   1015468.50000000 809023.31250000 
0.11200    26710158.00000000 17063080.00000000 42690404.00000000 9700.23828125   991628.43750000 790122.87500000 
0.11300    26223902.00000000 16760554.00000000 41923148.00000000 9452.49804688   968777.12500000 772002.37500000 
0.11400    25756838.00000000 16469971.00000000 41186468.00000000 9216.56347656   946896.37500000 754648.31250000 
0.11500    25308622.00000000 16190997.00000000 40479096.00000000 8991.95996094   925934.31250000 738018.87500000 
0.11600    24878650.00000000 15923368.00000000 39800296.00000000 8778.10253906   905876.37500000 722096.12500000 
0.11700    24466284.00000000 15666417.00000000 39149104.00000000 8574.63867188   886663.31250000 706846.31250000 
0.11800    24070594.00000000 15419973.00000000 38524436.00000000 8380.96582031   868274.62500000 692243.62500000 
0.11900    23691108.00000000 15183703.00000000 37925212.00000000 8196.73144531   850675.75000000 678263.25000000 
0.12000    23327370.00000000 14956933.00000000 37350996.00000000 8021.41552734   833828.00000000 664875.93750000 
0.12100    22978592.00000000 14739661.00000000 36800324.00000000 7854.65234375   817713.00000000 652063.81250000 
0.12200    22644216.00000000 14531221.00000000 36271932.00000000 7695.91601562   802275.68750000 639786.56250000 
0.12300    22323496.00000000 14331227.00000000 35765332.00000000 7544.75830078   787491.62500000 628023.12500000 
0.12400    22015944.00000000 14139482.00000000 35279376.00000000 7400.74316406   773328.00000000 616750.18750000 
0.12500    21720730.00000000 13955346.00000000 34813340.00000000 7263.45751953   759748.56250000 605942.50000000 
0.12600    21437746.00000000 13778705.00000000 34365712.00000000 7132.59814453   746732.43750000 595576.25000000 
0.12700    21165936.00000000 13608957.00000000 33935964.00000000 7007.59277344   734237.75000000 585618.12500000 
0.12800    20904626.00000000 13445854.00000000 33522932.00000000 6888.16552734   722237.31250000 576050.93750000 
0.12900    20653554.00000000 13289042.00000000 33125786.00000000 6773.91699219   710699.12500000 566849.12500000 
0.13000    20412038.00000000 13138094.00000000 32744030.00000000 6664.44384766   699596.12500000 557991.37500000 
0.13100    20179378.00000000 12992626.00000000 32375900.00000000 6559.38330078   688896.50000000 549449.93750000 
0.13200    19955140.00000000 12852452.00000000 32021082.00000000 6458.41503906   678571.93750000 541208.43750000 
0.13300    19738810.00000000 12717022.00000000 31678636.00000000 6361.23583984   668607.31250000 533242.25000000 
0.13400    19529824.00000000 12586155.00000000 31347926.00000000 6267.48046875   658957.37500000 525533.81250000 
0.13500    19327556.00000000 12459564.00000000 31027688.00000000 6176.87304688   649615.62500000 518060.65625000 
0.13600    19131656.00000000 12336692.00000000 30717166.00000000 6089.06250000   640537.81250000 510802.59375000 
0.13700    18941402.00000000 12217500.00000000 30416008.00000000 6003.85498047   631718.87500000 503742.50000000 
0.13800    18756646.00000000 12101460.00000000 30123116.00000000 5920.90234375   623121.25000000 496859.78125000 
0.13900    18576642.00000000 11988504.00000000 29837814.00000000 5840.03515625   614733.37500000 490146.62500000 
0.14000    18401124.00000000 11878286.00000000 29559502.00000000 5760.95214844   606530.81250000 483574.53125000 
0.14100    18229460.00000000 11770429.00000000 29287384.00000000 5683.46679688   598494.62500000 477133.68750000 
0.14200    18061394.00000000 11664790.00000000 29020604.00000000 5607.32910156   590603.06250000 470811.00000000 
0.14300    17896502.00000000 11561026.00000000 28758946.00000000 5532.36767578   582843.62500000 464587.65625000 
0.14400    17734412.00000000 11458925.00000000 28501426.00000000 5458.38769531   575191.87500000 458451.71875000 
0.14500    17574658.00000000 11358360.00000000 28248098.00000000 5385.23193359   567643.56250000 452393.43750000 
0.14600    17417158.00000000 11258994.00000000 27997480.00000000 5312.77246094   560169.75000000 446400.31250000 
0.14700    17261232.00000000 11160580.00000000 27749868.00000000 5240.77636719   552763.87500000 440463.21875000 
0.14800    17106750.00000000 11063109.00000000 27504310.00000000 5169.16552734   545416.25000000 434560.65625000 
0.14900    16953426.00000000 10966268.00000000 27260466.00000000 5097.82177734   538104.37500000 428696.12500000 
0.15000    16800860.00000000 10869920.00000000 27017994.00000000 5026.63281250   530823.18750000 422856.37500000 
0.15100    16649005.00000000 10773844.00000000 26776172.00000000 4955.47070312   523567.68750000 417029.25000000 
0.15200    16497402.00000000 10678037.00000000 26535080.00000000 4884.32714844   516323.15625000 411216.50000000 
0.15300    16345922.00000000 10582138.00000000 26294070.00000000 4813.03808594   509081.15625000 405402.96875000 
0.15400    16194366.00000000 10486142.00000000 26052648.00000000 4741.64453125   501834.25000000 399583.93750000 
0.15500    16042537.00000000 10389898.00000000 25810916.00000000 4669.97265625   494573.37500000 393758.62500000 
0.15600    15890222.00000000 10293292.00000000 25568160.00000000 4598.03173828   487295.62500000 387917.50000000 
0.15700    15737233.00000000 10196335.00000000 25324552.00000000 4525.82910156   479998.62500000 382063.90625000 
0.15800    15583526.00000000 10098726.00000000 25079472.00000000 4453.26953125   472671.12500000 376182.59375000 
0.15900    15428905.00000000 10000620.00000000 24833056.00000000 4380.40332031   465315.84375000 370280.93750000 
0.16000    15273189.00000000 9901775.00000000 24584828.00000000 4307.17480469   457928.18750000 364352.90625000 
0.16100    15116490.00000000 9802205.00000000 24335088.00000000 4233.64257812   450508.68750000 358398.84375000 
0.16200    14958521.00000000 9701847.00000000 24083216.00000000 4159.72558594   443047.03125000 352415.75000000 
0.16300    14799338.00000000 9600546.00000000 23829080.00000000 4085.51074219   435551.15625000 346401.65625000 
0.16400    14638839.00000000 9498498.00000000 23573040.00000000 4011.02392578   428019.31250000 340360.87500000 
0.16500    14476905.00000000 9395441.00000000 23314612.00000000 3936.24926758   420450.90625000 334290.40625000 
0.16600    14313606.00000000 9291505.00000000 23053964.00000000 3861.24731445   412848.00000000 328193.53125000 
0.16700    14148900.00000000 9186613.00000000 22791068.00000000 3786.03002930   405209.65625000 322067.56250000 
0.16800    13982681.00000000 9080761.00000000 22525792.00000000 3710.65893555   397535.06250000 315916.46875000 
0.16900    13815117.00000000 8973995.00000000 22258260.00000000 3635.20507812   389840.21875000 309742.40625000 
0.17000    13646152.00000000 8866284.00000000 21988350.00000000 3559.65576172   382112.09375000 303548.93750000 
