# SAXS profile: number of points = 501, q_min = 0, q_max = 0.5, delta_q = 0.001
#    q    intensity 
0.00000    162237472.00000000 101201952.00000000 256271488.00000000 106756.16406250 8323466.00000000 6573852.50000000 
0.00100    162205440.00000000 101181672.00000000 256219952.00000000 106727.84375000 8321488.00000000 6572318.50000000 
0.00200    162109648.00000000 101121544.00000000 256068208.00000000 106642.21093750 8315663.50000000 6567705.50000000 
0.00300    161947840.00000000 101021696.00000000 255812464.00000000 106501.00781250 8305926.50000000 6560082.50000000 
0.00400    161720640.00000000 100882544.00000000 255455680.00000000 106302.89062500 8292286.50000000 6549432.00000000 
0.00500    161428016.00000000 100703176.00000000 254997120.00000000 106048.87500000 8274826.50000000 6535725.50000000 
0.00600    161070976.00000000 100484232.00000000 254438112.00000000 105738.66406250 8253474.00000000 6518987.50000000 
0.00700    160649648.00000000 100225600.00000000 253777728.00000000 105374.09375000 8228372.50000000 6499328.00000000 
0.00800    160164192.00000000 99929064.00000000 253021920.00000000 104955.07812500 8199560.00000000 6476642.50000000 
0.00900    159614656.00000000 99594040.00000000 252166304.00000000 104481.74218750 8166944.50000000 6451118.50000000 
0.01000    159005456.00000000 99221512.00000000 251213504.00000000 103956.25781250 8130659.50000000 6422648.50000000 
0.01100    158337792.00000000 98811752.00000000 250164496.00000000 103377.32031250 8090796.00000000 6391375.50000000 
0.01200    157610400.00000000 98364872.00000000 249023488.00000000 102748.06250000 8047336.00000000 6357343.50000000 
0.01300    156822064.00000000 97881824.00000000 247788800.00000000 102068.67968750 8000423.50000000 6320516.50000000 
0.01400    155975056.00000000 97362192.00000000 246463216.00000000 101340.32031250 7950064.50000000 6281028.50000000 
0.01500    155069312.00000000 96807872.00000000 245046976.00000000 100563.90625000 7896344.00000000 6238893.50000000 
0.01600    154110480.00000000 96219176.00000000 243543360.00000000 99740.60937500  7839392.00000000 6194191.00000000 
0.01700    153096528.00000000 95596672.00000000 241955520.00000000 98872.37500000  7779195.50000000 6146985.00000000 
0.01800    152028736.00000000 94942784.00000000 240282624.00000000 97960.14062500  7715957.50000000 6097357.50000000 
0.01900    150908432.00000000 94256424.00000000 238530304.00000000 97005.75781250  7649681.50000000 6045356.50000000 
0.02000    149738864.00000000 93538416.00000000 236696736.00000000 96010.66406250  7580483.50000000 5991083.50000000 
0.02100    148520448.00000000 92790832.00000000 234787904.00000000 94975.43750000  7508445.50000000 5934582.00000000 
0.02200    147254704.00000000 92013392.00000000 232803392.00000000 93903.32031250  7433733.50000000 5875949.00000000 
0.02300    145942720.00000000 91208288.00000000 230747856.00000000 92794.41406250  7356392.00000000 5815244.00000000 
0.02400    144585776.00000000 90376640.00000000 228622096.00000000 91652.08593750  7276544.00000000 5752588.50000000 
0.02500    143187472.00000000 89517512.00000000 226430960.00000000 90476.58593750  7194326.50000000 5688056.00000000 
0.02600    141748224.00000000 88634128.00000000 224174816.00000000 89270.79687500  7109795.00000000 5621708.00000000 
0.02700    140270112.00000000 87726064.00000000 221858240.00000000 88035.46093750  7023150.50000000 5553669.00000000 
0.02800    138754032.00000000 86795120.00000000 219482448.00000000 86772.74218750  6934431.50000000 5483997.00000000 
0.02900    137203472.00000000 85842584.00000000 217051024.00000000 85485.57812500  6843780.00000000 5412856.00000000 
0.03000    135619344.00000000 84869136.00000000 214567488.00000000 84174.78125000  6751335.00000000 5340249.50000000 
0.03100    134003712.00000000 83876152.00000000 212033776.00000000 82842.69531250  6657173.00000000 5266332.50000000 
0.03200    132358632.00000000 82864664.00000000 209453968.00000000 81490.45312500  6561530.00000000 5191180.00000000 
0.03300    130685928.00000000 81836384.00000000 206830192.00000000 80121.20312500  6464397.50000000 5114896.50000000 
0.03400    128986440.00000000 80791336.00000000 204166192.00000000 78736.25000000  6365966.50000000 5037538.50000000 
0.03500    127264600.00000000 79731792.00000000 201464720.00000000 77337.07031250  6266338.50000000 4959290.00000000 
0.03600    125520096.00000000 78658952.00000000 198727600.00000000 75925.82812500  6165633.50000000 4880157.00000000 
0.03700    123756224.00000000 77573136.00000000 195959232.00000000 74505.14843750  6064033.00000000 4800288.00000000 
0.03800    121974568.00000000 76475416.00000000 193162864.00000000 73075.43750000  5961597.00000000 4719772.50000000 
0.03900    120176520.00000000 75369360.00000000 190341680.00000000 71640.07812500  5858425.50000000 4638685.00000000 
0.04000    118364584.00000000 74252944.00000000 187497632.00000000 70200.15625000  5754752.00000000 4557168.00000000 
0.04100    116540304.00000000 73129528.00000000 184633744.00000000 68758.10937500  5650592.00000000 4475264.00000000 
0.04200    114706000.00000000 71999032.00000000 181753984.00000000 67314.00781250  5546118.50000000 4393077.50000000 
0.04300    112864088.00000000 70863768.00000000 178861584.00000000 65871.73437500  5441437.50000000 4310764.00000000 
0.04400    111015552.00000000 69724912.00000000 175957808.00000000 64431.69921875  5336610.50000000 4228324.00000000 
0.04500    109162392.00000000 68581136.00000000 173047056.00000000 62995.62890625  5231873.00000000 4145869.25000000 
0.04600    107307160.00000000 67435960.00000000 170130896.00000000 61565.34765625  5127186.50000000 4063542.50000000 
0.04700    105450560.00000000 66290020.00000000 167214880.00000000 60142.86328125  5022811.00000000 3981360.25000000 
0.04800    103595208.00000000 65144544.00000000 164299072.00000000 58728.76953125  4918768.50000000 3899437.00000000 
0.04900    101742496.00000000 64000084.00000000 161386592.00000000 57325.38281250  4815126.50000000 3817876.75000000 
0.05000    99894920.00000000 62858040.00000000 158480944.00000000 55933.42187500  4712057.50000000 3736683.75000000 
0.05100    98052232.00000000 61719524.00000000 155583712.00000000 54555.02734375  4609622.50000000 3655999.25000000 
0.05200    96218192.00000000 60585108.00000000 152698640.00000000 53191.06640625  4507944.50000000 3575911.75000000 
0.05300    94393312.00000000 59456028.00000000 149826608.00000000 51842.36328125  4407092.50000000 3496419.00000000 
0.05400    92578304.00000000 58333384.00000000 146971936.00000000 50510.51562500  4307191.00000000 3417662.75000000 
0.05500    90776552.00000000 57217648.00000000 144136320.00000000 49196.81640625  4208193.00000000 3339679.75000000 
0.05600    88988160.00000000 56110320.00000000 141321392.00000000 47901.96093750  4110353.50000000 3262513.00000000 
0.05700    87215248.00000000 55011524.00000000 138529184.00000000 46627.41015625  4013662.00000000 3186265.00000000 
0.05800    85457840.00000000 53922544.00000000 135761888.00000000 45373.46875000  3918190.25000000 3110946.25000000 
0.05900    83718368.00000000 52843912.00000000 133024376.00000000 44141.50390625  3823997.00000000 3036639.50000000 
0.06000    81998312.00000000 51776560.00000000 130313616.00000000 42931.87500000  3731173.50000000 2963406.25000000 
0.06100    80297608.00000000 50721004.00000000 127634456.00000000 41745.37500000  3639787.75000000 2891254.50000000 
0.06200    78618088.00000000 49678348.00000000 124986768.00000000 40583.00000000  3549844.50000000 2820236.00000000 
0.06300    76961488.00000000 48648588.00000000 122374696.00000000 39444.98828125  3461466.50000000 2750431.75000000 
0.06400    75326640.00000000 47632584.00000000 119797592.00000000 38332.00390625  3374631.00000000 2681844.25000000 
0.06500    73716496.00000000 46631468.00000000 117257704.00000000 37244.33203125  3289411.00000000 2614532.00000000 
0.06600    72131728.00000000 45645092.00000000 114756800.00000000 36182.42578125  3205876.25000000 2548497.50000000 
0.06700    70571696.00000000 44674276.00000000 112295368.00000000 35146.80078125  3124017.25000000 2483770.50000000 
0.06800    69038272.00000000 43719212.00000000 109875584.00000000 34137.30468750  3043880.50000000 2420422.25000000 
0.06900    67532088.00000000 42780520.00000000 107496664.00000000 33154.62109375  2965492.00000000 2358429.00000000 
0.07000    66053532.00000000 41858932.00000000 105161352.00000000 32198.32226562  2888890.75000000 2297789.00000000 
0.07100    64603120.00000000 40953808.00000000 102869792.00000000 31269.21679688  2814070.50000000 2238588.00000000 
0.07200    63181196.00000000 40066212.00000000 100623136.00000000 30366.96875000  2741057.75000000 2180784.25000000 
0.07300    61788008.00000000 39196288.00000000 98421592.00000000 29491.17187500  2669870.00000000 2124408.25000000 
0.07400    60424436.00000000 38344456.00000000 96265096.00000000 28642.05468750  2600492.75000000 2069461.87500000 
0.07500    59090992.00000000 37510212.00000000 94155864.00000000 27819.33203125  2532961.00000000 2015956.00000000 
0.07600    57786780.00000000 36694288.00000000 92093088.00000000 27023.20703125  2467243.50000000 1963860.87500000 
0.07700    56512964.00000000 35897092.00000000 90077096.00000000 26252.91015625  2403376.00000000 1913216.75000000 
0.07800    55269680.00000000 35117912.00000000 88108560.00000000 25508.44531250  2341295.25000000 1863998.50000000 
0.07900    54056268.00000000 34357856.00000000 86187656.00000000 24789.24804688  2281041.25000000 1816184.62500000 
0.08000    52873340.00000000 33615816.00000000 84313856.00000000 24095.19921875  2222590.75000000 1769791.87500000 
0.08100    51720820.00000000 32892460.00000000 82487592.00000000 23425.88085938  2165930.25000000 1724804.25000000 
0.08200    50598560.00000000 32187536.00000000 80708432.00000000 22780.53906250  2110997.25000000 1681194.25000000 
0.08300    49505808.00000000 31501204.00000000 78976872.00000000 22158.96289062  2057813.12500000 1638946.87500000 
0.08400    48443520.00000000 30833376.00000000 77291224.00000000 21560.48632812  2006357.75000000 1598057.37500000 
0.08500    47410868.00000000 30183332.00000000 75652536.00000000 20984.71484375  1956590.50000000 1558490.25000000 
0.08600    46407264.00000000 29551594.00000000 74060952.00000000 20431.04101562  1908483.62500000 1520239.00000000 
0.08700    45433096.00000000 28937882.00000000 72514144.00000000 19898.54882812  1862014.75000000 1483267.87500000 
0.08800    44487684.00000000 28341794.00000000 71012176.00000000 19386.94921875  1817119.00000000 1447547.50000000 
0.08900    43570348.00000000 27763264.00000000 69555376.00000000 18895.63671875  1773803.62500000 1413070.12500000 
0.09000    42681320.00000000 27202030.00000000 68141992.00000000 18423.93164062  1732008.37500000 1379785.87500000 
0.09100    41819416.00000000 26657710.00000000 66772412.00000000 17970.95507812  1691691.87500000 1347683.75000000 
0.09200    40984688.00000000 26130148.00000000 65444872.00000000 17536.35546875  1652830.00000000 1316710.87500000 
0.09300    40176168.00000000 25619004.00000000 64159264.00000000 17119.06835938  1615381.50000000 1286863.37500000 
0.09400    39394092.00000000 25123746.00000000 62914312.00000000 16718.67773438  1579281.00000000 1258084.50000000 
0.09500    38636948.00000000 24644432.00000000 61709012.00000000 16334.23339844  1544519.25000000 1230357.75000000 
0.09600    37904608.00000000 24180580.00000000 60543716.00000000 15965.55273438  1511015.12500000 1203644.37500000 
0.09700    37196636.00000000 23731678.00000000 59415788.00000000 15611.40039062  1478770.62500000 1177905.50000000 
0.09800    36512140.00000000 23297360.00000000 58325372.00000000 15271.29199219  1447699.00000000 1153110.25000000 
0.09900    35850408.00000000 22877328.00000000 57271116.00000000 14944.69433594  1417772.00000000 1129214.25000000 
0.10000    35210908.00000000 22471306.00000000 56251440.00000000 14630.71386719  1388949.25000000 1106202.00000000 
0.10100    34592696.00000000 22078692.00000000 55266336.00000000 14328.55957031  1361177.75000000 1084014.75000000 
0.10200    33995560.00000000 21699168.00000000 54314224.00000000 14037.93652344  1334409.50000000 1062635.12500000 
0.10300    33418530.00000000 21332196.00000000 53393644.00000000 13757.89160156  1308606.75000000 1042019.62500000 
0.10400    32860724.00000000 20977476.00000000 52504068.00000000 13487.98730469  1283717.62500000 1022139.68750000 
0.10500    32321948.00000000 20634842.00000000 51644728.00000000 13227.46679688  1259709.50000000 1002946.18750000 
0.10600    31801152.00000000 20303150.00000000 50813160.00000000 12975.84472656  1236522.37500000 984412.12500000 
0.10700    31297560.00000000 19982540.00000000 50009656.00000000 12732.36425781  1214108.62500000 966503.12500000 
0.10800    30810714.00000000 19672366.00000000 49232356.00000000 12496.62988281  1192450.00000000 949191.18750000 
0.10900    30339694.00000000 19372340.00000000 48480412.00000000 12268.01562500  1171480.62500000 932437.12500000 
0.11000    29883870.00000000 19081872.00000000 47752508.00000000 12046.03222656  1151178.62500000 916201.93750000 
0.11100    29442454.00000000 18800816.00000000 47047956.00000000 11830.10644531  1131479.62500000 900467.18750000 
0.11200    29014882.00000000 18528318.00000000 46365000.00000000 11619.76269531  1112378.37500000 885201.56250000 
0.11300    28600320.00000000 18264272.00000000 45703632.00000000 11414.57226562  1093800.00000000 870357.68750000 
0.11400    28198182.00000000 18008082.00000000 45061524.00000000 11214.09472656  1075738.12500000 855927.68750000 
0.11500    27807848.00000000 17759636.00000000 44438560.00000000 11017.91796875  1058134.00000000 841868.00000000 
0.11600    27428796.00000000 17518180.00000000 43833512.00000000 10825.66992188  1040962.75000000 828161.18750000 
0.11700    27060122.00000000 17283580.00000000 43244920.00000000 10636.89648438  1024193.56250000 814779.75000000 
0.11800    26701104.00000000 17055076.00000000 42672504.00000000 10451.40136719  1007794.00000000 801685.62500000 
0.11900    26351502.00000000 16832788.00000000 42114980.00000000 10268.70605469  991732.06250000 788868.43750000 
0.12000    26010488.00000000 16616182.00000000 41571096.00000000 10088.48437500  975966.37500000 776302.37500000 
0.12100    25677744.00000000 16404740.00000000 41040736.00000000 9910.73730469   960493.87500000 763965.62500000 
0.12200    25352546.00000000 16198145.00000000 40522364.00000000 9734.86914062   945276.37500000 751836.00000000 
0.12300    25034150.00000000 15996258.00000000 40015056.00000000 9561.08203125   930282.00000000 739893.81250000 
0.12400    24722376.00000000 15798597.00000000 39518668.00000000 9388.76562500   915502.56250000 728117.68750000 
0.12500    24416440.00000000 15604866.00000000 39031872.00000000 9217.79980469   900906.62500000 716497.81250000 
0.12600    24116298.00000000 15414851.00000000 38553712.00000000 9048.29589844   886476.37500000 705020.68750000 
0.12700    23820988.00000000 15228188.00000000 38084452.00000000 8879.94140625   872197.87500000 693652.56250000 
0.12800    23530478.00000000 15044548.00000000 37622372.00000000 8712.48242188   858048.31250000 682398.12500000 
0.12900    23244078.00000000 14863831.00000000 37167452.00000000 8546.09765625   844011.56250000 671243.37500000 
0.13000    22961656.00000000 14685630.00000000 36718500.00000000 8380.52832031   830077.75000000 660176.50000000 
0.13100    22682466.00000000 14509757.00000000 36275656.00000000 8215.76269531   816239.93750000 649176.25000000 
0.13200    22406632.00000000 14336064.00000000 35837840.00000000 8051.78125000   802468.00000000 638240.18750000 
0.13300    22133494.00000000 14164285.00000000 35404444.00000000 7888.52783203   788772.87500000 627365.06250000 
0.13400    21863034.00000000 13994271.00000000 34975548.00000000 7726.01367188   775137.93750000 616537.75000000 
0.13500    21594642.00000000 13825788.00000000 34550316.00000000 7564.23974609   761554.81250000 605752.06250000 
0.13600    21328282.00000000 13658576.00000000 34128188.00000000 7403.17431641   748017.62500000 595011.12500000 
0.13700    21063656.00000000 13492728.00000000 33709196.00000000 7242.91015625   734523.12500000 584300.62500000 
0.13800    20800604.00000000 13327821.00000000 33292398.00000000 7083.47753906   721065.00000000 573621.56250000 
0.13900    20538780.00000000 13163980.00000000 32878180.00000000 6924.93115234   707649.18750000 562976.87500000 
0.14000    20278156.00000000 13000954.00000000 32465726.00000000 6767.25292969   694261.37500000 552354.81250000 
0.14100    20018618.00000000 12838521.00000000 32055184.00000000 6610.68896484   680911.18750000 541764.50000000 
0.14200    19759852.00000000 12676844.00000000 31646008.00000000 6455.11718750   667594.18750000 531198.75000000 
0.14300    19501860.00000000 12515684.00000000 31238192.00000000 6300.82470703   654312.75000000 520659.28125000 
0.14400    19244448.00000000 12354931.00000000 30831482.00000000 6147.67626953   641069.81250000 510149.96875000 
0.14500    18987964.00000000 12194594.00000000 30425610.00000000 5995.98730469   627864.06250000 499673.56250000 
0.14600    18731670.00000000 12034655.00000000 30020634.00000000 5845.70800781   614708.56250000 489235.46875000 
0.14700    18475986.00000000 11875066.00000000 29616574.00000000 5697.01220703   601604.87500000 478832.31250000 
0.14800    18220518.00000000 11715664.00000000 29212992.00000000 5549.98291016   588550.68750000 468470.87500000 
0.14900    17965552.00000000 11556542.00000000 28810164.00000000 5404.67871094   575556.75000000 458149.12500000 
0.15000    17711096.00000000 11397711.00000000 28408030.00000000 5261.24804688   562627.87500000 447881.68750000 
0.15100    17457008.00000000 11239119.00000000 28006320.00000000 5119.81201172   549771.87500000 437669.37500000 
0.15200    17203362.00000000 11080822.00000000 27605504.00000000 4980.50927734   536994.12500000 427515.28125000 
0.15300    16950128.00000000 10922743.00000000 27205124.00000000 4843.31835938   524302.62500000 417426.71875000 
0.15400    16697325.00000000 10764895.00000000 26805792.00000000 4708.45166016   511698.40625000 407406.12500000 
0.15500    16445201.00000000 10607370.00000000 26407116.00000000 4575.96777344   499201.25000000 397464.21875000 
0.15600    16193571.00000000 10450179.00000000 26009154.00000000 4445.92724609   486808.75000000 387598.81250000 
0.15700    15942786.00000000 10293397.00000000 25612496.00000000 4318.50195312   474533.09375000 377828.65625000 
0.15800    15692650.00000000 10136956.00000000 25216660.00000000 4193.65380859   462375.00000000 368148.75000000 
0.15900    15443326.00000000 9980989.00000000 24822272.00000000 4071.58935547   450354.06250000 358570.15625000 
0.16000    15194974.00000000 9825459.00000000 24429128.00000000 3952.28344727   438466.43750000 349096.00000000 
0.16100    14947776.00000000 9670622.00000000 24037672.00000000 3835.86425781   426727.40625000 339733.65625000 
0.16200    14701599.00000000 9516344.00000000 23647754.00000000 3722.38183594   415139.68750000 330489.12500000 
0.16300    14456655.00000000 9362642.00000000 23259664.00000000 3611.85498047   403713.21875000 321366.21875000 
0.16400    14213018.00000000 9209732.00000000 22873626.00000000 3504.38256836   392452.68750000 312374.62500000 
0.16500    13970899.00000000 9057579.00000000 22489470.00000000 3399.92529297   381365.31250000 303515.06250000 
0.16600    13730272.00000000 8906218.00000000 22107840.00000000 3298.62426758   370462.21875000 294796.37500000 
0.16700    13491393.00000000 8755896.00000000 21728730.00000000 3200.38940430   359739.65625000 286221.03125000 
0.16800    13254169.00000000 8606487.00000000 21352208.00000000 3105.33203125   349209.53125000 277792.09375000 
0.16900    13018951.00000000 8458192.00000000 20978510.00000000 3013.45312500   338882.75000000 269518.93750000 
0.17000    12785690.00000000 8311034.50000000 20607742.00000000 2924.69604492   328754.18750000 261402.57812500 
