# SAXS profile: number of points = 501, q_min = 0, q_max = 0.5, delta_q = 0.001
#    q    intensity 
0.00000    162238032.00000000 101201896.00000000 256271392.00000000 95796.08593750  7884640.00000000 6227247.00000000 
0.00100    162212544.00000000 101185728.00000000 256230624.00000000 95776.12500000  7883163.50000000 6226122.50000000 
0.00200    162135200.00000000 101136664.00000000 256106288.00000000 95717.04687500  7878810.00000000 6222696.50000000 
0.00300    162003792.00000000 101055360.00000000 255900496.00000000 95618.86718750  7871574.50000000 6216953.50000000 
0.00400    161820240.00000000 100941480.00000000 255610624.00000000 95481.47656250  7861393.00000000 6208963.50000000 
0.00500    161584848.00000000 100795632.00000000 255240816.00000000 95304.64843750  7848340.50000000 6198736.50000000 
0.00600    161297200.00000000 100617568.00000000 254788128.00000000 95090.07031250  7832461.50000000 6186204.00000000 
0.00700    160956352.00000000 100407328.00000000 254252880.00000000 94836.21093750  7813707.50000000 6171426.50000000 
0.00800    160566672.00000000 100165584.00000000 253638032.00000000 94544.56250000  7792121.00000000 6154456.50000000 
0.00900    160123040.00000000 99892408.00000000 252943328.00000000 94214.84375000  7767754.00000000 6135283.50000000 
0.01000    159630112.00000000 99587664.00000000 252169264.00000000 93847.89062500  7740591.00000000 6113879.50000000 
0.01100    159087648.00000000 99252624.00000000 251316912.00000000 93444.03906250  7710674.50000000 6090331.00000000 
0.01200    158497008.00000000 98886392.00000000 250386336.00000000 93002.87500000  7678051.50000000 6064669.00000000 
0.01300    157857488.00000000 98491176.00000000 249379360.00000000 92526.58593750  7642760.00000000 6036863.00000000 
0.01400    157169856.00000000 98065240.00000000 248295840.00000000 92014.25000000  7604785.50000000 6006989.00000000 
0.01500    156434432.00000000 97610080.00000000 247138880.00000000 91467.39843750  7564255.50000000 5975108.50000000 
0.01600    155651280.00000000 97125968.00000000 245907568.00000000 90886.42968750  7521148.00000000 5941173.50000000 
0.01700    154823104.00000000 96613312.00000000 244605312.00000000 90271.67968750  7475548.00000000 5905272.50000000 
0.01800    153949760.00000000 96072424.00000000 243231472.00000000 89623.96875000  7427500.00000000 5867447.00000000 
0.01900    153032208.00000000 95505080.00000000 241787984.00000000 88944.53906250  7377017.00000000 5827710.00000000 
0.02000    152071232.00000000 94910848.00000000 240276320.00000000 88234.04687500  7324163.00000000 5786126.00000000 
0.02100    151069200.00000000 94290264.00000000 238698864.00000000 87492.82812500  7269045.50000000 5742745.00000000 
0.02200    150024112.00000000 93644016.00000000 237055648.00000000 86721.67187500  7211697.50000000 5697577.00000000 
0.02300    148938752.00000000 92972512.00000000 235349392.00000000 85922.08593750  7152173.50000000 5650715.50000000 
0.02400    147816064.00000000 92277432.00000000 233581280.00000000 85094.81250000  7090507.00000000 5602173.00000000 
0.02500    146654832.00000000 91558592.00000000 231753840.00000000 84240.50781250  7026813.00000000 5552047.00000000 
0.02600    145455360.00000000 90816552.00000000 229867232.00000000 83360.11718750  6961118.00000000 5500325.00000000 
0.02700    144220272.00000000 90052544.00000000 227924528.00000000 82455.32031250  6893544.00000000 5447105.50000000 
0.02800    142951024.00000000 89267032.00000000 225927808.00000000 81526.57031250  6824087.50000000 5392447.00000000 
0.02900    141649376.00000000 88461224.00000000 223878464.00000000 80574.62500000  6752866.50000000 5336382.50000000 
0.03000    140314624.00000000 87635144.00000000 221777600.00000000 79600.61718750  6679951.00000000 5278962.00000000 
0.03100    138948624.00000000 86789336.00000000 219629072.00000000 78606.22656250  6605425.00000000 5220275.00000000 
0.03200    137553264.00000000 85925896.00000000 217432800.00000000 77591.87500000  6529306.50000000 5160374.50000000 
0.03300    136129024.00000000 85044576.00000000 215193040.00000000 76559.12500000  6451724.00000000 5099255.00000000 
0.03400    134678944.00000000 84146616.00000000 212909280.00000000 75508.66406250  6372747.00000000 5037091.50000000 
0.03500    133202968.00000000 83232632.00000000 210587104.00000000 74441.64843750  6292485.50000000 4973865.50000000 
0.03600    131702264.00000000 82303880.00000000 208225744.00000000 73359.42187500  6210921.00000000 4909650.50000000 
0.03700    130178904.00000000 81360968.00000000 205827936.00000000 72262.90625000  6128233.00000000 4844533.00000000 
0.03800    128633832.00000000 80404304.00000000 203396784.00000000 71153.39843750  6044432.00000000 4778556.00000000 
0.03900    127068536.00000000 79434872.00000000 200933296.00000000 70032.12500000  5959661.50000000 4711809.50000000 
0.04000    125484016.00000000 78454096.00000000 198440320.00000000 68899.47656250  5873914.50000000 4644274.00000000 
0.04100    123883064.00000000 77462216.00000000 195919616.00000000 67757.53906250  5787356.50000000 4576080.50000000 
0.04200    122265704.00000000 76460664.00000000 193374336.00000000 66607.08593750  5700029.00000000 4507287.00000000 
0.04300    120633288.00000000 75449832.00000000 190805600.00000000 65448.86718750  5611991.00000000 4437989.00000000 
0.04400    118987584.00000000 74430376.00000000 188214304.00000000 64284.51953125  5523346.50000000 4368141.50000000 
0.04500    117329936.00000000 73403672.00000000 185605424.00000000 63114.68750000  5434197.00000000 4297913.50000000 
0.04600    115662080.00000000 72371120.00000000 182980192.00000000 61940.56250000  5344552.50000000 4227310.50000000 
0.04700    113985448.00000000 71332320.00000000 180341008.00000000 60763.60156250  5254588.50000000 4156420.75000000 
0.04800    112299936.00000000 70289024.00000000 177688752.00000000 59584.51562500  5164273.00000000 4085295.00000000 
0.04900    110608936.00000000 69241080.00000000 175026448.00000000 58404.35546875  5073776.50000000 4013982.00000000 
0.05000    108912064.00000000 68190392.00000000 172355040.00000000 57224.34765625  4983114.50000000 3942563.25000000 
0.05100    107211760.00000000 67136768.00000000 169678960.00000000 56045.16406250  4892359.00000000 3871064.00000000 
0.05200    105508368.00000000 66081624.00000000 166998112.00000000 54868.07421875  4801606.00000000 3799561.75000000 
0.05300    103804984.00000000 65025464.00000000 164314784.00000000 53693.94140625  4710936.00000000 3728120.25000000 
0.05400    102100728.00000000 63969460.00000000 161631600.00000000 52523.76171875  4620418.50000000 3656784.50000000 
0.05500    100397976.00000000 62914024.00000000 158949024.00000000 51358.65234375  4530079.00000000 3585600.00000000 
0.05600    98697376.00000000 61860120.00000000 156272512.00000000 50199.16015625  4440047.50000000 3514632.75000000 
0.05700    97000408.00000000 60808640.00000000 153600736.00000000 49046.54687500  4350366.00000000 3443940.25000000 
0.05800    95308648.00000000 59759928.00000000 150936944.00000000 47901.18359375  4261041.50000000 3373549.25000000 
0.05900    93622568.00000000 58714668.00000000 148281808.00000000 46764.12890625  4172225.50000000 3303521.75000000 
0.06000    91943928.00000000 57673756.00000000 145638208.00000000 45636.30859375  4083911.75000000 3233916.75000000 
0.06100    90273112.00000000 56637728.00000000 143007168.00000000 44518.46875000  3996205.75000000 3164774.50000000 
0.06200    88611760.00000000 55607764.00000000 140390256.00000000 43411.41796875  3909119.50000000 3096102.50000000 
0.06300    86960416.00000000 54583768.00000000 137789152.00000000 42315.49609375  3822749.00000000 3028034.50000000 
0.06400    85320376.00000000 53566572.00000000 135205744.00000000 41231.80078125  3737125.25000000 2960506.50000000 
0.06500    83693056.00000000 52557056.00000000 132642408.00000000 40160.73437500  3652308.00000000 2893622.25000000 
0.06600    82078312.00000000 51555492.00000000 130098480.00000000 39102.82421875  3568338.25000000 2827400.50000000 
0.06700    80477592.00000000 50562280.00000000 127576432.00000000 38058.96875000  3485272.25000000 2761900.25000000 
0.06800    78891704.00000000 49578760.00000000 125078408.00000000 37029.47656250  3403156.75000000 2697116.50000000 
0.06900    77321488.00000000 48604556.00000000 122604960.00000000 36015.27734375  3322012.25000000 2633104.25000000 
0.07000    75767656.00000000 47640220.00000000 120156712.00000000 35015.98046875  3241892.25000000 2569904.25000000 
0.07100    74231088.00000000 46686904.00000000 117735984.00000000 34033.29296875  3162819.75000000 2507543.50000000 
0.07200    72712632.00000000 45744280.00000000 115342736.00000000 33066.44531250  3084866.00000000 2446014.00000000 
0.07300    71212456.00000000 44813220.00000000 112979224.00000000 32116.58007812  3008044.25000000 2385395.25000000 
0.07400    69731872.00000000 43893996.00000000 110645888.00000000 31183.60156250  2932381.75000000 2325691.00000000 
0.07500    68270872.00000000 42987000.00000000 108342768.00000000 30268.23242188  2857911.00000000 2266918.00000000 
0.07600    66830312.00000000 42092528.00000000 106072952.00000000 29370.48046875  2784655.00000000 2209086.00000000 
0.07700    65411152.00000000 41211172.00000000 103835520.00000000 28490.70703125  2712651.50000000 2152248.25000000 
0.07800    64012632.00000000 40342624.00000000 101631776.00000000 27629.22656250  2641910.75000000 2096400.87500000 
0.07900    62636368.00000000 39487520.00000000 99461784.00000000 26786.09765625  2572438.50000000 2041561.50000000 
0.08000    61282332.00000000 38646452.00000000 97327032.00000000 25961.51171875  2504281.25000000 1987742.50000000 
0.08100    59950940.00000000 37819208.00000000 95228592.00000000 25155.60937500  2437446.00000000 1934957.87500000 
0.08200    58642760.00000000 37006080.00000000 93164840.00000000 24368.65039062  2371915.00000000 1883211.37500000 
0.08300    57357544.00000000 36207268.00000000 91138336.00000000 23600.49218750  2307770.50000000 1832539.50000000 
0.08400    56095956.00000000 35423268.00000000 89149160.00000000 22851.24414062  2244953.50000000 1782910.75000000 
0.08500    54858060.00000000 34653488.00000000 87196704.00000000 22121.02148438  2183515.50000000 1734361.62500000 
0.08600    53643988.00000000 33898712.00000000 85281992.00000000 21409.70507812  2123429.25000000 1686877.62500000 
0.08700    52454492.00000000 33158760.00000000 83404952.00000000 20717.39453125  2064720.75000000 1640476.37500000 
0.08800    51288868.00000000 32433606.00000000 81566672.00000000 20043.88867188  2007383.25000000 1595149.25000000 
0.08900    50147364.00000000 31723598.00000000 79766232.00000000 19389.15234375  1951408.50000000 1550899.37500000 
0.09000    49030796.00000000 31028592.00000000 78004136.00000000 18753.12304688  1896803.75000000 1507724.00000000 
0.09100    47938172.00000000 30348656.00000000 76279856.00000000 18135.53515625  1843560.75000000 1465619.75000000 
0.09200    46870052.00000000 29683680.00000000 74594328.00000000 17536.59765625  1791667.62500000 1424586.37500000 
0.09300    45826356.00000000 29033860.00000000 72947464.00000000 16955.62304688  1741155.00000000 1384615.87500000 
0.09400    44807120.00000000 28398954.00000000 71337872.00000000 16392.77343750  1691963.50000000 1345700.50000000 
0.09500    43811532.00000000 27778968.00000000 69766528.00000000 15847.81542969  1644109.37500000 1307828.62500000 
0.09600    42839992.00000000 27173868.00000000 68232960.00000000 15320.28027344  1597575.00000000 1270989.12500000 
0.09700    41892892.00000000 26583492.00000000 66736916.00000000 14810.23242188  1552348.37500000 1235191.37500000 
0.09800    40969300.00000000 26007886.00000000 65278820.00000000 14317.13671875  1508414.25000000 1200412.12500000 
0.09900    40069084.00000000 25446750.00000000 63856984.00000000 13841.00097656  1465768.12500000 1166630.12500000 
0.10000    39192288.00000000 24899918.00000000 62472340.00000000 13381.15136719  1424370.87500000 1133840.12500000 
0.10100    38338464.00000000 24367478.00000000 61123488.00000000 12937.75585938  1384214.62500000 1102023.87500000 
0.10200    37507496.00000000 23849048.00000000 59810840.00000000 12510.08886719  1345285.37500000 1071179.25000000 
0.10300    36698860.00000000 23344548.00000000 58532908.00000000 12097.90234375  1307559.87500000 1041273.62500000 
0.10400    35912580.00000000 22853592.00000000 57290156.00000000 11701.02929688  1271013.62500000 1012300.50000000 
0.10500    35148252.00000000 22376224.00000000 56081752.00000000 11319.07910156  1235634.87500000 984241.18750000 
0.10600    34405060.00000000 21912164.00000000 54907300.00000000 10951.58496094  1201385.87500000 957077.50000000 
0.10700    33683436.00000000 21461286.00000000 53765944.00000000 10598.02929688  1168260.12500000 930790.56250000 
0.10800    32982092.00000000 21022918.00000000 52657280.00000000 10258.48632812  1136209.50000000 905362.62500000 
0.10900    32301394.00000000 20597236.00000000 51580452.00000000 9932.29492188   1105233.12500000 880766.37500000 
0.11000    31640524.00000000 20184208.00000000 50535144.00000000 9619.06835938   1075297.00000000 856995.50000000 
0.11100    30999232.00000000 19782974.00000000 49520568.00000000 9318.53320312   1046376.06250000 834021.75000000 
0.11200    30377022.00000000 19393466.00000000 48536084.00000000 9030.22265625   1018437.81250000 811827.62500000 
0.11300    29773360.00000000 19015754.00000000 47580864.00000000 8753.72070312   991466.87500000 790389.81250000 
0.11400    29188140.00000000 18649210.00000000 46654428.00000000 8488.83789062   965432.37500000 769691.56250000 
0.11500    28620564.00000000 18293742.00000000 45755916.00000000 8234.97851562   940303.37500000 749708.81250000 
0.11600    28070198.00000000 17948976.00000000 44884524.00000000 7991.84130859   916057.43750000 730419.31250000 
0.11700    27536832.00000000 17614558.00000000 44039472.00000000 7759.03710938   892664.87500000 711808.62500000 
0.11800    27019818.00000000 17290212.00000000 43220436.00000000 7536.11914062   870097.75000000 693843.31250000 
0.11900    26518640.00000000 16975804.00000000 42426560.00000000 7322.77978516   848331.25000000 676510.18750000 
0.12000    26032924.00000000 16670902.00000000 41656628.00000000 7118.62158203   827339.37500000 659784.37500000 
0.12100    25562290.00000000 16375317.00000000 40910464.00000000 6923.35058594   807092.75000000 643653.18750000 
0.12200    25106036.00000000 16088600.00000000 40186868.00000000 6736.51367188   787571.31250000 628088.00000000 
0.12300    24663706.00000000 15810612.00000000 39485388.00000000 6557.73144531   768734.06250000 613068.12500000 
0.12400    24234802.00000000 15541029.00000000 38804956.00000000 6386.70605469   750574.00000000 598578.75000000 
0.12500    23819052.00000000 15279406.00000000 38145488.00000000 6223.13476562   733050.00000000 584589.50000000 
0.12600    23415884.00000000 15025746.00000000 37505528.00000000 6066.56591797   716141.12500000 571091.93750000 
0.12700    23024856.00000000 14779430.00000000 36884704.00000000 5916.72607422   699823.56250000 558059.62500000 
0.12800    22645480.00000000 14540456.00000000 36282428.00000000 5773.31103516   684068.25000000 545474.43750000 
0.12900    22277264.00000000 14308282.00000000 35697476.00000000 5635.99023438   668858.56250000 533312.75000000 
0.13000    21919722.00000000 14082871.00000000 35129756.00000000 5504.44042969   654167.43750000 521564.25000000 
0.13100    21572418.00000000 13863750.00000000 34577764.00000000 5378.34326172   639966.25000000 510205.31250000 
0.13200    21235152.00000000 13650791.00000000 34041636.00000000 5257.45068359   626237.56250000 499217.62500000 
0.13300    20907234.00000000 13443723.00000000 33520390.00000000 5141.49316406   612961.31250000 488589.31250000 
0.13400    20588396.00000000 13242149.00000000 33013056.00000000 5030.19531250   600110.37500000 478297.03125000 
0.13500    20277982.00000000 13046004.00000000 32519550.00000000 4923.22216797   587669.62500000 468327.21875000 
0.13600    19976038.00000000 12854842.00000000 32038924.00000000 4820.45068359   575610.00000000 458665.31250000 
0.13700    19681550.00000000 12668569.00000000 31570494.00000000 4721.50927734   563922.75000000 449291.21875000 
0.13800    19394750.00000000 12486849.00000000 31113738.00000000 4626.22119141   552578.68750000 440192.18750000 
0.13900    19114900.00000000 12309535.00000000 30667970.00000000 4534.38427734   541561.00000000 431357.12500000 
0.14000    18841756.00000000 12136370.00000000 30233004.00000000 4445.80566406   530862.43750000 422769.90625000 
0.14100    18574844.00000000 11967105.00000000 29807862.00000000 4360.22070312   520455.78125000 414413.93750000 
0.14200    18314032.00000000 11801647.00000000 29392098.00000000 4277.48535156   510326.65625000 406278.78125000 
0.14300    18058908.00000000 11639645.00000000 28985562.00000000 4197.36523438   500460.53125000 398353.78125000 
0.14400    17809124.00000000 11480931.00000000 28587034.00000000 4119.73583984   490839.68750000 390626.18750000 
0.14500    17564434.00000000 11325401.00000000 28196742.00000000 4044.44873047   481456.18750000 383084.53125000 
0.14600    17324402.00000000 11172767.00000000 27813922.00000000 3971.32348633   472288.18750000 375716.62500000 
0.14700    17088932.00000000 11023022.00000000 27438288.00000000 3900.23022461   463333.00000000 368516.46875000 
0.14800    16857684.00000000 10875796.00000000 27069040.00000000 3830.99316406   454568.84375000 361465.12500000 
0.14900    16630271.00000000 10731033.00000000 26706176.00000000 3763.51879883   445984.34375000 354565.12500000 
0.15000    16406687.00000000 10588567.00000000 26349094.00000000 3697.67309570   437575.43750000 347800.46875000 
0.15100    16186488.00000000 10448239.00000000 25997452.00000000 3633.35278320   429328.90625000 341165.28125000 
0.15200    15969646.00000000 10310003.00000000 25651208.00000000 3570.51879883   421237.21875000 334655.00000000 
0.15300    15755860.00000000 10173632.00000000 25309450.00000000 3508.97753906   413290.00000000 328259.46875000 
0.15400    15544813.00000000 10039016.00000000 24972470.00000000 3448.66259766   405470.09375000 321968.18750000 
0.15500    15336614.00000000 9906096.00000000 24639572.00000000 3389.57348633   397784.96875000 315783.00000000 
0.15600    15130753.00000000 9774671.00000000 24310704.00000000 3331.53149414   390217.15625000 309693.28125000 
0.15700    14927458.00000000 9644825.00000000 23985586.00000000 3274.55834961   382764.84375000 303696.21875000 
0.15800    14726119.00000000 9516234.00000000 23663636.00000000 3218.53881836   375417.50000000 297782.96875000 
0.15900    14527006.00000000 9388893.00000000 23345144.00000000 3163.45996094   368175.06250000 291954.84375000 
0.16000    14329681.00000000 9262801.00000000 23029716.00000000 3109.24975586   361028.18750000 286202.40625000 
0.16100    14134332.00000000 9137868.00000000 22717128.00000000 3055.88549805   353976.90625000 280527.25000000 
0.16200    13940635.00000000 9013969.00000000 22407272.00000000 3003.31713867   347010.96875000 274925.46875000 
0.16300    13748572.00000000 8891043.00000000 22099874.00000000 2951.52172852   340131.09375000 269388.78125000 
0.16400    13557955.00000000 8769099.00000000 21794892.00000000 2900.47119141   333336.59375000 263922.34375000 
0.16500    13368953.00000000 8648048.00000000 21492352.00000000 2850.13842773   326617.34375000 258516.53125000 
0.16600    13181216.00000000 8527876.00000000 21191904.00000000 2800.50292969   319979.78125000 253178.17187500 
0.16700    12994819.00000000 8408401.00000000 20893384.00000000 2751.54199219   313411.00000000 247895.32812500 
0.16800    12809648.00000000 8289775.50000000 20596884.00000000 2703.26245117   306916.56250000 242673.60937500 
0.16900    12625781.00000000 8171983.00000000 20302478.00000000 2655.66088867   300500.50000000 237510.95312500 
0.17000    12443012.00000000 8054882.50000000 20009914.00000000 2608.70947266   294150.15625000 232407.87500000 
