# SAXS profile: number of points = 501, q_min = 0, q_max = 0.5, delta_q = 0.001
#    q    intensity 
0.00000    162230064.00000000 101202280.00000000 256269776.00000000 105880.89843750 8289276.00000000 6546859.50000000 
0.00100    162199424.00000000 101180240.00000000 256213280.00000000 105846.34375000 8286996.50000000 6545044.00000000 
0.00200    162097744.00000000 101113312.00000000 256044032.00000000 105743.46093750 8280006.50000000 6539612.00000000 
0.00300    161920704.00000000 101001648.00000000 255758288.00000000 105571.65625000 8268492.00000000 6530569.00000000 
0.00400    161663568.00000000 100846368.00000000 255361344.00000000 105331.57812500 8252417.00000000 6517987.00000000 
0.00500    161334000.00000000 100645504.00000000 254851456.00000000 105023.62500000 8231766.00000000 6501728.00000000 
0.00600    160937120.00000000 100402808.00000000 254231168.00000000 104649.21875000 8206643.50000000 6482040.00000000 
0.00700    160463264.00000000 100117472.00000000 253498768.00000000 104209.22656250 8177025.50000000 6458849.50000000 
0.00800    159924240.00000000 99789272.00000000 252657680.00000000 103703.64062500 8143058.50000000 6432221.00000000 
0.00900    159316656.00000000 99418424.00000000 251709600.00000000 103134.65625000 8104798.00000000 6402189.00000000 
0.01000    158646640.00000000 99006816.00000000 250654640.00000000 102503.51562500 8062228.00000000 6368814.50000000 
0.01100    157905120.00000000 98553056.00000000 249494064.00000000 101811.66406250 8015614.00000000 6332259.50000000 
0.01200    157096096.00000000 98059760.00000000 248232112.00000000 101060.73437500 7964882.50000000 6292475.00000000 
0.01300    156224608.00000000 97527096.00000000 246869936.00000000 100251.46875000 7910240.50000000 6249613.50000000 
0.01400    155292992.00000000 96956784.00000000 245411056.00000000 99387.78125000  7851795.50000000 6203737.50000000 
0.01500    154298464.00000000 96349368.00000000 243856944.00000000 98470.25781250  7789596.50000000 6154947.50000000 
0.01600    153244176.00000000 95704424.00000000 242207152.00000000 97500.99218750  7723863.00000000 6103383.50000000 
0.01700    152133904.00000000 95025024.00000000 240470656.00000000 96482.54687500  7654604.00000000 6049039.00000000 
0.01800    150966784.00000000 94311248.00000000 238645680.00000000 95417.49218750  7582107.50000000 5992120.50000000 
0.01900    149747344.00000000 93564136.00000000 236735264.00000000 94307.44531250  7506388.50000000 5932717.00000000 
0.02000    148474880.00000000 92785728.00000000 234744608.00000000 93154.85937500  7427695.00000000 5870927.50000000 
0.02100    147153584.00000000 91975920.00000000 232675392.00000000 91963.41406250  7346093.00000000 5806887.00000000 
0.02200    145784704.00000000 91137536.00000000 230532208.00000000 90734.32812500  7261749.00000000 5740701.00000000 
0.02300    144370464.00000000 90270024.00000000 228316960.00000000 89471.57812500  7174900.00000000 5672488.00000000 
0.02400    142911984.00000000 89376584.00000000 226032224.00000000 88176.42187500  7085595.50000000 5602402.50000000 
0.02500    141413888.00000000 88456216.00000000 223686416.00000000 86851.24218750  6994125.50000000 5530530.50000000 
0.02600    139876640.00000000 87513016.00000000 221277984.00000000 85500.85156250  6900550.00000000 5456990.50000000 
0.02700    138302672.00000000 86547504.00000000 218812160.00000000 84126.47656250  6805038.50000000 5381968.00000000 
0.02800    136697136.00000000 85560120.00000000 216292400.00000000 82730.53125000  6707822.50000000 5305564.50000000 
0.02900    135056880.00000000 84552768.00000000 213723248.00000000 81315.30468750  6608995.50000000 5227951.00000000 
0.03000    133387032.00000000 83527232.00000000 211105584.00000000 79884.89843750  6508783.00000000 5149174.00000000 
0.03100    131691584.00000000 82484320.00000000 208446592.00000000 78442.08593750  6407354.00000000 5069406.50000000 
0.03200    129972056.00000000 81426768.00000000 205749184.00000000 76987.10156250  6304823.50000000 4988819.00000000 
0.03300    128230384.00000000 80355600.00000000 203014992.00000000 75524.64062500  6201403.00000000 4907508.50000000 
0.03400    126467432.00000000 79270696.00000000 200250064.00000000 74056.87500000  6097196.50000000 4825547.50000000 
0.03500    124687392.00000000 78173904.00000000 197455296.00000000 72585.08593750  5992411.00000000 4743107.00000000 
0.03600    122892784.00000000 77067880.00000000 194636800.00000000 71112.37500000  5887101.00000000 4660288.00000000 
0.03700    121084632.00000000 75952104.00000000 191795488.00000000 69641.17968750  5781598.00000000 4577232.50000000 
0.03800    119265160.00000000 74829496.00000000 188936096.00000000 68173.66406250  5675857.50000000 4494046.50000000 
0.03900    117437400.00000000 73700400.00000000 186064272.00000000 66711.50781250  5570161.50000000 4410781.50000000 
0.04000    115602880.00000000 72568504.00000000 183181840.00000000 65256.33593750  5464513.50000000 4327605.00000000 
0.04100    113764968.00000000 71431600.00000000 180289024.00000000 63810.75781250  5359215.00000000 4244663.00000000 
0.04200    111922648.00000000 70293184.00000000 177394688.00000000 62376.82031250  5254230.00000000 4161973.00000000 
0.04300    110081528.00000000 69153608.00000000 174496960.00000000 60955.72656250  5149773.00000000 4079649.25000000 
0.04400    108240592.00000000 68014888.00000000 171598672.00000000 59549.59375000  5045964.00000000 3997814.75000000 
0.04500    106403800.00000000 66875884.00000000 168708640.00000000 58159.41796875  4942871.50000000 3916520.50000000 
0.04600    104572112.00000000 65740404.00000000 165823520.00000000 56786.45312500  4840554.50000000 3835894.00000000 
0.04700    102746632.00000000 64608312.00000000 162949008.00000000 55432.67578125  4739240.50000000 3755963.50000000 
0.04800    100930416.00000000 63480896.00000000 160086704.00000000 54098.90234375  4638919.00000000 3676834.75000000 
0.04900    99122656.00000000 62359272.00000000 157238864.00000000 52786.35937500  4539693.50000000 3598552.00000000 
0.05000    97328192.00000000 61243456.00000000 154408896.00000000 51495.79296875  4441647.50000000 3521185.75000000 
0.05100    95545744.00000000 60135664.00000000 151598544.00000000 50227.82031250  4344897.50000000 3444805.00000000 
0.05200    93777520.00000000 59036292.00000000 148810832.00000000 48984.13671875  4249515.00000000 3369463.25000000 
0.05300    92024840.00000000 57945700.00000000 146045344.00000000 47764.91406250  4155452.50000000 3295187.25000000 
0.05400    90289544.00000000 56864980.00000000 143305312.00000000 46569.92578125  4062859.00000000 3222055.75000000 
0.05500    88571576.00000000 55795136.00000000 140594512.00000000 45400.51562500  3971795.50000000 3150078.75000000 
0.05600    86873248.00000000 54736004.00000000 137911344.00000000 44257.09765625  3882231.00000000 3079302.25000000 
0.05700    85195536.00000000 53688716.00000000 135259872.00000000 43139.62109375  3794291.75000000 3009749.25000000 
0.05800    83537824.00000000 52654388.00000000 132641696.00000000 42047.94921875  3707945.25000000 2941469.00000000 
0.05900    81901104.00000000 51632512.00000000 130055704.00000000 40982.88281250  3623232.25000000 2874479.25000000 
0.06000    80287264.00000000 50624396.00000000 127505168.00000000 39944.05468750  3540182.50000000 2808778.75000000 
0.06100    78697408.00000000 49630308.00000000 124990224.00000000 38931.46484375  3458816.75000000 2744393.25000000 
0.06200    77131280.00000000 48650520.00000000 122512000.00000000 37944.96093750  3379112.50000000 2681322.75000000 
0.06300    75588752.00000000 47685296.00000000 120071640.00000000 36984.09765625  3301126.00000000 2619591.25000000 
0.06400    74071176.00000000 46735196.00000000 117670824.00000000 36049.05078125  3224830.50000000 2559155.25000000 
0.06500    72579808.00000000 45800560.00000000 115309664.00000000 35139.26171875  3150247.75000000 2500091.75000000 
0.06600    71113688.00000000 44881476.00000000 112987480.00000000 34254.37500000  3077321.50000000 2442356.75000000 
0.06700    69673352.00000000 43978296.00000000 110706944.00000000 33394.07031250  3006123.75000000 2385911.25000000 
0.06800    68259016.00000000 43091220.00000000 108466472.00000000 32557.66406250  2936586.50000000 2330806.00000000 
0.06900    66871384.00000000 42220200.00000000 106267976.00000000 31744.94140625  2868707.75000000 2276997.50000000 
0.07000    65509512.00000000 41365464.00000000 104110480.00000000 30955.30273438  2802423.50000000 2224465.00000000 
0.07100    64175620.00000000 40527548.00000000 101994920.00000000 30188.15234375  2737797.50000000 2173211.75000000 
0.07200    62867516.00000000 39705632.00000000 99921832.00000000 29442.91210938  2674740.50000000 2123218.00000000 
0.07300    61586424.00000000 38900652.00000000 97889704.00000000 28718.97851562  2613287.50000000 2074464.00000000 
0.07400    60331388.00000000 38111652.00000000 95900456.00000000 28015.62109375  2553350.75000000 2026945.00000000 
0.07500    59103492.00000000 37339744.00000000 93952784.00000000 27332.50000000  2494922.25000000 1980590.62500000 
0.07600    57901388.00000000 36583944.00000000 92047368.00000000 26668.83398438  2437982.00000000 1935428.75000000 
0.07700    56726520.00000000 35844660.00000000 90182624.00000000 26023.78515625  2382502.25000000 1891399.50000000 
0.07800    55577164.00000000 35121728.00000000 88358928.00000000 25397.19921875  2328435.75000000 1848498.37500000 
0.07900    54453328.00000000 34414548.00000000 86576160.00000000 24787.89453125  2275745.50000000 1806682.12500000 
0.08000    53355240.00000000 33723716.00000000 84834432.00000000 24195.65234375  2224415.50000000 1765956.00000000 
0.08100    52282576.00000000 33049676.00000000 83132880.00000000 23619.82421875  2174416.50000000 1726256.12500000 
0.08200    51234876.00000000 32390200.00000000 81470520.00000000 23059.56445312  2125689.25000000 1687580.75000000 
0.08300    50212068.00000000 31746618.00000000 79847496.00000000 22514.44531250  2078197.12500000 1649904.62500000 
0.08400    49213500.00000000 31118588.00000000 78263960.00000000 21984.16796875  2031923.00000000 1613182.50000000 
0.08500    48239104.00000000 30505464.00000000 76717936.00000000 21468.04101562  1986844.62500000 1577403.00000000 
0.08600    47288492.00000000 29907370.00000000 75209640.00000000 20965.08398438  1942903.00000000 1542521.75000000 
0.08700    46360716.00000000 29323956.00000000 73738304.00000000 20475.21679688  1900080.00000000 1508547.75000000 
0.08800    45456148.00000000 28754920.00000000 72303592.00000000 19998.13281250  1858336.00000000 1475405.75000000 
0.08900    44574448.00000000 28200488.00000000 70904896.00000000 19532.75195312  1817637.25000000 1443121.87500000 
0.09000    43714328.00000000 27659972.00000000 69540952.00000000 19079.34375000  1777969.12500000 1411634.87500000 
0.09100    42875944.00000000 27133068.00000000 68211328.00000000 18637.22460938  1739294.62500000 1380950.75000000 
0.09200    42058756.00000000 26619940.00000000 66916548.00000000 18205.75390625  1701570.00000000 1351018.00000000 
0.09300    41262396.00000000 26119860.00000000 65654472.00000000 17784.93750000  1664782.12500000 1321830.62500000 
0.09400    40486908.00000000 25632718.00000000 64424856.00000000 17374.02343750  1628895.50000000 1293353.37500000 
0.09500    39730892.00000000 25158466.00000000 63227460.00000000 16973.18554688  1593887.12500000 1265578.87500000 
0.09600    38994580.00000000 24696654.00000000 62060428.00000000 16581.85156250  1559730.62500000 1238481.87500000 
0.09700    38277560.00000000 24246868.00000000 60924740.00000000 16199.60546875  1526397.37500000 1212059.50000000 
0.09800    37578948.00000000 23809222.00000000 59818684.00000000 15826.46582031  1493872.62500000 1186260.75000000 
0.09900    36898488.00000000 23383192.00000000 58741500.00000000 15461.99316406  1462125.12500000 1161092.37500000 
0.10000    36236052.00000000 22968318.00000000 57692612.00000000 15106.00195312  1431147.00000000 1136517.87500000 
0.10100    35590752.00000000 22564428.00000000 56672168.00000000 14758.30761719  1400902.75000000 1112528.12500000 
0.10200    34962376.00000000 22171670.00000000 55677904.00000000 14418.79882812  1371371.00000000 1089130.75000000 
0.10300    34350632.00000000 21789128.00000000 54710040.00000000 14087.18554688  1342547.50000000 1066260.87500000 
0.10400    33754960.00000000 21416978.00000000 53768456.00000000 13763.30957031  1314400.00000000 1043948.93750000 
0.10500    33174714.00000000 21054756.00000000 52851548.00000000 13447.08886719  1286926.00000000 1022162.50000000 
0.10600    32609848.00000000 20702248.00000000 51958868.00000000 13138.13281250  1260082.12500000 1000882.56250000 
0.10700    32060016.00000000 20359208.00000000 51089844.00000000 12836.57128906  1233878.75000000 980111.18750000 
0.10800    31524282.00000000 20025024.00000000 50243588.00000000 12542.29101562  1208284.37500000 959818.68750000 
0.10900    31002620.00000000 19699924.00000000 49420024.00000000 12254.98144531  1183297.12500000 940009.00000000 
0.11000    30494690.00000000 19383688.00000000 48617780.00000000 11974.60449219  1158886.25000000 920657.81250000 
0.11100    29999784.00000000 19075514.00000000 47836656.00000000 11700.89160156  1135048.87500000 901767.68750000 
0.11200    29517772.00000000 18775438.00000000 47076464.00000000 11434.00683594  1111764.75000000 883306.93750000 
0.11300    29048160.00000000 18483320.00000000 46335120.00000000 11173.64355469  1089039.00000000 865280.62500000 
0.11400    28590472.00000000 18198800.00000000 45613124.00000000 10919.75000000  1066830.12500000 847681.31250000 
0.11500    28144302.00000000 17921574.00000000 44909420.00000000 10672.20507812  1045149.18750000 830485.06250000 
0.11600    27709612.00000000 17651650.00000000 44223892.00000000 10430.94824219  1023965.25000000 813689.87500000 
0.11700    27285778.00000000 17388270.00000000 43555684.00000000 10195.63574219  1003285.25000000 797287.00000000 
0.11800    26872048.00000000 17131752.00000000 42903836.00000000 9966.32714844   983072.43750000 781263.75000000 
0.11900    26468766.00000000 16881348.00000000 42267940.00000000 9742.93554688   963332.37500000 765608.25000000 
0.12000    26075152.00000000 16637013.00000000 41647740.00000000 9525.22753906   944047.12500000 750310.12500000 
0.12100    25690998.00000000 16398638.00000000 41042204.00000000 9313.09375000   925220.50000000 735360.87500000 
0.12200    25315936.00000000 16165916.00000000 40450860.00000000 9106.37695312   906814.68750000 720762.12500000 
0.12300    24949598.00000000 15938535.00000000 39873600.00000000 8905.07324219   888831.12500000 706491.68750000 
0.12400    24591492.00000000 15716427.00000000 39309132.00000000 8708.93750000   871255.37500000 692549.25000000 
0.12500    24241294.00000000 15499262.00000000 38757604.00000000 8517.72949219   854071.62500000 678910.75000000 
0.12600    23899088.00000000 15286892.00000000 38218176.00000000 8331.65234375   837290.68750000 665582.31250000 
0.12700    23564048.00000000 15079086.00000000 37690484.00000000 8150.04638672   820876.56250000 652547.43750000 
0.12800    23236302.00000000 14875638.00000000 37173692.00000000 7973.07666016   804817.56250000 639801.18750000 
0.12900    22915072.00000000 14676263.00000000 36667508.00000000 7800.62695312   789117.62500000 627331.75000000 
0.13000    22600254.00000000 14480916.00000000 36171404.00000000 7632.41113281   773752.93750000 615123.87500000 
0.13100    22291642.00000000 14289178.00000000 35684560.00000000 7468.25439453   758713.68750000 603176.12500000 
0.13200    21989070.00000000 14101153.00000000 35207288.00000000 7308.16162109   743994.56250000 591487.56250000 
0.13300    21691926.00000000 13916617.00000000 34738880.00000000 7151.90771484   729580.75000000 580031.31250000 
0.13400    21399934.00000000 13735066.00000000 34278180.00000000 6999.27636719   715461.37500000 568812.81250000 
0.13500    21113112.00000000 13556696.00000000 33825740.00000000 6850.14746094   701624.50000000 557812.81250000 
0.13600    20831074.00000000 13381108.00000000 33380214.00000000 6704.38574219   688056.12500000 547027.75000000 
0.13700    20553662.00000000 13208223.00000000 32942138.00000000 6561.79492188   674756.93750000 536457.50000000 
0.13800    20280040.00000000 13037950.00000000 32510664.00000000 6422.35302734   661706.12500000 526078.37500000 
0.13900    20010912.00000000 12870117.00000000 32085320.00000000 6285.83789062   648900.43750000 515891.78125000 
0.14000    19745460.00000000 12704615.00000000 31665844.00000000 6152.12353516   636323.06250000 505895.15625000 
0.14100    19483550.00000000 12541053.00000000 31251804.00000000 6021.14990234   623971.25000000 496070.09375000 
0.14200    19225120.00000000 12379683.00000000 30843360.00000000 5892.69433594   611824.12500000 486410.56250000 
0.14300    18969906.00000000 12220146.00000000 30439676.00000000 5766.66259766   599887.56250000 476915.84375000 
0.14400    18717682.00000000 12062300.00000000 30040468.00000000 5642.97753906   588147.18750000 467574.50000000 
0.14500    18468336.00000000 11906233.00000000 29645742.00000000 5521.53125000   576588.75000000 458381.68750000 
0.14600    18221594.00000000 11751704.00000000 29255070.00000000 5402.24462891   565214.43750000 449331.21875000 
0.14700    17977638.00000000 11598621.00000000 28868632.00000000 5285.06396484   554015.81250000 440423.18750000 
0.14800    17735760.00000000 11446978.00000000 28485372.00000000 5169.85791016   542978.50000000 431640.78125000 
0.14900    17496326.00000000 11296481.00000000 28105756.00000000 5056.55175781   532098.50000000 422985.71875000 
0.15000    17258848.00000000 11147489.00000000 27729412.00000000 4945.12011719   521377.68750000 414448.81250000 
0.15100    17023576.00000000 10999389.00000000 27355878.00000000 4835.42236328   510800.46875000 406037.59375000 
0.15200    16790140.00000000 10852508.00000000 26985476.00000000 4727.60253906   500371.90625000 397737.31250000 
0.15300    16558580.00000000 10706704.00000000 26617836.00000000 4621.38330078   490080.43750000 389542.25000000 
0.15400    16328676.00000000 10561808.00000000 26252888.00000000 4516.90380859   479918.12500000 381455.81250000 
0.15500    16100428.00000000 10417859.00000000 25890396.00000000 4414.11425781   469894.62500000 373475.62500000 
0.15600    15873813.00000000 10274822.00000000 25530124.00000000 4312.98046875   459992.03125000 365593.43750000 
0.15700    15648818.00000000 10132773.00000000 25172548.00000000 4213.48486328   450219.87500000 357812.00000000 
0.15800    15425341.00000000 9991459.00000000 24817020.00000000 4115.60058594   440567.00000000 350124.21875000 
0.15900    15203162.00000000 9850959.00000000 24463790.00000000 4019.37109375   431037.93750000 342535.93750000 
0.16000    14982526.00000000 9711233.00000000 24112512.00000000 3924.78271484   421626.65625000 335038.15625000 
0.16100    14763378.00000000 9572553.00000000 23763842.00000000 3831.94018555   412334.46875000 327639.46875000 
0.16200    14545530.00000000 9434511.00000000 23417022.00000000 3740.73510742   403162.25000000 320328.00000000 
0.16300    14329204.00000000 9297304.00000000 23072466.00000000 3651.19799805   394100.09375000 313112.03125000 
0.16400    14114221.00000000 9160824.00000000 22729840.00000000 3563.44775391   385163.78125000 305985.18750000 
0.16500    13900758.00000000 9025232.00000000 22389570.00000000 3477.43505859   376343.71875000 298953.50000000 
0.16600    13688570.00000000 8890440.00000000 22051490.00000000 3393.20288086   367639.62500000 292014.59375000 
0.16700    13477947.00000000 8756565.00000000 21715390.00000000 3310.77587891   359052.53125000 285166.37500000 
0.16800    13268892.00000000 8623396.00000000 21381586.00000000 3230.18017578   350588.96875000 278408.31250000 
0.16900    13061231.00000000 8491152.00000000 21050334.00000000 3151.50073242   342247.62500000 271753.65625000 
0.17000    12855068.00000000 8359815.00000000 20721370.00000000 3074.69799805   334024.12500000 265189.34375000 
