# SAXS profile: number of points = 501, q_min = 0, q_max = 0.5, delta_q = 0.001
#    q    intensity 
0.00000    162229376.00000000 101202112.00000000 256269664.00000000 116185.53906250 8683311.00000000 6858010.50000000 
0.00100    162187536.00000000 101172208.00000000 256195584.00000000 116140.29687500 8680308.00000000 6855667.50000000 
0.00200    162053392.00000000 101083320.00000000 255971392.00000000 116005.14843750 8671292.00000000 6848654.50000000 
0.00300    161818080.00000000 100936824.00000000 255597424.00000000 115780.50000000 8656417.00000000 6836925.00000000 
0.00400    161481008.00000000 100731928.00000000 255074032.00000000 115467.54687500 8635614.00000000 6820565.00000000 
0.00500    161050128.00000000 100467152.00000000 254398512.00000000 115064.96093750 8608904.00000000 6799601.50000000 
0.00600    160527328.00000000 100146472.00000000 253584112.00000000 114577.10937500 8576434.00000000 6774097.50000000 
0.00700    159906656.00000000 99770496.00000000 252622432.00000000 114002.84375000 8538298.00000000 6744094.50000000 
0.00800    159204112.00000000 99338912.00000000 251519056.00000000 113345.54687500 8494492.00000000 6709699.00000000 
0.00900    158414032.00000000 98851768.00000000 250273424.00000000 112605.33593750 8445207.00000000 6671009.50000000 
0.01000    157535744.00000000 98309648.00000000 248892160.00000000 111786.21093750 8390547.00000000 6628084.00000000 
0.01100    156567472.00000000 97715256.00000000 247378240.00000000 110889.55468750 8330714.50000000 6581035.00000000 
0.01200    155517296.00000000 97068696.00000000 245731392.00000000 109917.90625000 8265789.00000000 6530008.00000000 
0.01300    154386800.00000000 96373832.00000000 243958096.00000000 108873.76562500 8195929.00000000 6475151.50000000 
0.01400    153179936.00000000 95631168.00000000 242063040.00000000 107760.42187500 8121402.50000000 6416563.50000000 
0.01500    151894240.00000000 94840208.00000000 240046432.00000000 106581.53125000 8042289.00000000 6354405.50000000 
0.01600    150537456.00000000 94004272.00000000 237915632.00000000 105339.70312500 7958852.50000000 6288768.00000000 
0.01700    149107552.00000000 93124944.00000000 235675008.00000000 104037.50781250 7871218.00000000 6219928.00000000 
0.01800    147613792.00000000 92205000.00000000 233329280.00000000 102679.68750000 7779680.00000000 6147955.50000000 
0.01900    146054832.00000000 91244688.00000000 230880752.00000000 101269.51562500 7684433.50000000 6073067.00000000 
0.02000    144433776.00000000 90246832.00000000 228336784.00000000 99809.78906250  7585660.00000000 5995406.00000000 
0.02100    142756736.00000000 89212488.00000000 225702960.00000000 98305.88281250  7483682.00000000 5915219.50000000 
0.02200    141024320.00000000 88144720.00000000 222982960.00000000 96760.36718750  7378655.00000000 5832607.00000000 
0.02300    139241680.00000000 87045256.00000000 220182224.00000000 95177.20312500  7270838.00000000 5747789.00000000 
0.02400    137411408.00000000 85915568.00000000 217307472.00000000 93560.85937500  7160455.50000000 5660970.00000000 
0.02500    135537376.00000000 84759376.00000000 214365168.00000000 91914.06250000  7047798.50000000 5572320.00000000 
0.02600    133624168.00000000 83578384.00000000 211357120.00000000 90242.93750000  6933074.50000000 5482044.50000000 
0.02700    131674512.00000000 82374320.00000000 208294512.00000000 88548.35937500  6816560.50000000 5390331.00000000 
0.02800    129691728.00000000 81148704.00000000 205174880.00000000 86835.98437500  6698450.50000000 5297344.50000000 
0.02900    127680608.00000000 79905872.00000000 202012992.00000000 85109.66406250  6579004.00000000 5203321.50000000 
0.03000    125643128.00000000 78647440.00000000 198810336.00000000 83373.38281250  6458478.50000000 5108441.00000000 
0.03100    123584184.00000000 77373392.00000000 195569680.00000000 81629.22656250  6337116.00000000 5012907.00000000 
0.03200    121505720.00000000 76089464.00000000 192301008.00000000 79881.80468750  6215075.00000000 4916769.00000000 
0.03300    119414456.00000000 74793568.00000000 189008912.00000000 78133.82031250  6092663.50000000 4820341.00000000 
0.03400    117310048.00000000 73489672.00000000 185696208.00000000 76389.90625000  5970056.50000000 4723729.00000000 
0.03500    115197736.00000000 72181872.00000000 182372208.00000000 74651.02343750  5847440.50000000 4627103.00000000 
0.03600    113081736.00000000 70868752.00000000 179039824.00000000 72922.17187500  5725091.50000000 4530670.00000000 
0.03700    110963568.00000000 69556400.00000000 175704480.00000000 71205.55468750  5603168.00000000 4434585.50000000 
0.03800    108848152.00000000 68243584.00000000 172371184.00000000 69503.49218750  5481824.50000000 4338910.50000000 
0.03900    106736768.00000000 66932832.00000000 169042192.00000000 67819.48437500  5361296.00000000 4243844.50000000 
0.04000    104633064.00000000 65626652.00000000 165728256.00000000 66154.81250000  5241715.50000000 4149534.50000000 
0.04100    102540696.00000000 64325920.00000000 162428976.00000000 64512.79296875  5123319.50000000 4056094.25000000 
0.04200    100460928.00000000 63033588.00000000 159149696.00000000 62894.69921875  5006172.50000000 3963673.50000000 
0.04300    98398760.00000000 61750400.00000000 155895360.00000000 61302.78125000  4890480.00000000 3872351.25000000 
0.04400    96352680.00000000 60478728.00000000 152669824.00000000 59739.28906250  4776326.00000000 3782269.75000000 
0.04500    94329480.00000000 59218300.00000000 149476128.00000000 58204.83203125  4663907.00000000 3693493.50000000 
0.04600    92328464.00000000 57972540.00000000 146318464.00000000 56701.33593750  4553250.00000000 3606099.75000000 
0.04700    90352784.00000000 56741152.00000000 143199600.00000000 55229.89062500  4444466.50000000 3520224.50000000 
0.04800    88404264.00000000 55526528.00000000 140122768.00000000 53791.33593750  4337733.50000000 3435900.25000000 
0.04900    86485352.00000000 54329592.00000000 137090320.00000000 52386.98828125  4233104.50000000 3353183.00000000 
0.05000    84595936.00000000 53151408.00000000 134107520.00000000 51017.36718750  4130564.25000000 3272197.50000000 
0.05100    82739704.00000000 51993276.00000000 131174520.00000000 49682.66796875  4030292.50000000 3192908.00000000 
0.05200    80917552.00000000 50854848.00000000 128294224.00000000 48383.33593750  3932240.50000000 3115399.00000000 
0.05300    79129520.00000000 49738100.00000000 125468856.00000000 47119.97265625  3836552.50000000 3039734.75000000 
0.05400    77378096.00000000 48643440.00000000 122699144.00000000 45892.27343750  3743158.50000000 2965863.25000000 
0.05500    75663800.00000000 47571672.00000000 119987704.00000000 44700.95312500  3652179.75000000 2893906.50000000 
0.05600    73987584.00000000 46523588.00000000 117336160.00000000 43545.11328125  3563562.75000000 2823808.75000000 
0.05700    72349744.00000000 45498444.00000000 114745744.00000000 42424.33593750  3477373.25000000 2755582.75000000 
0.05800    70751072.00000000 44498240.00000000 112216040.00000000 41338.94921875  3393558.00000000 2689252.00000000 
0.05900    69192256.00000000 43522296.00000000 109749184.00000000 40287.83203125  3312126.75000000 2624800.75000000 
0.06000    67674120.00000000 42571544.00000000 107346840.00000000 39271.05078125  3233075.75000000 2562214.00000000 
0.06100    66195852.00000000 41645612.00000000 105007376.00000000 38286.63281250  3156371.75000000 2501494.50000000 
0.06200    64758056.00000000 40745204.00000000 102731976.00000000 37335.58593750  3082002.25000000 2442622.25000000 
0.06300    63361824.00000000 39870104.00000000 100520464.00000000 36416.24609375  3009951.00000000 2385542.00000000 
0.06400    62005180.00000000 39020080.00000000 98372504.00000000 35527.36328125  2940138.75000000 2330268.00000000 
0.06500    60689492.00000000 38195628.00000000 96289536.00000000 34668.18359375  2872549.25000000 2276718.00000000 
0.06600    59413168.00000000 37395844.00000000 94268768.00000000 33838.53125000  2807125.25000000 2224894.75000000 
0.06700    58176936.00000000 36621068.00000000 92311584.00000000 33036.82031250  2743816.25000000 2174763.00000000 
0.06800    56979876.00000000 35870916.00000000 90416208.00000000 32261.71093750  2682590.00000000 2126279.00000000 
0.06900    55821592.00000000 35145364.00000000 88583216.00000000 31512.75976562  2623378.50000000 2079342.37500000 
0.07000    54701744.00000000 34443700.00000000 86809832.00000000 30788.73046875  2566088.00000000 2033994.37500000 
0.07100    53619236.00000000 33765808.00000000 85096168.00000000 30088.29492188  2510711.25000000 1990140.50000000 
0.07200    52573424.00000000 33111880.00000000 83441864.00000000 29410.64843750  2457144.50000000 1947725.00000000 
0.07300    51563548.00000000 32479724.00000000 81843256.00000000 28755.05078125  2405383.50000000 1906720.12500000 
0.07400    50589252.00000000 31870606.00000000 80302224.00000000 28119.84375000  2355295.00000000 1867049.00000000 
0.07500    49649328.00000000 31282820.00000000 78815720.00000000 27504.69726562  2306848.50000000 1828712.87500000 
0.07600    48742380.00000000 30716414.00000000 77381656.00000000 26907.96093750  2259969.75000000 1791589.87500000 
0.07700    47868460.00000000 30170610.00000000 76001136.00000000 26329.18945312  2214610.00000000 1755695.87500000 
0.07800    47025684.00000000 29645116.00000000 74670080.00000000 25767.33398438  2170680.00000000 1720933.87500000 
0.07900    46213844.00000000 29139286.00000000 73387688.00000000 25221.45312500  2128130.75000000 1687278.87500000 
0.08000    45431440.00000000 28652040.00000000 72153072.00000000 24690.68164062  2086884.00000000 1654655.75000000 
0.08100    44677708.00000000 28183108.00000000 70963640.00000000 24174.44140625  2046913.62500000 1623059.25000000 
0.08200    43951324.00000000 27731832.00000000 69818368.00000000 23671.82617188  2008143.62500000 1592400.00000000 
0.08300    43251528.00000000 27297520.00000000 68715888.00000000 23182.00000000  1970504.50000000 1562656.50000000 
0.08400    42577328.00000000 26879404.00000000 67653912.00000000 22704.41406250  1933969.12500000 1533764.50000000 
0.08500    41927216.00000000 26476836.00000000 66630924.00000000 22238.58789062  1898455.25000000 1505709.75000000 
0.08600    41300608.00000000 26089570.00000000 65645272.00000000 21783.70507812  1863918.87500000 1478436.12500000 
0.08700    40696512.00000000 25716546.00000000 64695196.00000000 21339.40234375  1830301.50000000 1451891.37500000 
0.08800    40113464.00000000 25357154.00000000 63779808.00000000 20904.79882812  1797582.50000000 1426055.00000000 
0.08900    39550916.00000000 25010732.00000000 62896728.00000000 20479.89648438  1765695.62500000 1400889.12500000 
0.09000    39007416.00000000 24676894.00000000 62044328.00000000 20064.23242188  1734573.75000000 1376361.62500000 
0.09100    38482500.00000000 24354698.00000000 61221748.00000000 19657.16406250  1704231.37500000 1352419.12500000 
0.09200    37975048.00000000 24043490.00000000 60426552.00000000 19258.35156250  1674586.87500000 1329036.50000000 
0.09300    37483780.00000000 23743024.00000000 59657720.00000000 18867.96093750  1645644.12500000 1306204.37500000 
0.09400    37007836.00000000 23452422.00000000 58913580.00000000 18485.07812500  1617324.25000000 1283877.37500000 
0.09500    36546704.00000000 23171118.00000000 58193036.00000000 18109.90429688  1589618.87500000 1262025.00000000 
0.09600    36098800.00000000 22898464.00000000 57494148.00000000 17741.83593750  1562492.12500000 1240650.62500000 
0.09700    35664356.00000000 22634246.00000000 56815764.00000000 17381.07226562  1535919.50000000 1219700.00000000 
0.09800    35241672.00000000 22377466.00000000 56157308.00000000 17027.20703125  1509867.62500000 1199175.00000000 
0.09900    34830508.00000000 22127978.00000000 55516012.00000000 16680.08593750  1484317.50000000 1179037.37500000 
0.10000    34429676.00000000 21884960.00000000 54891356.00000000 16339.61132812  1459243.25000000 1159280.75000000 
0.10100    34038792.00000000 21648108.00000000 54282272.00000000 16005.82226562  1434629.25000000 1139878.62500000 
0.10200    33656524.00000000 21417184.00000000 53687852.00000000 15678.26171875  1410457.50000000 1120820.50000000 
0.10300    33283142.00000000 21191098.00000000 53106088.00000000 15357.08105469  1386698.62500000 1102091.50000000 
0.10400    32917298.00000000 20970104.00000000 52537104.00000000 15042.16210938  1363340.00000000 1083668.75000000 
0.10500    32558560.00000000 20753612.00000000 51979188.00000000 14733.18261719  1340369.37500000 1065566.75000000 
0.10600    32206098.00000000 20540738.00000000 51431360.00000000 14430.36230469  1317771.75000000 1047730.12500000 
0.10700    31859854.00000000 20331408.00000000 50892436.00000000 14133.42675781  1295521.37500000 1030186.06250000 
0.10800    31518680.00000000 20125628.00000000 50362480.00000000 13842.23535156  1273625.37500000 1012892.37500000 
0.10900    31182518.00000000 19922482.00000000 49839580.00000000 13556.92968750  1252055.50000000 995866.37500000 
0.11000    30850948.00000000 19722220.00000000 49322944.00000000 13277.22460938  1230804.87500000 979085.12500000 
0.11100    30523150.00000000 19523930.00000000 48813208.00000000 13003.13574219  1209869.12500000 962552.68750000 
0.11200    30199022.00000000 19327756.00000000 48308212.00000000 12734.58398438  1189229.25000000 946242.18750000 
0.11300    29877524.00000000 19133292.00000000 47807916.00000000 12471.28417969  1168878.37500000 930153.18750000 
0.11400    29559360.00000000 18940176.00000000 47311972.00000000 12213.37109375  1148803.75000000 914282.37500000 
0.11500    29243458.00000000 18748302.00000000 46819312.00000000 11960.48828125  1129008.12500000 898619.31250000 
0.11600    28929514.00000000 18557462.00000000 46329776.00000000 11712.70117188  1109480.25000000 883173.56250000 
0.11700    28617478.00000000 18367388.00000000 45842236.00000000 11469.84863281  1090207.75000000 867901.75000000 
0.11800    28306858.00000000 18177920.00000000 45356528.00000000 11231.76269531  1071156.62500000 852835.43750000 
0.11900    27997474.00000000 17988934.00000000 44872696.00000000 10998.35449219  1052376.12500000 837944.37500000 
0.12000    27688914.00000000 17800154.00000000 44390164.00000000 10769.46582031  1033818.75000000 823233.12500000 
0.12100    27381448.00000000 17611458.00000000 43908012.00000000 10545.02343750  1015489.18750000 808696.87500000 
0.12200    27074520.00000000 17422966.00000000 43427016.00000000 10324.80273438  997381.62500000 794327.00000000 
0.12300    26767766.00000000 17234362.00000000 42945128.00000000 10108.67089844  979479.31250000 780124.31250000 
0.12400    26461512.00000000 17045472.00000000 42464196.00000000 9896.45605469   961789.00000000 766077.93750000 
0.12500    26155366.00000000 16856322.00000000 41983080.00000000 9688.14648438   944293.93750000 752184.87500000 
0.12600    25849512.00000000 16667096.00000000 41501608.00000000 9483.49609375   927000.50000000 738447.06250000 
0.12700    25543300.00000000 16477444.00000000 41019332.00000000 9282.41894531   909891.31250000 724847.12500000 
0.12800    25237032.00000000 16287138.00000000 40536504.00000000 9084.63964844   892970.81250000 711392.75000000 
0.12900    24930780.00000000 16096354.00000000 40053012.00000000 8890.28906250   876225.37500000 698074.93750000 
0.13000    24623926.00000000 15905239.00000000 39568540.00000000 8698.97070312   859661.12500000 684894.00000000 
0.13100    24317056.00000000 15713553.00000000 39083480.00000000 8510.65429688   843260.12500000 671836.75000000 
0.13200    24009832.00000000 15521541.00000000 38597452.00000000 8325.29687500   827023.62500000 658912.06250000 
0.13300    23702726.00000000 15328770.00000000 38110612.00000000 8142.79882812   810957.81250000 646113.00000000 
0.13400    23394926.00000000 15135654.00000000 37623232.00000000 7962.86621094   795041.12500000 633442.93750000 
0.13500    23086864.00000000 14942033.00000000 37134692.00000000 7785.52099609   779292.18750000 620891.68750000 
0.13600    22779002.00000000 14748126.00000000 36645952.00000000 7610.79052734   763693.50000000 608463.18750000 
0.13700    22470756.00000000 14553865.00000000 36156228.00000000 7438.40332031   748246.25000000 596154.62500000 
0.13800    22162532.00000000 14359171.00000000 35666628.00000000 7268.42675781   732944.81250000 583957.56250000 
0.13900    21854436.00000000 14164359.00000000 35176516.00000000 7100.74218750   717798.56250000 571876.62500000 
0.14000    21546196.00000000 13969353.00000000 34686720.00000000 6935.34570312   702802.81250000 559920.37500000 
0.14100    21238540.00000000 13774239.00000000 34196064.00000000 6772.13867188   687951.68750000 548068.75000000 
0.14200    20931078.00000000 13579015.00000000 33706516.00000000 6611.13330078   673249.00000000 536348.68750000 
0.14300    20623958.00000000 13383929.00000000 33216884.00000000 6452.36572266   658702.00000000 524741.81250000 
0.14400    20317812.00000000 13188939.00000000 32727856.00000000 6295.72119141   644289.93750000 513251.28125000 
0.14500    20011734.00000000 12994248.00000000 32240132.00000000 6141.28173828   630048.56250000 501877.75000000 
0.14600    19706906.00000000 12799887.00000000 31753122.00000000 5989.10791016   615953.93750000 490634.18750000 
0.14700    19402980.00000000 12605969.00000000 31267546.00000000 5839.04589844   602014.43750000 479507.68750000 
0.14800    19100174.00000000 12412501.00000000 30783452.00000000 5691.27148438   588230.31250000 468509.78125000 
0.14900    18798500.00000000 12219688.00000000 30301080.00000000 5545.69140625   574611.87500000 457639.00000000 
0.15000    18498192.00000000 12027656.00000000 29821048.00000000 5402.49316406   561157.68750000 446894.68750000 
0.15100    18199480.00000000 11836306.00000000 29343058.00000000 5261.60937500   547870.81250000 436286.50000000 
0.15200    17902584.00000000 11646113.00000000 28867640.00000000 5123.15966797   534757.25000000 425818.09375000 
0.15300    17607534.00000000 11456945.00000000 28395256.00000000 4987.17089844   521819.84375000 415487.18750000 
0.15400    17314348.00000000 11268811.00000000 27925626.00000000 4853.67382812   509053.09375000 405295.28125000 
0.15500    17023534.00000000 11081972.00000000 27459496.00000000 4722.75976562   496477.09375000 395246.37500000 
0.15600    16734820.00000000 10896512.00000000 26996764.00000000 4594.43750000   484084.46875000 385350.81250000 
0.15700    16448717.00000000 10712602.00000000 26537964.00000000 4468.83984375   471888.87500000 375606.06250000 
0.15800    16165046.00000000 10530103.00000000 26083174.00000000 4345.92236328   459879.96875000 366014.62500000 
0.15900    15884164.00000000 10349374.00000000 25632440.00000000 4225.77099609   448073.28125000 356580.78125000 
0.16000    15606219.00000000 10170245.00000000 25186426.00000000 4108.52539062   436469.15625000 347307.46875000 
0.16100    15331358.00000000 9993209.00000000 24745060.00000000 3994.15234375   425076.56250000 338203.96875000 
0.16200    15059478.00000000 9817936.00000000 24308658.00000000 3882.75854492   413884.53125000 329258.93750000 
0.16300    14790856.00000000 9644699.00000000 23877262.00000000 3774.27124023   402917.62500000 320485.03125000 
0.16400    14525623.00000000 9473442.00000000 23451236.00000000 3668.80834961   392156.84375000 311889.06250000 
0.16500    14263919.00000000 9304421.00000000 23030488.00000000 3566.39160156   381620.18750000 303462.81250000 
0.16600    14005729.00000000 9137679.00000000 22615472.00000000 3467.05249023   371302.15625000 295208.09375000 
0.16700    13751066.00000000 8973126.00000000 22206342.00000000 3370.73144531   361208.53125000 287132.06250000 
0.16800    13500167.00000000 8810961.00000000 21802942.00000000 3277.50488281   351338.81250000 279236.31250000 
0.16900    13253322.00000000 8651143.00000000 21405720.00000000 3187.37451172   341695.12500000 271521.25000000 
0.17000    13010149.00000000 8493779.00000000 21014556.00000000 3100.29833984   332281.34375000 263984.81250000 
