# SAXS profile: number of points = 501, q_min = 0, q_max = 0.5, delta_q = 0.001
#    q    intensity 
0.00000    162237648.00000000 101202368.00000000 256271280.00000000 107763.57812500 8362645.00000000 6604799.50000000 
0.00100    162200992.00000000 101178256.00000000 256211280.00000000 107731.83593750 8360418.50000000 6603049.50000000 
0.00200    162090032.00000000 101108376.00000000 256033024.00000000 107637.45312500 8353795.00000000 6597864.00000000 
0.00300    161900448.00000000 100991160.00000000 255735200.00000000 107480.25781250 8342806.50000000 6589185.50000000 
0.00400    161635664.00000000 100826592.00000000 255318992.00000000 107260.39062500 8327382.00000000 6577043.50000000 
0.00500    161295376.00000000 100616856.00000000 254785248.00000000 106978.77343750 8307639.50000000 6561511.00000000 
0.00600    160879792.00000000 100361128.00000000 254131952.00000000 106635.55468750 8283531.50000000 6542567.00000000 
0.00700    160393408.00000000 100058920.00000000 253366960.00000000 106231.18750000 8255184.00000000 6520276.00000000 
0.00800    159828912.00000000 99712648.00000000 252484672.00000000 105767.60156250 8222615.00000000 6494628.50000000 
0.00900    159196112.00000000 99321336.00000000 251489504.00000000 105244.10156250 8185859.50000000 6465677.50000000 
0.01000    158492224.00000000 98886456.00000000 250381408.00000000 104662.63281250 8144988.50000000 6433543.00000000 
0.01100    157719088.00000000 98408064.00000000 249165504.00000000 104023.82031250 8100065.00000000 6398184.50000000 
0.01200    156877376.00000000 97887216.00000000 247839680.00000000 103329.21875000 8051167.00000000 6359748.50000000 
0.01300    155965584.00000000 97324992.00000000 246407504.00000000 102579.70312500 7998447.00000000 6318260.00000000 
0.01400    154989808.00000000 96721352.00000000 244873488.00000000 101776.75000000 7941901.00000000 6273748.50000000 
0.01500    153949408.00000000 96077488.00000000 243238032.00000000 100922.63281250 7881668.00000000 6226387.50000000 
0.01600    152845856.00000000 95395840.00000000 241502624.00000000 100017.50000000 7817849.50000000 6176182.00000000 
0.01700    151680976.00000000 94676552.00000000 239672160.00000000 99064.03125000  7750586.50000000 6123223.00000000 
0.01800    150459168.00000000 93920056.00000000 237747264.00000000 98063.67968750  7679880.00000000 6067585.00000000 
0.01900    149177152.00000000 93128136.00000000 235734048.00000000 97017.53125000  7606001.00000000 6009417.50000000 
0.02000    147841472.00000000 92301296.00000000 233631264.00000000 95929.44531250  7528926.50000000 5948821.50000000 
0.02100    146451632.00000000 91442600.00000000 231446960.00000000 94798.82812500  7448871.50000000 5885822.50000000 
0.02200    145010272.00000000 90551448.00000000 229180320.00000000 93629.53906250  7365962.00000000 5820537.50000000 
0.02300    143521456.00000000 89630288.00000000 226836960.00000000 92422.70312500  7280295.00000000 5753114.00000000 
0.02400    141983680.00000000 88679824.00000000 224420800.00000000 91180.80468750  7192029.00000000 5683662.50000000 
0.02500    140401776.00000000 87701600.00000000 221931184.00000000 89905.13281250  7101328.00000000 5612247.00000000 
0.02600    138777808.00000000 86696736.00000000 219377008.00000000 88599.77343750  7008308.00000000 5539032.00000000 
0.02700    137114688.00000000 85667648.00000000 216758752.00000000 87265.10937500  6913088.50000000 5464088.50000000 
0.02800    135413344.00000000 84615328.00000000 214084288.00000000 85903.17187500  6815893.00000000 5387529.50000000 
0.02900    133676448.00000000 83541128.00000000 211352448.00000000 84517.64843750  6716768.50000000 5309550.00000000 
0.03000    131907416.00000000 82446192.00000000 208569072.00000000 83109.81250000  6615963.50000000 5230175.50000000 
0.03100    130108472.00000000 81332984.00000000 205738160.00000000 81682.15625000  6513551.50000000 5149536.00000000 
0.03200    128280984.00000000 80202480.00000000 202863152.00000000 80237.35937500  6409757.00000000 5067774.50000000 
0.03300    126429400.00000000 79056216.00000000 199949328.00000000 78777.32812500  6304693.00000000 4985074.50000000 
0.03400    124554672.00000000 77896360.00000000 197000384.00000000 77303.64843750  6198470.50000000 4901452.50000000 
0.03500    122660128.00000000 76722736.00000000 194017456.00000000 75819.32812500  6091330.50000000 4817034.50000000 
0.03600    120747840.00000000 75538560.00000000 191007472.00000000 74326.18750000  5983339.00000000 4731999.50000000 
0.03700    118820560.00000000 74344576.00000000 187975072.00000000 72826.57812500  5874672.50000000 4646404.00000000 
0.03800    116879480.00000000 73143432.00000000 184921216.00000000 71322.95312500  5765504.50000000 4560417.00000000 
0.03900    114929472.00000000 71935992.00000000 181852544.00000000 69816.66406250  5655991.00000000 4474151.00000000 
0.04000    112971312.00000000 70723128.00000000 178768000.00000000 68310.87500000  5546172.50000000 4387673.00000000 
0.04100    111006720.00000000 69506480.00000000 175676672.00000000 66806.58593750  5436340.00000000 4301092.00000000 
0.04200    109040488.00000000 68287496.00000000 172580016.00000000 65305.58203125  5326534.50000000 4214561.00000000 
0.04300    107072040.00000000 67068356.00000000 169481392.00000000 63810.61328125  5216874.50000000 4128171.00000000 
0.04400    105105856.00000000 65849692.00000000 166385536.00000000 62323.50000000  5107552.50000000 4042025.50000000 
0.04500    103143240.00000000 64633084.00000000 163295792.00000000 60845.92578125  4998621.50000000 3956197.50000000 
0.04600    101186264.00000000 63420100.00000000 160213680.00000000 59378.86718750  4890329.50000000 3870807.50000000 
0.04700    99237520.00000000 62211752.00000000 157144832.00000000 57924.64062500  4782714.00000000 3785959.75000000 
0.04800    97298928.00000000 61009636.00000000 154090544.00000000 56484.84765625  4675841.00000000 3701731.75000000 
0.04900    95371840.00000000 59814212.00000000 151056368.00000000 55061.00000000  4569906.50000000 3618199.00000000 
0.05000    93458880.00000000 58627656.00000000 148041760.00000000 53654.42968750  4464962.00000000 3535473.50000000 
0.05100    91561384.00000000 57450540.00000000 145052688.00000000 52266.28906250  4361132.00000000 3453609.25000000 
0.05200    89681504.00000000 56284156.00000000 142091632.00000000 50898.45312500  4258539.00000000 3372698.25000000 
0.05300    87820304.00000000 55129308.00000000 139158880.00000000 49551.48828125  4157271.50000000 3292798.00000000 
0.05400    85980920.00000000 53987160.00000000 136259376.00000000 48226.46875000  4057346.50000000 3213990.00000000 
0.05500    84162400.00000000 52858492.00000000 133394464.00000000 46925.34765625  3958917.25000000 3136349.75000000 
0.05600    82367912.00000000 51744416.00000000 130566384.00000000 45647.75390625  3862028.75000000 3059896.25000000 
0.05700    80599616.00000000 50645992.00000000 127778632.00000000 44395.94140625  3766761.00000000 2984706.25000000 
0.05800    78856024.00000000 49563356.00000000 125031656.00000000 43169.91406250  3673166.50000000 2910857.00000000 
0.05900    77140488.00000000 48497772.00000000 122327280.00000000 41970.08203125  3581317.50000000 2838355.75000000 
0.06000    75453744.00000000 47449560.00000000 119667496.00000000 40797.68359375  3491238.00000000 2767274.75000000 
0.06100    73797000.00000000 46419832.00000000 117054528.00000000 39652.83203125  3403040.25000000 2697628.00000000 
0.06200    72169696.00000000 45409188.00000000 114489216.00000000 38536.02734375  3316725.25000000 2629462.25000000 
0.06300    70575640.00000000 44417304.00000000 111975072.00000000 37448.07031250  3232320.00000000 2562815.50000000 
0.06400    69012592.00000000 43445664.00000000 109509568.00000000 36388.83984375  3149853.25000000 2497684.50000000 
0.06500    67482768.00000000 42494176.00000000 107096496.00000000 35358.46875000  3069383.00000000 2434129.00000000 
0.06600    65985924.00000000 41563148.00000000 104736248.00000000 34357.51171875  2990908.75000000 2372136.75000000 
0.06700    64523524.00000000 40653380.00000000 102428032.00000000 33385.51953125  2914466.00000000 2311723.75000000 
0.06800    63095396.00000000 39764620.00000000 100175152.00000000 32442.40625000  2840036.75000000 2252907.75000000 
0.06900    61702252.00000000 38897344.00000000 97976200.00000000 31528.90039062  2767649.75000000 2195691.75000000 
0.07000    60343712.00000000 38051500.00000000 95831872.00000000 30644.18359375  2697315.00000000 2140090.25000000 
0.07100    59020568.00000000 37227504.00000000 93744080.00000000 29788.20703125  2629022.75000000 2086092.37500000 
0.07200    57732312.00000000 36425480.00000000 91710728.00000000 28960.77734375  2562726.50000000 2033679.12500000 
0.07300    56479688.00000000 35644760.00000000 89733392.00000000 28161.30078125  2498468.00000000 1982854.87500000 
0.07400    55262256.00000000 34886324.00000000 87810496.00000000 27389.91210938  2436233.50000000 1933615.25000000 
0.07500    54079836.00000000 34149428.00000000 85943488.00000000 26645.53125000  2375951.25000000 1885910.37500000 
0.07600    52932212.00000000 33434126.00000000 84131600.00000000 25928.02343750  2317651.75000000 1839782.37500000 
0.07700    51819612.00000000 32740498.00000000 82374424.00000000 25236.98828125  2261249.00000000 1795152.37500000 
0.07800    50741312.00000000 32067936.00000000 80670680.00000000 24571.45703125  2206787.75000000 1752044.12500000 
0.07900    49696772.00000000 31416482.00000000 79021392.00000000 23931.17773438  2154169.00000000 1710372.62500000 
0.08000    48685868.00000000 30785942.00000000 77423968.00000000 23315.34375000  2103380.50000000 1670163.50000000 
0.08100    47708220.00000000 30175786.00000000 75879168.00000000 22723.35937500  2054390.12500000 1631373.12500000 
0.08200    46762704.00000000 29585988.00000000 74385584.00000000 22154.23632812  2007163.37500000 1593964.00000000 
0.08300    45849380.00000000 29015940.00000000 72941720.00000000 21607.61523438  1961633.12500000 1557894.75000000 
0.08400    44967648.00000000 28465324.00000000 71548128.00000000 21082.69531250  1917779.37500000 1523135.87500000 
0.08500    44115880.00000000 27933862.00000000 70202032.00000000 20578.48437500  1875522.12500000 1489659.00000000 
0.08600    43294152.00000000 27420846.00000000 68904312.00000000 20094.44531250  1834835.87500000 1457409.12500000 
0.08700    42502040.00000000 26926048.00000000 67651256.00000000 19629.47851562  1795683.37500000 1426366.62500000 
0.08800    41738296.00000000 26448838.00000000 66444344.00000000 19182.94140625  1757983.50000000 1396465.62500000 
0.08900    41001796.00000000 25988872.00000000 65279596.00000000 18754.24023438  1721676.00000000 1367687.37500000 
0.09000    40292388.00000000 25545694.00000000 64157988.00000000 18342.36132812  1686748.37500000 1339985.37500000 
0.09100    39608436.00000000 25118492.00000000 63077416.00000000 17946.30664062  1653106.00000000 1313301.25000000 
0.09200    38949984.00000000 24706998.00000000 62035816.00000000 17565.82617188  1620710.62500000 1287607.75000000 
0.09300    38315436.00000000 24310548.00000000 61032028.00000000 17199.61718750  1589525.62500000 1262857.37500000 
0.09400    37704032.00000000 23928494.00000000 60065596.00000000 16846.99414062  1559462.37500000 1239003.00000000 
0.09500    37114688.00000000 23560512.00000000 59133708.00000000 16507.32031250  1530483.00000000 1216018.37500000 
0.09600    36547208.00000000 23205958.00000000 58236464.00000000 16179.81835938  1502532.25000000 1193825.00000000 
0.09700    36000184.00000000 22864168.00000000 57371696.00000000 15863.74218750  1475558.87500000 1172419.50000000 
0.09800    35472120.00000000 22534554.00000000 56537644.00000000 15558.29882812  1449508.12500000 1151727.25000000 
0.09900    34963204.00000000 22216804.00000000 55732636.00000000 15262.70312500  1424310.12500000 1131736.75000000 
0.10000    34471820.00000000 21909964.00000000 54956264.00000000 14976.35644531  1399953.37500000 1112397.62500000 
0.10100    33997160.00000000 21613584.00000000 54205668.00000000 14698.79296875  1376338.25000000 1093662.87500000 
0.10200    33538596.00000000 21327356.00000000 53480892.00000000 14429.12402344  1353452.75000000 1075492.00000000 
0.10300    33094952.00000000 21050510.00000000 52779876.00000000 14166.86914062  1331232.75000000 1057847.87500000 
0.10400    32665286.00000000 20782378.00000000 52100928.00000000 13911.32031250  1309629.87500000 1040709.56250000 
0.10500    32249286.00000000 20522850.00000000 51443672.00000000 13662.05761719  1288614.00000000 1024025.31250000 
0.10600    31845270.00000000 20270978.00000000 50805376.00000000 13418.50488281  1268115.25000000 1007760.43750000 
0.10700    31452902.00000000 20026492.00000000 50185708.00000000 13180.04394531  1248130.00000000 991895.68750000 
0.10800    31071252.00000000 19788640.00000000 49583024.00000000 12946.49902344  1228583.75000000 976380.37500000 
0.10900    30699718.00000000 19557170.00000000 48996556.00000000 12717.09667969  1209449.50000000 961199.37500000 
0.11000    30337406.00000000 19331608.00000000 48424780.00000000 12491.69042969  1190689.00000000 946319.12500000 
0.11100    29983604.00000000 19111412.00000000 47866004.00000000 12269.77441406  1172271.12500000 931715.37500000 
0.11200    29637478.00000000 18896140.00000000 47320224.00000000 12051.00097656  1154172.75000000 917351.12500000 
0.11300    29298514.00000000 18685276.00000000 46785488.00000000 11835.15625000  1136341.37500000 903211.31250000 
0.11400    28966234.00000000 18478654.00000000 46261120.00000000 11621.79199219  1118769.37500000 889276.68750000 
0.11500    28639720.00000000 18275716.00000000 45746272.00000000 11410.76660156  1101414.87500000 875519.43750000 
0.11600    28318422.00000000 18075970.00000000 45239812.00000000 11201.86914062  1084271.62500000 861923.18750000 
0.11700    28001926.00000000 17879486.00000000 44740620.00000000 10994.80468750  1067301.62500000 848463.06250000 
0.11800    27689520.00000000 17685536.00000000 44248180.00000000 10789.40625000  1050474.87500000 835135.50000000 
0.11900    27380734.00000000 17493926.00000000 43761444.00000000 10585.45410156  1033791.12500000 821910.37500000 
0.12000    27075148.00000000 17304226.00000000 43280024.00000000 10383.12304688  1017223.68750000 808784.87500000 
0.12100    26772394.00000000 17116416.00000000 42803220.00000000 10182.00195312  1000766.00000000 795739.93750000 
0.12200    26472102.00000000 16930134.00000000 42329976.00000000 9982.12402344   984399.81250000 782769.68750000 
0.12300    26173816.00000000 16744950.00000000 41860016.00000000 9783.41601562   968111.87500000 769867.06250000 
0.12400    25876966.00000000 16561023.00000000 41392612.00000000 9585.80273438   951894.31250000 757017.18750000 
0.12500    25581696.00000000 16377862.00000000 40927000.00000000 9389.39746094   935733.31250000 744213.62500000 
0.12600    25287470.00000000 16195323.00000000 40463536.00000000 9194.04101562   919639.18750000 731460.56250000 
0.12700    24993892.00000000 16013297.00000000 40001668.00000000 8999.90527344   903584.93750000 718744.75000000 
0.12800    24701106.00000000 15831635.00000000 39540108.00000000 8806.90332031   887577.00000000 706060.93750000 
0.12900    24408674.00000000 15650219.00000000 39079484.00000000 8615.07324219   871622.93750000 693416.25000000 
0.13000    24116340.00000000 15469006.00000000 38618896.00000000 8424.54394531   855705.75000000 680807.06250000 
0.13100    23824180.00000000 15287627.00000000 38158476.00000000 8235.35253906   839834.81250000 668230.93750000 
0.13200    23532142.00000000 15106303.00000000 37697604.00000000 8047.57031250   824003.93750000 655682.25000000 
0.13300    23239708.00000000 14924793.00000000 37237376.00000000 7861.33496094   808224.50000000 643180.25000000 
0.13400    22947308.00000000 14743095.00000000 36776044.00000000 7676.65527344   792491.50000000 630712.12500000 
0.13500    22654604.00000000 14561206.00000000 36314508.00000000 7493.78125000   776826.00000000 618286.68750000 
0.13600    22361508.00000000 14379056.00000000 35852476.00000000 7312.66845703   761209.00000000 605905.87500000 
0.13700    22068380.00000000 14196620.00000000 35389736.00000000 7133.48046875   745667.37500000 593575.43750000 
0.13800    21774700.00000000 14013927.00000000 34926548.00000000 6956.41357422   730192.12500000 581305.50000000 
0.13900    21480854.00000000 13831076.00000000 34463060.00000000 6781.40869141   714797.81250000 569096.06250000 
0.14000    21186950.00000000 13648004.00000000 33998904.00000000 6608.70458984   699495.43750000 556948.00000000 
0.14100    20893060.00000000 13464757.00000000 33534798.00000000 6438.43164062   684289.68750000 544878.43750000 
0.14200    20598878.00000000 13281342.00000000 33070010.00000000 6270.59765625   669184.43750000 532886.50000000 
0.14300    20304876.00000000 13097847.00000000 32605556.00000000 6105.45361328   654193.00000000 520984.25000000 
0.14400    20010840.00000000 12914252.00000000 32140962.00000000 5942.94775391   639326.68750000 509174.34375000 
0.14500    19717378.00000000 12730801.00000000 31676844.00000000 5783.33056641   624584.68750000 497462.81250000 
0.14600    19424100.00000000 12547423.00000000 31212958.00000000 5626.57861328   609989.62500000 485861.34375000 
0.14700    19131418.00000000 12364233.00000000 30749860.00000000 5472.91796875   595543.68750000 474375.96875000 
0.14800    18839356.00000000 12181278.00000000 30287394.00000000 5322.29980469   581245.87500000 463008.78125000 
0.14900    18548222.00000000 11998739.00000000 29826312.00000000 5174.91455078   567121.43750000 451769.43750000 
0.15000    18257910.00000000 11816648.00000000 29366264.00000000 5030.70263672   553171.93750000 440671.18750000 
0.15100    17968650.00000000 11634971.00000000 28908052.00000000 4889.88574219   539404.93750000 429708.12500000 
0.15200    17680656.00000000 11454077.00000000 28451554.00000000 4752.45703125   525833.18750000 418899.31250000 
0.15300    17394226.00000000 11273858.00000000 27997184.00000000 4618.41455078   512457.81250000 408242.81250000 
0.15400    17109386.00000000 11094455.00000000 27544736.00000000 4487.91601562   499285.12500000 397746.12500000 
0.15500    16826060.00000000 10915970.00000000 27095100.00000000 4360.83007812   486329.62500000 387414.28125000 
0.15600    16544721.00000000 10738482.00000000 26648066.00000000 4237.31103516   473592.96875000 377251.21875000 
0.15700    16265534.00000000 10562203.00000000 26204366.00000000 4117.35058594   461082.84375000 367272.03125000 
0.15800    15988328.00000000 10387037.00000000 25763634.00000000 4000.91528320   448802.46875000 357465.78125000 
0.15900    15713482.00000000 10213204.00000000 25326478.00000000 3888.07421875   436758.46875000 347850.00000000 
0.16000    15441143.00000000 10040744.00000000 24893140.00000000 3778.71582031   424958.37500000 338419.71875000 
0.16100    15171541.00000000 9869868.00000000 24463528.00000000 3672.96484375   413404.15625000 329181.28125000 
0.16200    14904626.00000000 9700414.00000000 24038502.00000000 3570.71264648   402097.28125000 320134.09375000 
0.16300    14640630.00000000 9532691.00000000 23617520.00000000 3471.89624023   391042.46875000 311289.09375000 
0.16400    14379577.00000000 9366717.00000000 23201300.00000000 3376.56542969   380243.09375000 302640.46875000 
0.16500    14121803.00000000 9202564.00000000 22789634.00000000 3284.61572266   369695.18750000 294193.87500000 
0.16600    13867107.00000000 9040317.00000000 22383270.00000000 3196.04833984   359408.46875000 285946.12500000 
0.16700    13615834.00000000 8879954.00000000 21981708.00000000 3110.68334961   349377.56250000 277903.34375000 
0.16800    13367940.00000000 8721592.00000000 21585404.00000000 3028.57055664   339601.84375000 270060.00000000 
0.16900    13123732.00000000 8565407.00000000 21194572.00000000 2949.64208984   330090.09375000 262422.50000000 
0.17000    12882963.00000000 8411324.00000000 20809446.00000000 2873.78393555   320828.90625000 254986.92187500 
