# SAXS profile: number of points = 501, q_min = 0, q_max = 0.5, delta_q = 0.001
#    q    intensity 
0.00000    162231520.00000000 101202136.00000000 256270304.00000000 116773.64843750 8705226.00000000 6875373.00000000 
0.00100    162183824.00000000 101168864.00000000 256187072.00000000 116726.03125000 8702005.00000000 6872851.50000000 
0.00200    162032000.00000000 101070888.00000000 255938800.00000000 116586.28125000 8692392.00000000 6865298.50000000 
0.00300    161771824.00000000 100908848.00000000 255523568.00000000 116351.37500000 8676481.00000000 6852701.00000000 
0.00400    161399936.00000000 100680672.00000000 254944720.00000000 116024.28906250 8654105.00000000 6835127.50000000 
0.00500    160924256.00000000 100386944.00000000 254200496.00000000 115605.61718750 8625549.00000000 6812643.00000000 
0.00600    160349008.00000000 100032680.00000000 253298464.00000000 115096.75000000 8590728.00000000 6785263.50000000 
0.00700    159667008.00000000 99614440.00000000 252234656.00000000 114498.42187500 8549844.00000000 6753148.50000000 
0.00800    158891728.00000000 99137040.00000000 251016304.00000000 113812.79687500 8502940.00000000 6716241.50000000 
0.00900    158019728.00000000 98598064.00000000 249642352.00000000 113042.13281250 8450293.00000000 6674736.50000000 
0.01000    157053888.00000000 97998280.00000000 248117872.00000000 112189.70312500 8391866.00000000 6628779.00000000 
0.01100    155987568.00000000 97341960.00000000 246449296.00000000 111256.36718750 8327835.00000000 6578418.50000000 
0.01200    154836432.00000000 96628856.00000000 244635664.00000000 110245.02343750 8258583.00000000 6523830.00000000 
0.01300    153594304.00000000 95862216.00000000 242684576.00000000 109159.45312500 8183977.00000000 6465202.50000000 
0.01400    152268896.00000000 95044008.00000000 240601136.00000000 108002.56250000 8104495.50000000 6402610.00000000 
0.01500    150859376.00000000 94173624.00000000 238388080.00000000 106777.15625000 8020179.50000000 6336238.00000000 
0.01600    149376096.00000000 93255768.00000000 236051264.00000000 105487.36718750 7931316.00000000 6266320.50000000 
0.01700    147815024.00000000 92290624.00000000 233597248.00000000 104137.24218750 7838147.00000000 6192986.00000000 
0.01800    146182848.00000000 91282456.00000000 231031552.00000000 102728.39062500 7740877.00000000 6116389.50000000 
0.01900    144483360.00000000 90231552.00000000 228357520.00000000 101266.14062500 7639746.00000000 6036771.50000000 
0.02000    142719024.00000000 89140680.00000000 225584144.00000000 99755.92968750  7535080.00000000 5954297.50000000 
0.02100    140898192.00000000 88013152.00000000 222716304.00000000 98199.71093750  7427068.00000000 5869262.50000000 
0.02200    139018848.00000000 86850640.00000000 219761776.00000000 96601.35156250  7315990.50000000 5781796.50000000 
0.02300    137088384.00000000 85656120.00000000 216724960.00000000 94966.27343750  7202161.50000000 5692187.00000000 
0.02400    135111248.00000000 84431584.00000000 213612432.00000000 93298.25781250  7085806.50000000 5600518.50000000 
0.02500    133091024.00000000 83180960.00000000 210434208.00000000 91601.74218750  6967175.50000000 5507071.50000000 
0.02600    131032720.00000000 81905360.00000000 207192160.00000000 89879.83593750  6846649.00000000 5412102.00000000 
0.02700    128938664.00000000 80608416.00000000 203897568.00000000 88137.32031250  6724396.00000000 5315757.50000000 
0.02800    126815664.00000000 79291784.00000000 200551408.00000000 86378.40625000  6600657.00000000 5218267.00000000 
0.02900    124665240.00000000 77959088.00000000 197167136.00000000 84607.15625000  6475810.00000000 5119866.00000000 
0.03000    122494152.00000000 76613032.00000000 193747936.00000000 82827.60156250  6350072.50000000 5020776.50000000 
0.03100    120304720.00000000 75256808.00000000 190302912.00000000 81042.89843750  6223736.00000000 4921211.00000000 
0.03200    118103408.00000000 73889944.00000000 186830784.00000000 79257.96875000  6097024.50000000 4821253.50000000 
0.03300    115891632.00000000 72517720.00000000 183347120.00000000 77475.03125000  5970141.50000000 4721259.00000000 
0.03400    113675728.00000000 71140768.00000000 179853808.00000000 75698.81250000  5843397.50000000 4621370.00000000 
0.03500    111457464.00000000 69762976.00000000 176356624.00000000 73932.59375000  5716986.50000000 4521636.00000000 
0.03600    109242032.00000000 68386400.00000000 172864608.00000000 72177.78125000  5591178.00000000 4422360.00000000 
0.03700    107033216.00000000 67013056.00000000 169382560.00000000 70439.57812500  5466136.00000000 4323746.00000000 
0.03800    104833056.00000000 65645968.00000000 165913200.00000000 68719.48437500  5342132.00000000 4225926.50000000 
0.03900    102646424.00000000 64286444.00000000 162464144.00000000 67021.16406250  5219272.50000000 4128970.25000000 
0.04000    100476720.00000000 62935772.00000000 159038640.00000000 65346.37500000  5097771.50000000 4033127.00000000 
0.04100    98326368.00000000 61597780.00000000 155648000.00000000 63697.68359375  4977830.50000000 3938465.25000000 
0.04200    96199296.00000000 60273312.00000000 152289584.00000000 62077.77343750  4859636.50000000 3845132.75000000 
0.04300    94096584.00000000 58964108.00000000 148970608.00000000 60487.81250000  4743246.50000000 3753298.25000000 
0.04400    92022624.00000000 57672064.00000000 145697456.00000000 58929.75781250  4628936.50000000 3663003.75000000 
0.04500    89978416.00000000 56398692.00000000 142470912.00000000 57405.53125000  4516688.50000000 3574398.50000000 
0.04600    87967936.00000000 55145228.00000000 139297024.00000000 55915.77734375  4406704.00000000 3487529.75000000 
0.04700    85992824.00000000 53912764.00000000 136178016.00000000 54462.31250000  4299061.00000000 3402501.25000000 
0.04800    84054816.00000000 52703612.00000000 133115304.00000000 53045.92968750  4193848.00000000 3319381.00000000 
0.04900    82154776.00000000 51518576.00000000 130113992.00000000 51667.03906250  4091118.00000000 3238216.75000000 
0.05000    80296304.00000000 50358340.00000000 127176520.00000000 50326.82812500  3990987.00000000 3159116.50000000 
0.05100    78478976.00000000 49224092.00000000 124306120.00000000 49025.36718750  3893442.25000000 3082060.00000000 
0.05200    76705320.00000000 48116424.00000000 121502032.00000000 47762.78515625  3798562.00000000 3007090.50000000 
0.05300    74976608.00000000 47036092.00000000 118768344.00000000 46539.16406250  3706425.00000000 2934271.50000000 
0.05400    73292288.00000000 45983876.00000000 116106248.00000000 45355.01171875  3616968.25000000 2863556.25000000 
0.05500    71653808.00000000 44960404.00000000 113516328.00000000 44209.20703125  3530250.00000000 2795004.00000000 
0.05600    70061632.00000000 43965876.00000000 110999528.00000000 43101.96484375  3446221.75000000 2728574.50000000 
0.05700    68517016.00000000 43000224.00000000 108556944.00000000 42032.82421875  3364914.25000000 2664331.75000000 
0.05800    67020036.00000000 42063848.00000000 106188800.00000000 41000.37500000  3286301.25000000 2602180.50000000 
0.05900    65570224.00000000 41156872.00000000 103895192.00000000 40005.28125000  3210342.00000000 2542131.75000000 
0.06000    64166316.00000000 40279468.00000000 101676464.00000000 39045.28515625  3136999.25000000 2484164.25000000 
0.06100    62810908.00000000 39431792.00000000 99532200.00000000 38120.34765625  3066236.00000000 2428214.50000000 
0.06200    61501428.00000000 38612876.00000000 97461800.00000000 37229.04296875  2997999.50000000 2374275.75000000 
0.06300    60238412.00000000 37823524.00000000 95465112.00000000 36370.91796875  2932264.75000000 2322305.50000000 
0.06400    59021912.00000000 37063264.00000000 93540328.00000000 35543.80859375  2868894.00000000 2272221.50000000 
0.06500    57849664.00000000 36330800.00000000 91687424.00000000 34747.30859375  2807869.75000000 2223981.50000000 
0.06600    56721772.00000000 35626096.00000000 89904272.00000000 33979.93359375  2749115.50000000 2177540.75000000 
0.06700    55637112.00000000 34948496.00000000 88189680.00000000 33240.60937500  2692560.00000000 2132852.00000000 
0.06800    54595140.00000000 34298140.00000000 86543856.00000000 32527.83789062  2638091.00000000 2089822.37500000 
0.06900    53594472.00000000 33673876.00000000 84962512.00000000 31840.13476562  2585637.75000000 2048404.25000000 
0.07000    52633952.00000000 33075236.00000000 83446648.00000000 31176.83789062  2535154.75000000 2008521.50000000 
0.07100    51712844.00000000 32501416.00000000 81991552.00000000 30535.92968750  2486509.50000000 1970113.12500000 
0.07200    50829116.00000000 31951264.00000000 80597056.00000000 29916.60937500  2439629.00000000 1933078.50000000 
0.07300    49982152.00000000 31424360.00000000 79260560.00000000 29317.37695312  2394429.75000000 1897418.25000000 
0.07400    49170332.00000000 30919974.00000000 77980952.00000000 28737.49218750  2350808.50000000 1862999.37500000 
0.07500    48392324.00000000 30436916.00000000 76754984.00000000 28174.73437500  2308700.50000000 1829776.12500000 
0.07600    47646396.00000000 29974598.00000000 75579976.00000000 27628.83398438  2268014.50000000 1797675.37500000 
0.07700    46931504.00000000 29532168.00000000 74454848.00000000 27098.17968750  2228645.25000000 1766647.00000000 
0.07800    46246592.00000000 29108514.00000000 73378032.00000000 26582.21484375  2190541.25000000 1736588.87500000 
0.07900    45589396.00000000 28702804.00000000 72344968.00000000 26079.31445312  2153561.00000000 1707461.37500000 
0.08000    44958852.00000000 28314206.00000000 71354952.00000000 25588.74218750  2117693.25000000 1679203.50000000 
0.08100    44353916.00000000 27941988.00000000 70405848.00000000 25109.83984375  2082853.00000000 1651742.00000000 
0.08200    43772236.00000000 27584810.00000000 69494968.00000000 24641.47460938  2048911.12500000 1625019.62500000 
0.08300    43213624.00000000 27242166.00000000 68618736.00000000 24182.80859375  2015848.50000000 1598994.75000000 
0.08400    42675636.00000000 26912814.00000000 67776824.00000000 23733.25000000  1983592.87500000 1573607.37500000 
0.08500    42157396.00000000 26596364.00000000 66966588.00000000 23292.02734375  1952069.25000000 1548784.00000000 
0.08600    41657128.00000000 26291816.00000000 66185696.00000000 22858.60742188  1921221.50000000 1524501.25000000 
0.08700    41174560.00000000 25997980.00000000 65431684.00000000 22432.28710938  1890988.50000000 1500723.00000000 
0.08800    40706900.00000000 25714554.00000000 64703456.00000000 22012.60546875  1861296.25000000 1477376.37500000 
0.08900    40254456.00000000 25440334.00000000 63998576.00000000 21599.56054688  1832173.75000000 1454433.75000000 
0.09000    39815088.00000000 25174708.00000000 63315440.00000000 21192.29296875  1803479.87500000 1431877.37500000 
0.09100    39388472.00000000 24916966.00000000 62651720.00000000 20790.42187500  1775214.75000000 1409645.12500000 
0.09200    38972036.00000000 24666530.00000000 62005568.00000000 20393.76562500  1747367.12500000 1387716.75000000 
0.09300    38566588.00000000 24422358.00000000 61375432.00000000 20002.50781250  1719873.62500000 1366085.37500000 
0.09400    38169772.00000000 24184124.00000000 60760232.00000000 19616.08007812  1692680.25000000 1344687.50000000 
0.09500    37781040.00000000 23951036.00000000 60157956.00000000 19234.19531250  1665806.00000000 1323537.25000000 
0.09600    37400020.00000000 23722612.00000000 59567256.00000000 18856.87304688  1639223.62500000 1302594.87500000 
0.09700    37025428.00000000 23498428.00000000 58987008.00000000 18484.52734375  1612881.37500000 1281861.12500000 
0.09800    36656036.00000000 23277422.00000000 58415164.00000000 18116.27929688  1586794.75000000 1261296.12500000 
0.09900    36291872.00000000 23059738.00000000 57851652.00000000 17752.86914062  1560937.37500000 1240905.25000000 
0.10000    35932052.00000000 22844588.00000000 57294720.00000000 17393.75781250  1535285.37500000 1220683.00000000 
0.10100    35575816.00000000 22631532.00000000 56742932.00000000 17039.29882812  1509832.25000000 1200605.00000000 
0.10200    35222376.00000000 22420460.00000000 56196404.00000000 16689.43359375  1484582.37500000 1180688.25000000 
0.10300    34871640.00000000 22210638.00000000 55653408.00000000 16344.34765625  1459528.25000000 1160905.12500000 
0.10400    34523036.00000000 22002000.00000000 55113420.00000000 16003.81542969  1434673.37500000 1141270.75000000 
0.10500    34175912.00000000 21794066.00000000 54575756.00000000 15668.34960938  1410004.37500000 1121780.50000000 
0.10600    33829768.00000000 21586768.00000000 54039288.00000000 15337.67382812  1385518.87500000 1102417.62500000 
0.10700    33485040.00000000 21379544.00000000 53504260.00000000 15012.13281250  1361238.00000000 1083205.62500000 
0.10800    33140290.00000000 21172400.00000000 52969596.00000000 14691.48046875  1337137.50000000 1064142.00000000 
0.10900    32796174.00000000 20965366.00000000 52435184.00000000 14376.13574219  1313250.37500000 1045232.12500000 
0.11000    32452066.00000000 20757748.00000000 51900016.00000000 14066.04980469  1289565.00000000 1026463.18750000 
0.11100    32107552.00000000 20549660.00000000 51364140.00000000 13761.31152344  1266094.50000000 1007856.00000000 
0.11200    31762864.00000000 20341152.00000000 50827564.00000000 13461.84667969  1242831.87500000 989409.56250000 
0.11300    31417748.00000000 20131938.00000000 50289796.00000000 13167.80175781  1219798.25000000 971126.56250000 
0.11400    31072062.00000000 19921982.00000000 49750016.00000000 12879.45703125  1196998.75000000 953036.12500000 
0.11500    30725634.00000000 19711106.00000000 49208944.00000000 12596.38574219  1174432.62500000 935103.68750000 
0.11600    30378770.00000000 19499284.00000000 48666688.00000000 12318.87988281  1152106.87500000 917362.37500000 
0.11700    30031216.00000000 19286746.00000000 48122784.00000000 12046.86132812  1130041.12500000 899819.00000000 
0.11800    29682556.00000000 19073310.00000000 47576812.00000000 11780.18945312  1108214.37500000 882466.00000000 
0.11900    29333428.00000000 18858888.00000000 47029472.00000000 11519.21093750  1086664.12500000 865315.31250000 
0.12000    28983736.00000000 18643552.00000000 46480292.00000000 11263.40527344  1065383.62500000 848371.75000000 
0.12100    28633350.00000000 18427662.00000000 45929848.00000000 11013.07031250  1044372.81250000 831635.87500000 
0.12200    28282270.00000000 18210734.00000000 45378356.00000000 10767.94140625  1023635.18750000 815113.12500000 
0.12300    27931024.00000000 17993142.00000000 44824840.00000000 10527.95703125  1003178.56250000 798816.56250000 
0.12400    27579356.00000000 17774874.00000000 44270360.00000000 10293.14062500  983011.56250000 782739.87500000 
0.12500    27227212.00000000 17556070.00000000 43715104.00000000 10063.28125000  963129.68750000 766885.00000000 
0.12600    26875268.00000000 17336798.00000000 43159356.00000000 9838.44140625   943536.43750000 751255.50000000 
0.12700    26522982.00000000 17116808.00000000 42602296.00000000 9618.18359375   924236.18750000 735861.75000000 
0.12800    26171022.00000000 16896818.00000000 42045432.00000000 9402.52441406   905229.81250000 720686.93750000 
0.12900    25819014.00000000 16676394.00000000 41488264.00000000 9191.55859375   886517.43750000 705754.62500000 
0.13000    25467650.00000000 16455897.00000000 40931480.00000000 8984.84472656   868098.62500000 691048.56250000 
0.13100    25116632.00000000 16235268.00000000 40374584.00000000 8782.29882812   849971.50000000 676574.87500000 
0.13200    24766358.00000000 16014658.00000000 39818604.00000000 8583.98730469   832131.56250000 662333.25000000 
0.13300    24416862.00000000 15794243.00000000 39263096.00000000 8389.52734375   814583.06250000 648326.56250000 
0.13400    24068222.00000000 15573940.00000000 38709156.00000000 8198.90136719   797323.56250000 634541.75000000 
0.13500    23720824.00000000 15354188.00000000 38156176.00000000 8011.95703125   780351.87500000 620985.31250000 
0.13600    23374462.00000000 15134813.00000000 37604852.00000000 7828.58740234   763661.31250000 607657.06250000 
0.13700    23029420.00000000 14915940.00000000 37055592.00000000 7648.60449219   747248.93750000 594548.56250000 
0.13800    22685852.00000000 14697810.00000000 36507684.00000000 7471.98046875   731109.06250000 581664.18750000 
0.13900    22344268.00000000 14480448.00000000 35962728.00000000 7298.54589844   715243.87500000 568990.56250000 
0.14000    22004292.00000000 14263958.00000000 35420424.00000000 7128.16210938   699643.31250000 556545.81250000 
0.14100    21666204.00000000 14048510.00000000 34880076.00000000 6960.79687500   684318.81250000 544305.06250000 
0.14200    21330278.00000000 13834051.00000000 34343788.00000000 6796.35009766   669245.93750000 532275.56250000 
0.14300    20996428.00000000 13620889.00000000 33810252.00000000 6634.70898438   654435.81250000 520450.18750000 
0.14400    20664776.00000000 13408887.00000000 33279940.00000000 6475.79736328   639871.56250000 508827.87500000 
0.14500    20335710.00000000 13198283.00000000 32753424.00000000 6319.62988281   625558.87500000 497412.50000000 
0.14600    20009080.00000000 12989130.00000000 32230764.00000000 6166.09228516   611490.87500000 486192.68750000 
0.14700    19685270.00000000 12781566.00000000 31712080.00000000 6015.16357422   597669.50000000 475164.28125000 
0.14800    19363880.00000000 12575613.00000000 31197754.00000000 5866.81298828   584078.12500000 464322.06250000 
0.14900    19045644.00000000 12371317.00000000 30687780.00000000 5720.96582031   570722.25000000 453673.65625000 
0.15000    18730200.00000000 12168802.00000000 30182332.00000000 5577.65576172   557594.43750000 443209.31250000 
0.15100    18418006.00000000 11968025.00000000 29681890.00000000 5436.80273438   544700.00000000 432927.81250000 
0.15200    18108792.00000000 11769303.00000000 29186060.00000000 5298.59326172   532029.93750000 422826.71875000 
0.15300    17802932.00000000 11572658.00000000 28695376.00000000 5162.77441406   519578.46875000 412902.81250000 
0.15400    17500272.00000000 11377765.00000000 28210052.00000000 5029.52636719   507340.90625000 403150.46875000 
0.15500    17200966.00000000 11185075.00000000 27729786.00000000 4898.85205078   495321.90625000 393573.75000000 
0.15600    16905162.00000000 10994677.00000000 27255082.00000000 4770.67480469   483517.50000000 384162.81250000 
0.15700    16613203.00000000 10806374.00000000 26785992.00000000 4645.15332031   471924.31250000 374924.18750000 
0.15800    16324387.00000000 10620157.00000000 26322520.00000000 4522.17578125   460534.12500000 365853.59375000 
0.15900    16039229.00000000 10436360.00000000 25864820.00000000 4401.83593750   449361.00000000 356941.78125000 
0.16000    15757846.00000000 10254842.00000000 25412776.00000000 4284.19433594   438382.18750000 348193.50000000 
0.16100    15480132.00000000 10075632.00000000 24966876.00000000 4169.26171875   427618.93750000 339614.09375000 
0.16200    15206275.00000000 9898932.00000000 24526836.00000000 4056.99096680   417050.90625000 331186.43750000 
0.16300    14936244.00000000 9724582.00000000 24092774.00000000 3947.42675781   406682.40625000 322922.28125000 
0.16400    14669839.00000000 9552665.00000000 23664886.00000000 3840.66528320   396516.21875000 314812.34375000 
0.16500    14407384.00000000 9383062.00000000 23243084.00000000 3736.67382812   386541.46875000 306860.09375000 
0.16600    14148774.00000000 9216076.00000000 22827460.00000000 3635.43945312   376769.59375000 299060.71875000 
0.16700    13893933.00000000 9051561.00000000 22418004.00000000 3537.02441406   367183.62500000 291413.40625000 
0.16800    13643084.00000000 8889453.00000000 22014706.00000000 3441.38647461   357792.40625000 283912.84375000 
0.16900    13396194.00000000 8729789.00000000 21617736.00000000 3348.56054688   348596.28125000 276568.21875000 
0.17000    13153040.00000000 8572603.00000000 21226742.00000000 3258.47412109   339585.90625000 269374.62500000 
