# SAXS profile: number of points = 501, q_min = 0, q_max = 0.5, delta_q = 0.001
#    q    intensity 
0.00000    162231840.00000000 101202448.00000000 256270704.00000000 103630.75781250 8200697.50000000 6476890.00000000 
0.00100    162194976.00000000 101176584.00000000 256205680.00000000 103596.19531250 8198327.50000000 6475042.00000000 
0.00200    162078224.00000000 101101384.00000000 256014080.00000000 103496.26562500 8191168.50000000 6469387.00000000 
0.00300    161879056.00000000 100976560.00000000 255695744.00000000 103327.83593750 8179239.50000000 6460060.50000000 
0.00400    161591184.00000000 100800040.00000000 255246800.00000000 103093.16406250 8162570.00000000 6446928.50000000 
0.00500    161222736.00000000 100574528.00000000 254673360.00000000 102792.00000000 8141207.00000000 6430151.00000000 
0.00600    160777280.00000000 100300096.00000000 253974896.00000000 102425.73437500 8115169.00000000 6409717.50000000 
0.00700    160247552.00000000 99978000.00000000 253151760.00000000 101995.09375000 8084541.00000000 6385649.00000000 
0.00800    159641088.00000000 99607712.00000000 252205568.00000000 101500.46093750 8049342.50000000 6358050.00000000 
0.00900    158962640.00000000 99190248.00000000 251138384.00000000 100943.21875000 8009718.50000000 6326872.50000000 
0.01000    158209152.00000000 98726312.00000000 249952176.00000000 100325.24218750 7965708.50000000 6292324.00000000 
0.01100    157379440.00000000 98214744.00000000 248650496.00000000 99647.13281250  7917401.00000000 6254384.00000000 
0.01200    156475456.00000000 97658512.00000000 247233024.00000000 98910.77343750  7864982.00000000 6213145.50000000 
0.01300    155498384.00000000 97058656.00000000 245705040.00000000 98117.98437500  7808388.50000000 6168691.50000000 
0.01400    154456160.00000000 96416592.00000000 244066816.00000000 97270.14843750  7747853.00000000 6121154.00000000 
0.01500    153345360.00000000 95733072.00000000 242322944.00000000 96369.56250000  7683479.50000000 6070589.00000000 
0.01600    152167296.00000000 95008720.00000000 240475776.00000000 95417.57031250  7615394.00000000 6017111.00000000 
0.01700    150926704.00000000 94244680.00000000 238529344.00000000 94417.46875000  7543731.50000000 5960784.50000000 
0.01800    149625040.00000000 93443000.00000000 236486816.00000000 93370.06250000  7468662.50000000 5901747.00000000 
0.01900    148264064.00000000 92606432.00000000 234350208.00000000 92279.03906250  7390259.50000000 5840124.50000000 
0.02000    146846032.00000000 91732816.00000000 232125024.00000000 91145.53906250  7308825.50000000 5776099.00000000 
0.02100    145373808.00000000 90826152.00000000 229814864.00000000 89971.49218750  7224372.00000000 5709701.00000000 
0.02200    143850064.00000000 89887288.00000000 227421744.00000000 88761.35937500  7137057.00000000 5641107.00000000 
0.02300    142278016.00000000 88918648.00000000 224953600.00000000 87516.65625000  7047165.00000000 5570375.50000000 
0.02400    140658880.00000000 87920232.00000000 222411248.00000000 86238.60156250  6954816.00000000 5497733.00000000 
0.02500    138995840.00000000 86893912.00000000 219798320.00000000 84932.21093750  6860100.50000000 5423243.50000000 
0.02600    137291888.00000000 85843232.00000000 217121696.00000000 83597.79687500  6763335.50000000 5347106.50000000 
0.02700    135549120.00000000 84768096.00000000 214384832.00000000 82238.81250000  6664561.50000000 5269428.50000000 
0.02800    133771592.00000000 83670056.00000000 211592128.00000000 80858.61718750  6563997.00000000 5190345.00000000 
0.02900    131961472.00000000 82552872.00000000 208746432.00000000 79458.65625000  6461839.50000000 5109928.50000000 
0.03000    130120288.00000000 81415880.00000000 205852448.00000000 78041.95312500  6358290.50000000 5028443.00000000 
0.03100    128253576.00000000 80261304.00000000 202916784.00000000 76611.19531250  6253491.50000000 4945927.00000000 
0.03200    126361944.00000000 79092736.00000000 199941760.00000000 75169.57031250  6147543.50000000 4862574.00000000 
0.03300    124448600.00000000 77910016.00000000 196933216.00000000 73718.47656250  6040822.00000000 4778502.50000000 
0.03400    122517000.00000000 76715960.00000000 193895504.00000000 72261.20312500  5933270.50000000 4693845.50000000 
0.03500    120569088.00000000 75510696.00000000 190829984.00000000 70799.36718750  5825206.00000000 4608711.00000000 
0.03600    118609040.00000000 74297432.00000000 187745632.00000000 69335.73437500  5716699.50000000 4523291.50000000 
0.03700    116637488.00000000 73075808.00000000 184643904.00000000 67871.86718750  5607974.00000000 4437612.00000000 
0.03800    114658240.00000000 71849448.00000000 181526096.00000000 66411.52343750  5499146.50000000 4351818.00000000 
0.03900    112674504.00000000 70619592.00000000 178401248.00000000 64955.49609375  5390383.50000000 4266111.00000000 
0.04000    110687496.00000000 69387976.00000000 175274496.00000000 63506.26171875  5281851.50000000 4180548.50000000 
0.04100    108700416.00000000 68155424.00000000 172142224.00000000 62066.46875000  5173659.00000000 4095251.00000000 
0.04200    106715880.00000000 66922904.00000000 169016176.00000000 60637.00781250  5065932.50000000 4010337.00000000 
0.04300    104736144.00000000 65693664.00000000 165895920.00000000 59220.44531250  4958907.50000000 3925924.75000000 
0.04400    102763840.00000000 64467916.00000000 162785168.00000000 57818.00000000  4852622.00000000 3842062.50000000 
0.04500    100800256.00000000 63247804.00000000 159688448.00000000 56431.09765625  4747218.50000000 3758895.25000000 
0.04600    98847064.00000000 62033340.00000000 156609296.00000000 55061.95312500  4642765.00000000 3676498.25000000 
0.04700    96908608.00000000 60827088.00000000 153550000.00000000 53711.74218750  4539470.50000000 3594961.75000000 
0.04800    94984568.00000000 59629520.00000000 150515376.00000000 52381.21484375  4437337.00000000 3514356.00000000 
0.04900    93077728.00000000 58442700.00000000 147505040.00000000 51072.58203125  4336553.00000000 3434752.25000000 
0.05000    91190512.00000000 57266648.00000000 144525280.00000000 49786.23046875  4237165.50000000 3356263.00000000 
0.05100    89322624.00000000 56102920.00000000 141578192.00000000 48523.40625000  4139229.75000000 3278906.00000000 
0.05200    87477808.00000000 54952540.00000000 138665024.00000000 47284.82812500  4042816.25000000 3202742.75000000 
0.05300    85657008.00000000 53816600.00000000 135788416.00000000 46071.17968750  3948103.25000000 3127870.75000000 
0.05400    83860240.00000000 52695616.00000000 132950824.00000000 44883.37500000  3855007.50000000 3054290.25000000 
0.05500    82091216.00000000 51590608.00000000 130153344.00000000 43722.42578125  3763660.00000000 2982079.50000000 
0.05600    80348808.00000000 50502468.00000000 127399728.00000000 42587.60156250  3674127.00000000 2911298.00000000 
0.05700    78634680.00000000 49432040.00000000 124690544.00000000 41480.44531250  3586419.50000000 2841914.00000000 
0.05800    76951256.00000000 48379284.00000000 122027928.00000000 40400.64843750  3500570.25000000 2774021.25000000 
0.05900    75298320.00000000 47344840.00000000 119413464.00000000 39348.89453125  3416644.75000000 2707592.75000000 
0.06000    73676280.00000000 46330532.00000000 116846648.00000000 38324.39062500  3334594.25000000 2642686.00000000 
0.06100    72086360.00000000 45335060.00000000 114331872.00000000 37328.37890625  3254513.25000000 2579330.00000000 
0.06200    70529544.00000000 44360112.00000000 111867144.00000000 36360.46093750  3176391.75000000 2517461.50000000 
0.06300    69005048.00000000 43405796.00000000 109455000.00000000 35419.62109375  3100244.25000000 2457155.25000000 
0.06400    67514904.00000000 42471936.00000000 107095720.00000000 34506.51171875  3026022.75000000 2398389.00000000 
0.06500    66059228.00000000 41558824.00000000 104789528.00000000 33620.87500000  2953785.75000000 2341203.25000000 
0.06600    64636928.00000000 40667472.00000000 102537456.00000000 32761.69921875  2883508.25000000 2285525.00000000 
0.06700    63249204.00000000 39797004.00000000 100339680.00000000 31929.49023438  2815156.50000000 2231363.75000000 
0.06800    61896156.00000000 38948148.00000000 98195944.00000000 31123.24414062  2748747.25000000 2178730.00000000 
0.06900    60577736.00000000 38121004.00000000 96107888.00000000 30342.83203125  2684249.00000000 2127607.25000000 
0.07000    59293700.00000000 37315212.00000000 94073576.00000000 29587.31835938  2621608.25000000 2077985.12500000 
0.07100    58044032.00000000 36531108.00000000 92093192.00000000 28856.41992188  2560825.00000000 2029790.00000000 
0.07200    56828548.00000000 35768156.00000000 90167536.00000000 28149.36718750  2501865.50000000 1983083.37500000 
0.07300    55647300.00000000 35026708.00000000 88295128.00000000 27465.65820312  2444715.25000000 1937776.87500000 
0.07400    54499496.00000000 34305904.00000000 86476304.00000000 26804.43359375  2389293.50000000 1893838.62500000 
0.07500    53385196.00000000 33606708.00000000 84709704.00000000 26165.36718750  2335589.00000000 1851269.00000000 
0.07600    52303624.00000000 32928310.00000000 82996464.00000000 25547.46093750  2283562.00000000 1810014.87500000 
0.07700    51254680.00000000 32269642.00000000 81334720.00000000 24949.67968750  2233177.75000000 1770066.50000000 
0.07800    50237116.00000000 31631338.00000000 79722232.00000000 24371.86328125  2184357.50000000 1731360.00000000 
0.07900    49251148.00000000 31012798.00000000 78159712.00000000 23813.05078125  2137107.75000000 1693868.62500000 
0.08000    48295928.00000000 30413688.00000000 76647120.00000000 23272.47070312  2091325.62500000 1657572.50000000 
0.08100    47370840.00000000 29834064.00000000 75182344.00000000 22749.69531250  2046990.25000000 1622440.37500000 
0.08200    46475420.00000000 29272630.00000000 73764320.00000000 22243.23828125  2004046.87500000 1588415.62500000 
0.08300    45608536.00000000 28729980.00000000 72391376.00000000 21753.11132812  1962455.50000000 1555433.87500000 
0.08400    44769664.00000000 28204800.00000000 71064728.00000000 21278.20898438  1922163.75000000 1523520.50000000 
0.08500    43958368.00000000 27697188.00000000 69780480.00000000 20817.97460938  1883128.37500000 1492577.12500000 
0.08600    43173320.00000000 27206412.00000000 68539432.00000000 20371.73046875  1845306.00000000 1462615.75000000 
0.08700    42414396.00000000 26732366.00000000 67339856.00000000 19938.72656250  1808621.37500000 1433561.87500000 
0.08800    41680712.00000000 26274094.00000000 66180036.00000000 19518.47656250  1773054.87500000 1405382.00000000 
0.08900    40971100.00000000 25831452.00000000 65059076.00000000 19109.79882812  1738550.00000000 1378071.50000000 
0.09000    40284640.00000000 25404016.00000000 63975308.00000000 18712.95507812  1705062.62500000 1351548.75000000 
0.09100    39621504.00000000 24991088.00000000 62928300.00000000 18326.67773438  1672531.87500000 1325807.62500000 
0.09200    38979332.00000000 24592062.00000000 61916068.00000000 17950.45507812  1640951.50000000 1300812.87500000 
0.09300    38359504.00000000 24206794.00000000 60938092.00000000 17584.40234375  1610239.62500000 1276514.12500000 
0.09400    37759060.00000000 23834368.00000000 59992260.00000000 17227.02734375  1580368.12500000 1252898.87500000 
0.09500    37178420.00000000 23474720.00000000 59077856.00000000 16878.82421875  1551296.12500000 1229914.00000000 
0.09600    36616436.00000000 23126838.00000000 58193116.00000000 16538.50976562  1523004.75000000 1207544.75000000 
0.09700    36072256.00000000 22790482.00000000 57337772.00000000 16206.17187500  1495432.25000000 1185764.37500000 
0.09800    35545484.00000000 22465330.00000000 56509784.00000000 15881.32128906  1468547.75000000 1164527.00000000 
0.09900    35034936.00000000 22150914.00000000 55708080.00000000 15563.40625000  1442323.62500000 1143819.87500000 
0.10000    34540300.00000000 21846380.00000000 54931416.00000000 15252.29199219  1416723.12500000 1123609.12500000 
0.10100    34060384.00000000 21551512.00000000 54178424.00000000 14947.49609375  1391724.00000000 1103863.87500000 
0.10200    33595008.00000000 21265710.00000000 53448716.00000000 14648.81054688  1367293.62500000 1084585.25000000 
0.10300    33142640.00000000 20988836.00000000 52740608.00000000 14355.97949219  1343381.87500000 1065715.87500000 
0.10400    32703496.00000000 20719920.00000000 52053440.00000000 14068.68261719  1319989.00000000 1047264.87500000 
0.10500    32276628.00000000 20459058.00000000 51385540.00000000 13786.73535156  1297081.87500000 1029202.43750000 
0.10600    31861182.00000000 20205482.00000000 50735908.00000000 13509.89648438  1274625.75000000 1011487.00000000 
0.10700    31456512.00000000 19958834.00000000 50104088.00000000 13238.06542969  1252628.50000000 994140.50000000 
0.10800    31062316.00000000 19718920.00000000 49488432.00000000 12970.88769531  1231035.75000000 977120.87500000 
0.10900    30677932.00000000 19485062.00000000 48888332.00000000 12708.57714844  1209849.12500000 960416.00000000 
0.11000    30302496.00000000 19257180.00000000 48303084.00000000 12450.54003906  1189032.75000000 944017.50000000 
0.11100    29936058.00000000 19034746.00000000 47731780.00000000 12197.01953125  1168602.00000000 927905.43750000 
0.11200    29577292.00000000 18817602.00000000 47172908.00000000 11947.79492188  1148524.62500000 912067.00000000 
0.11300    29226574.00000000 18604794.00000000 46626148.00000000 11702.66699219  1128770.62500000 896499.93750000 
0.11400    28882636.00000000 18396448.00000000 46090336.00000000 11461.80078125  1109330.00000000 881176.18750000 
0.11500    28545450.00000000 18192714.00000000 45565728.00000000 11224.81542969  1090212.75000000 866106.93750000 
0.11600    28214696.00000000 17992508.00000000 45050532.00000000 10991.92675781  1071393.62500000 851273.06250000 
0.11700    27889310.00000000 17795790.00000000 44544604.00000000 10762.95019531  1052870.50000000 836654.50000000 
0.11800    27569428.00000000 17602464.00000000 44046840.00000000 10537.76367188  1034611.87500000 822266.00000000 
0.11900    27254614.00000000 17412068.00000000 43556560.00000000 10316.45214844  1016623.18750000 808071.50000000 
0.12000    26944434.00000000 17224484.00000000 43073644.00000000 10098.88378906  998906.12500000 794087.81250000 
0.12100    26638354.00000000 17039272.00000000 42597580.00000000 9885.20800781   981438.68750000 780309.06250000 
0.12200    26336518.00000000 16856520.00000000 42126844.00000000 9675.18457031   964220.18750000 766709.00000000 
0.12300    26038314.00000000 16675686.00000000 41662140.00000000 9468.81640625   947243.25000000 753302.62500000 
0.12400    25743240.00000000 16496907.00000000 41202548.00000000 9266.25195312   930501.06250000 740077.87500000 
0.12500    25451256.00000000 16319643.00000000 40747404.00000000 9067.16503906   913985.00000000 727029.06250000 
0.12600    25162134.00000000 16144051.00000000 40296448.00000000 8871.75781250   897700.75000000 714150.50000000 
0.12700    24875808.00000000 15969792.00000000 39849296.00000000 8679.90625000   881630.93750000 701441.31250000 
0.12800    24591552.00000000 15796620.00000000 39405252.00000000 8491.61523438   865777.75000000 688895.25000000 
0.12900    24309320.00000000 15624602.00000000 38964396.00000000 8306.81738281   850134.25000000 676512.18750000 
0.13000    24029372.00000000 15453401.00000000 38526460.00000000 8125.51660156   834693.56250000 664292.06250000 
0.13100    23750978.00000000 15283085.00000000 38090420.00000000 7947.61083984   819461.12500000 652226.25000000 
0.13200    23474324.00000000 15113487.00000000 37656864.00000000 7773.04248047   804425.43750000 640302.68750000 
0.13300    23198682.00000000 14944283.00000000 37224788.00000000 7601.91650391   789590.06250000 628538.12500000 
0.13400    22924686.00000000 14775749.00000000 36794924.00000000 7434.06152344   774940.68750000 616924.06250000 
0.13500    22651740.00000000 14607619.00000000 36365940.00000000 7269.51708984   760474.93750000 605444.62500000 
0.13600    22379772.00000000 14439707.00000000 35938604.00000000 7108.14111328   746205.93750000 594111.31250000 
0.13700    22108858.00000000 14272009.00000000 35512276.00000000 6949.89257812   732107.56250000 582915.93750000 
0.13800    21838690.00000000 14104567.00000000 35086548.00000000 6794.74560547   718197.81250000 571860.75000000 
0.13900    21569360.00000000 13937294.00000000 34661968.00000000 6642.69482422   704459.00000000 560937.00000000 
0.14000    21300564.00000000 13770195.00000000 34237788.00000000 6493.59570312   690896.81250000 550150.25000000 
0.14100    21032538.00000000 13603074.00000000 33814464.00000000 6347.37841797   677502.18750000 539490.87500000 
0.14200    20764910.00000000 13435871.00000000 33391610.00000000 6204.15869141   664277.25000000 528963.25000000 
0.14300    20497982.00000000 13268915.00000000 32969318.00000000 6063.60595703   651213.68750000 518557.81250000 
0.14400    20231362.00000000 13101797.00000000 32546754.00000000 5925.85986328   638316.87500000 508279.56250000 
0.14500    19965458.00000000 12934774.00000000 32125186.00000000 5790.73828125   625579.62500000 498123.90625000 
0.14600    19700040.00000000 12767661.00000000 31704074.00000000 5658.35546875   612996.68750000 488093.53125000 
0.14700    19435000.00000000 12600708.00000000 31283090.00000000 5528.50244141   600568.93750000 478178.56250000 
0.14800    19170286.00000000 12433624.00000000 30862620.00000000 5401.11767578   588289.68750000 468383.43750000 
0.14900    18906078.00000000 12266559.00000000 30442370.00000000 5276.13476562   576165.50000000 458703.31250000 
0.15000    18642584.00000000 12099571.00000000 30022690.00000000 5153.54931641   564188.56250000 449138.96875000 
0.15100    18379406.00000000 11932604.00000000 29603560.00000000 5033.35302734   552351.56250000 439686.59375000 
0.15200    18116866.00000000 11765906.00000000 29185054.00000000 4915.40869141   540665.68750000 430349.46875000 
0.15300    17855066.00000000 11599155.00000000 28767286.00000000 4799.70996094   529124.75000000 421123.62500000 
0.15400    17593666.00000000 11432621.00000000 28350090.00000000 4686.12939453   517720.59375000 412003.34375000 
0.15500    17332980.00000000 11266316.00000000 27933634.00000000 4574.76464844   506452.50000000 402996.68750000 
0.15600    17073024.00000000 11100189.00000000 27518094.00000000 4465.40185547   495325.68750000 394092.28125000 
0.15700    16814182.00000000 10934595.00000000 27103756.00000000 4358.07617188   484336.21875000 385302.31250000 
0.15800    16555870.00000000 10769128.00000000 26690448.00000000 4252.81396484   473482.25000000 376614.65625000 
0.15900    16298582.00000000 10604189.00000000 26278484.00000000 4149.50781250   462762.18750000 368039.87500000 
0.16000    16042259.00000000 10439688.00000000 25867746.00000000 4048.14843750   452177.50000000 359565.03125000 
0.16100    15787003.00000000 10275819.00000000 25458824.00000000 3948.73559570   441731.06250000 351198.75000000 
0.16200    15532934.00000000 10112453.00000000 25051178.00000000 3851.16552734   431412.25000000 342938.46875000 
0.16300    15280213.00000000 9949760.00000000 24645684.00000000 3755.44873047   421229.71875000 334780.53125000 
0.16400    15028747.00000000 9787796.00000000 24242170.00000000 3661.61694336   411182.59375000 326731.84375000 
0.16500    14778636.00000000 9626508.00000000 23840554.00000000 3569.61621094   401267.46875000 318791.75000000 
0.16600    14530025.00000000 9466148.00000000 23441422.00000000 3479.39453125   391485.56250000 310953.18750000 
0.16700    14283005.00000000 9306722.00000000 23044604.00000000 3391.01660156   381843.62500000 303224.53125000 
0.16800    14037665.00000000 9148170.00000000 22650232.00000000 3304.40502930   372328.09375000 295600.37500000 
0.16900    13794113.00000000 8990926.00000000 22258678.00000000 3219.59838867   362954.34375000 288086.81250000 
0.17000    13552494.00000000 8834573.00000000 21870110.00000000 3136.56372070   353715.46875000 280681.00000000 
