# SAXS profile: number of points = 501, q_min = 0, q_max = 0.5, delta_q = 0.001
#    q    intensity 
0.00000    162233792.00000000 101201920.00000000 256270752.00000000 102825.96093750 8168818.50000000 6451725.00000000 
0.00100    162191568.00000000 101172928.00000000 256197792.00000000 102790.09375000 8166234.00000000 6449693.00000000 
0.00200    162057936.00000000 101087408.00000000 255979472.00000000 102683.69531250 8158481.50000000 6443554.50000000 
0.00300    161829456.00000000 100945264.00000000 255616960.00000000 102506.50000000 8145574.50000000 6433439.00000000 
0.00400    161507088.00000000 100745512.00000000 255110064.00000000 102258.67187500 8127607.00000000 6419293.50000000 
0.00500    161089360.00000000 100489048.00000000 254459984.00000000 101941.14843750 8104536.50000000 6401158.50000000 
0.00600    160586864.00000000 100177368.00000000 253668016.00000000 101555.27343750 8076452.50000000 6379020.00000000 
0.00700    159990672.00000000 99810880.00000000 252737056.00000000 101101.13281250 8043432.00000000 6353018.00000000 
0.00800    159308464.00000000 99390456.00000000 251667232.00000000 100580.42187500 8005524.50000000 6323183.50000000 
0.00900    158541968.00000000 98917184.00000000 250460864.00000000 99993.73437500  7962776.50000000 6289584.50000000 
0.01000    157692464.00000000 98390616.00000000 249121104.00000000 99342.96875000  7915402.00000000 6252277.50000000 
0.01100    156758816.00000000 97812304.00000000 247650736.00000000 98630.17968750  7863418.00000000 6211397.50000000 
0.01200    155741184.00000000 97183552.00000000 246051696.00000000 97856.64843750  7806976.50000000 6166904.50000000 
0.01300    154645520.00000000 96505792.00000000 244330032.00000000 97023.99218750  7746178.50000000 6119061.50000000 
0.01400    153473664.00000000 95780976.00000000 242486176.00000000 96135.10937500  7681142.00000000 6067904.50000000 
0.01500    152227744.00000000 95009992.00000000 240525536.00000000 95191.25000000  7612124.50000000 6013544.50000000 
0.01600    150908944.00000000 94194168.00000000 238451056.00000000 94195.25781250  7539094.50000000 5956067.00000000 
0.01700    149520640.00000000 93335632.00000000 236268016.00000000 93149.13281250  7462404.50000000 5895676.50000000 
0.01800    148067280.00000000 92435128.00000000 233979328.00000000 92054.89843750  7382115.50000000 5832443.00000000 
0.01900    146547696.00000000 91495904.00000000 231589152.00000000 90915.73437500  7298356.50000000 5766515.00000000 
0.02000    144969904.00000000 90518656.00000000 229106528.00000000 89735.07812500  7211423.50000000 5698050.00000000 
0.02100    143332160.00000000 89504872.00000000 226529696.00000000 88513.83593750  7121423.00000000 5627151.50000000 
0.02200    141641088.00000000 88457792.00000000 223867120.00000000 87255.14843750  7028579.50000000 5554014.00000000 
0.02300    139898144.00000000 87378552.00000000 221123648.00000000 85963.61718750  6933032.50000000 5478802.50000000 
0.02400    138107456.00000000 86268616.00000000 218305776.00000000 84639.73437500  6835000.00000000 5401555.50000000 
0.02500    136271744.00000000 85131504.00000000 215415344.00000000 83288.19531250  6734698.50000000 5322544.50000000 
0.02600    134395200.00000000 83968200.00000000 212460384.00000000 81910.03906250  6632364.00000000 5241950.00000000 
0.02700    132480216.00000000 82781320.00000000 209444688.00000000 80509.61718750  6528059.00000000 5159783.50000000 
0.02800    130530056.00000000 81572712.00000000 206374496.00000000 79088.15625000  6422132.00000000 5076308.50000000 
0.02900    128549792.00000000 80344960.00000000 203255440.00000000 77651.03906250  6314713.00000000 4991653.00000000 
0.03000    126540952.00000000 79099640.00000000 200091616.00000000 76199.50781250  6206044.50000000 4905992.00000000 
0.03100    124508120.00000000 77838416.00000000 196889680.00000000 74735.45312500  6096220.50000000 4819507.00000000 
0.03200    122455144.00000000 76564760.00000000 193654704.00000000 73263.37500000  5985585.50000000 4732238.00000000 
0.03300    120384568.00000000 75279968.00000000 190393344.00000000 71785.92187500  5874270.50000000 4644474.50000000 
0.03400    118299472.00000000 73987512.00000000 187108624.00000000 70304.24218750  5762428.00000000 4556348.00000000 
0.03500    116204424.00000000 72686208.00000000 183806304.00000000 68822.60156250  5650270.00000000 4467911.00000000 
0.03600    114101496.00000000 71380064.00000000 180492224.00000000 67342.51562500  5537997.50000000 4379394.00000000 
0.03700    111995160.00000000 70071168.00000000 177170352.00000000 65865.94531250  5425777.50000000 4290862.50000000 
0.03800    109886840.00000000 68761592.00000000 173847680.00000000 64395.88281250  5313785.50000000 4202523.00000000 
0.03900    107781048.00000000 67452664.00000000 170528000.00000000 62934.67968750  5202162.00000000 4114455.25000000 
0.04000    105679568.00000000 66146636.00000000 167215376.00000000 61484.68750000  5091077.00000000 4026827.00000000 
0.04100    103587168.00000000 64845620.00000000 163915600.00000000 60046.91796875  4980763.00000000 3939803.00000000 
0.04200    101505672.00000000 63551288.00000000 160631056.00000000 58624.63671875  4871277.50000000 3853421.25000000 
0.04300    99437544.00000000 62264484.00000000 157368976.00000000 57218.61328125  4762752.00000000 3767813.25000000 
0.04400    97384840.00000000 60987636.00000000 154129808.00000000 55831.01562500  4655429.00000000 3683090.75000000 
0.04500    95351336.00000000 59721776.00000000 150921424.00000000 54463.44921875  4549341.50000000 3599356.50000000 
0.04600    93338712.00000000 58469188.00000000 147744544.00000000 53116.94531250  4444671.00000000 3516698.25000000 
0.04700    91349096.00000000 57230032.00000000 144605120.00000000 51793.58984375  4341444.00000000 3435229.75000000 
0.04800    89385624.00000000 56007064.00000000 141505408.00000000 50493.92578125  4239884.50000000 3355034.75000000 
0.04900    87449024.00000000 54800904.00000000 138448816.00000000 49219.65234375  4139982.00000000 3276133.50000000 
0.05000    85541712.00000000 53611908.00000000 135436560.00000000 47971.12500000  4041861.50000000 3198650.50000000 
0.05100    83665256.00000000 52442436.00000000 132476112.00000000 46749.44921875  3945634.50000000 3122624.00000000 
0.05200    81821584.00000000 51292680.00000000 129563464.00000000 45555.68750000  3851324.50000000 3048124.25000000 
0.05300    80012424.00000000 50164372.00000000 126704992.00000000 44389.98437500  3758991.75000000 2975173.00000000 
0.05400    78238368.00000000 49057660.00000000 123903568.00000000 43253.62890625  3668740.25000000 2903864.75000000 
0.05500    76501568.00000000 47973500.00000000 121159224.00000000 42145.47265625  3580605.00000000 2834201.00000000 
0.05600    74801912.00000000 46913428.00000000 118473720.00000000 41067.25000000  3494572.25000000 2766248.75000000 
0.05700    73141432.00000000 45877244.00000000 115850512.00000000 40018.76953125  3410730.25000000 2699968.25000000 
0.05800    71520616.00000000 44865520.00000000 113289480.00000000 38999.61718750  3329078.50000000 2635428.75000000 
0.05900    69938920.00000000 43878108.00000000 110790952.00000000 38010.13281250  3249633.25000000 2572618.00000000 
0.06000    68400328.00000000 42916484.00000000 108357032.00000000 37050.41015625  3172413.25000000 2511588.25000000 
0.06100    66901832.00000000 41980244.00000000 105989224.00000000 36119.90234375  3097428.25000000 2452310.75000000 
0.06200    65445728.00000000 41070084.00000000 103685672.00000000 35218.76953125  3024645.75000000 2394768.75000000 
0.06300    64030060.00000000 40185800.00000000 101448488.00000000 34346.14062500  2954092.50000000 2338980.75000000 
0.06400    62656480.00000000 39327888.00000000 99276744.00000000 33501.67968750  2885722.50000000 2284900.25000000 
0.06500    61325172.00000000 38495772.00000000 97172064.00000000 32684.97070312  2819514.00000000 2232566.00000000 
0.06600    60035704.00000000 37689768.00000000 95132632.00000000 31895.33398438  2755466.50000000 2181909.00000000 
0.06700    58787216.00000000 36909332.00000000 93158656.00000000 31132.44921875  2693489.25000000 2132927.75000000 
0.06800    57580208.00000000 36154640.00000000 91250600.00000000 30395.34765625  2633621.75000000 2085568.75000000 
0.06900    56413764.00000000 35425724.00000000 89405744.00000000 29683.33984375  2575773.50000000 2039828.12500000 
0.07000    55287452.00000000 34722184.00000000 87625232.00000000 28995.87304688  2519927.75000000 1995666.00000000 
0.07100    54200496.00000000 34043008.00000000 85907144.00000000 28332.07421875  2466002.75000000 1953010.50000000 
0.07200    53152384.00000000 33388622.00000000 84249816.00000000 27691.03515625  2413946.25000000 1911862.75000000 
0.07300    52142648.00000000 32757806.00000000 82654304.00000000 27071.90234375  2363738.00000000 1872189.37500000 
0.07400    51170344.00000000 32150742.00000000 81117536.00000000 26473.91796875  2315305.75000000 1833891.37500000 
0.07500    50234056.00000000 31566310.00000000 79638256.00000000 25896.16015625  2268572.25000000 1796964.87500000 
0.07600    49333488.00000000 31004230.00000000 78214632.00000000 25337.61718750  2223501.00000000 1761326.00000000 
0.07700    48467072.00000000 30464132.00000000 76846576.00000000 24798.01171875  2180000.25000000 1726956.00000000 
0.07800    47634508.00000000 29944896.00000000 75532336.00000000 24275.68945312  2138032.25000000 1693801.62500000 
0.07900    46833952.00000000 29446158.00000000 74267712.00000000 23770.18750000  2097528.00000000 1661800.50000000 
0.08000    46064608.00000000 28967296.00000000 73053896.00000000 23280.61328125  2058398.50000000 1630897.75000000 
0.08100    45325316.00000000 28507452.00000000 71887728.00000000 22806.16015625  2020586.75000000 1601069.25000000 
0.08200    44615164.00000000 28065964.00000000 70767856.00000000 22345.91796875  1984064.50000000 1572221.75000000 
0.08300    43932580.00000000 27641902.00000000 69691448.00000000 21898.95507812  1948728.00000000 1544322.62500000 
0.08400    43276500.00000000 27234782.00000000 68657320.00000000 21464.80664062  1914514.25000000 1517331.00000000 
0.08500    42645740.00000000 26843918.00000000 67664520.00000000 21042.52343750  1881375.25000000 1491179.75000000 
0.08600    42039172.00000000 26468314.00000000 66710064.00000000 20631.46679688  1849245.00000000 1465844.00000000 
0.08700    41455332.00000000 26107338.00000000 65791532.00000000 20230.79296875  1818053.62500000 1441251.62500000 
0.08800    40893164.00000000 25760212.00000000 64908436.00000000 19839.88476562  1787731.25000000 1417344.25000000 
0.08900    40351704.00000000 25425948.00000000 64057556.00000000 19458.16992188  1758257.25000000 1394112.50000000 
0.09000    39829916.00000000 25104318.00000000 63237668.00000000 19085.17773438  1729550.87500000 1371506.37500000 
0.09100    39325416.00000000 24794280.00000000 62446596.00000000 18720.24609375  1701558.12500000 1349450.25000000 
0.09200    38838760.00000000 24495002.00000000 61683704.00000000 18362.74804688  1674248.25000000 1327926.25000000 
0.09300    38367972.00000000 24206146.00000000 60945332.00000000 18012.23828125  1647542.25000000 1306896.00000000 
0.09400    37911432.00000000 23926788.00000000 60230600.00000000 17668.12890625  1621386.12500000 1286320.00000000 
0.09500    37468520.00000000 23656070.00000000 59538336.00000000 17330.24609375  1595782.12500000 1266146.12500000 
0.09600    37039024.00000000 23393474.00000000 58866028.00000000 16998.32421875  1570646.12500000 1246367.62500000 
0.09700    36620704.00000000 23138528.00000000 58213260.00000000 16671.61132812  1545970.00000000 1226946.00000000 
0.09800    36213176.00000000 22890418.00000000 57576772.00000000 16349.96972656  1521689.12500000 1207836.00000000 
0.09900    35815584.00000000 22648564.00000000 56956532.00000000 16033.33105469  1497774.25000000 1189030.25000000 
0.10000    35426888.00000000 22412688.00000000 56350152.00000000 15721.09375000  1474213.62500000 1170480.75000000 
0.10100    35046064.00000000 22181576.00000000 55756636.00000000 15413.22363281  1450953.75000000 1152174.12500000 
0.10200    34672392.00000000 21955122.00000000 55175120.00000000 15109.53222656  1427978.12500000 1134093.25000000 
0.10300    34305436.00000000 21732950.00000000 54603316.00000000 14809.85351562  1405267.00000000 1116224.00000000 
0.10400    33944020.00000000 21514598.00000000 54041320.00000000 14513.93164062  1382777.25000000 1098519.37500000 
0.10500    33587832.00000000 21299120.00000000 53487120.00000000 14221.84277344  1360537.75000000 1081010.62500000 
0.10600    33235892.00000000 21086600.00000000 52939524.00000000 13933.26367188  1338481.12500000 1063634.75000000 
0.10700    32887764.00000000 20876516.00000000 52398512.00000000 13648.46679688  1316612.75000000 1046411.87500000 
0.10800    32542914.00000000 20668452.00000000 51862356.00000000 13366.97949219  1294927.50000000 1029317.43750000 
0.10900    32200718.00000000 20461936.00000000 51330632.00000000 13089.08886719  1273386.62500000 1012352.68750000 
0.11000    31860988.00000000 20256868.00000000 50802284.00000000 12814.61523438  1252015.62500000 995496.31250000 
0.11100    31523052.00000000 20052896.00000000 50277228.00000000 12543.56738281  1230779.25000000 978754.87500000 
0.11200    31186396.00000000 19849742.00000000 49753656.00000000 12275.99609375  1209691.00000000 962114.62500000 
0.11300    30850902.00000000 19647164.00000000 49231464.00000000 12011.95312500  1188738.62500000 945575.50000000 
0.11400    30516274.00000000 19444910.00000000 48711184.00000000 11751.44531250  1167915.25000000 929138.62500000 
0.11500    30182234.00000000 19242728.00000000 48191112.00000000 11494.35742188  1147225.87500000 912799.50000000 
0.11600    29848240.00000000 19040668.00000000 47671144.00000000 11240.92578125  1126676.37500000 896562.50000000 
0.11700    29514416.00000000 18838524.00000000 47151252.00000000 10991.01074219  1106250.62500000 880425.06250000 
0.11800    29180524.00000000 18636022.00000000 46630852.00000000 10744.72167969  1085960.75000000 864381.12500000 
0.11900    28846300.00000000 18433134.00000000 46110248.00000000 10502.26757812  1065821.87500000 848441.43750000 
0.12000    28511700.00000000 18229954.00000000 45587752.00000000 10263.32128906  1045822.12500000 832614.18750000 
0.12100    28176904.00000000 18026038.00000000 45064640.00000000 10028.37792969  1025982.68750000 816896.18750000 
0.12200    27841466.00000000 17821768.00000000 44540892.00000000 9797.04980469   1006284.37500000 801291.81250000 
0.12300    27505408.00000000 17616660.00000000 44015752.00000000 9569.61328125   986749.12500000 785807.18750000 
0.12400    27168890.00000000 17411034.00000000 43489464.00000000 9346.11425781   967382.37500000 770452.31250000 
0.12500    26831868.00000000 17204804.00000000 42961876.00000000 9126.49316406   948179.25000000 755216.37500000 
0.12600    26494470.00000000 16997858.00000000 42433080.00000000 8910.78320312   929169.75000000 740125.50000000 
0.12700    26156708.00000000 16790544.00000000 41903920.00000000 8699.08007812   910334.12500000 725170.18750000 
0.12800    25818380.00000000 16582744.00000000 41373452.00000000 8491.21191406   891694.43750000 710363.81250000 
0.12900    25480124.00000000 16374279.00000000 40841704.00000000 8287.48730469   873252.81250000 695711.31250000 
0.13000    25141560.00000000 16165529.00000000 40310180.00000000 8087.63769531   855019.25000000 681209.50000000 
0.13100    24802866.00000000 15956414.00000000 39777700.00000000 7891.81201172   836998.75000000 666873.81250000 
0.13200    24464724.00000000 15746991.00000000 39244908.00000000 7699.89697266   819189.75000000 652708.25000000 
0.13300    24126400.00000000 15537438.00000000 38711928.00000000 7511.93847656   801615.62500000 638706.62500000 
0.13400    23788532.00000000 15327759.00000000 38179776.00000000 7327.91699219   784266.12500000 624896.00000000 
0.13500    23451372.00000000 15118054.00000000 37647836.00000000 7147.77246094   767155.75000000 611259.50000000 
0.13600    23114718.00000000 14908368.00000000 37116016.00000000 6971.60351562   750280.43750000 597814.81250000 
0.13700    22779122.00000000 14699090.00000000 36586088.00000000 6799.10253906   733663.43750000 584560.00000000 
0.13800    22444394.00000000 14490041.00000000 36056624.00000000 6630.43847656   717279.56250000 571496.93750000 
0.13900    22110876.00000000 14281426.00000000 35528952.00000000 6465.57421875   701157.25000000 558639.31250000 
0.14000    21778546.00000000 14073306.00000000 35002936.00000000 6304.41894531   685300.37500000 545979.56250000 
0.14100    21448008.00000000 13865892.00000000 34478972.00000000 6146.82128906   669694.62500000 533524.37500000 
0.14200    21119024.00000000 13659118.00000000 33957320.00000000 5992.86914062   654351.50000000 521274.31250000 
0.14300    20791898.00000000 13453289.00000000 33438248.00000000 5842.47119141   639277.12500000 509235.00000000 
0.14400    20466582.00000000 13248416.00000000 32921818.00000000 5695.46435547   624458.25000000 497401.43750000 
0.14500    20143768.00000000 13044546.00000000 32408614.00000000 5551.97509766   609923.93750000 485781.75000000 
0.14600    19823080.00000000 12841924.00000000 31898878.00000000 5411.80322266   595644.81250000 474374.21875000 
0.14700    19504884.00000000 12640631.00000000 31392614.00000000 5274.91894531   581643.06250000 463178.56250000 
0.14800    19189212.00000000 12440679.00000000 30890002.00000000 5141.23779297   567902.75000000 452196.71875000 
0.14900    18876586.00000000 12242205.00000000 30391718.00000000 5010.73925781   554431.50000000 441425.75000000 
0.15000    18566402.00000000 12045315.00000000 29897422.00000000 4883.33105469   541225.93750000 430862.21875000 
0.15100    18259524.00000000 11850017.00000000 29407788.00000000 4758.98046875   528285.50000000 420516.53125000 
0.15200    17955746.00000000 11656601.00000000 28922980.00000000 4637.66308594   515613.62500000 410380.18750000 
0.15300    17655008.00000000 11465013.00000000 28442686.00000000 4519.17089844   503204.00000000 400454.96875000 
0.15400    17357926.00000000 11275194.00000000 27967868.00000000 4403.55615234   491055.68750000 390733.18750000 
0.15500    17064122.00000000 11087493.00000000 27498064.00000000 4290.81591797   479163.03125000 381218.59375000 
0.15600    16773737.00000000 10901733.00000000 27033754.00000000 4180.80664062   467525.12500000 371906.62500000 
0.15700    16487243.00000000 10718135.00000000 26574952.00000000 4073.52514648   456143.56250000 362800.59375000 
0.15800    16204448.00000000 10536815.00000000 26121578.00000000 3968.87280273   445005.18750000 353886.62500000 
0.15900    15925102.00000000 10357616.00000000 25674320.00000000 3866.84838867   434122.15625000 345174.71875000 
0.16000    15649747.00000000 10180732.00000000 25232872.00000000 3767.33544922   423475.00000000 336655.43750000 
0.16100    15378185.00000000 10006142.00000000 24797596.00000000 3670.40722656   413073.12500000 328331.87500000 
0.16200    15110644.00000000 9833943.00000000 24368304.00000000 3575.97875977   402904.25000000 320193.06250000 
0.16300    14847002.00000000 9664214.00000000 23945208.00000000 3483.93090820   392967.46875000 312241.21875000 
0.16400    14587523.00000000 9496758.00000000 23528212.00000000 3394.35717773   383259.68750000 304472.40625000 
0.16500    14331898.00000000 9332000.00000000 23117878.00000000 3307.09887695   373780.65625000 296883.00000000 
0.16600    14080361.00000000 9169439.00000000 22713524.00000000 3222.24755859   364521.56250000 289471.21875000 
0.16700    13832995.00000000 9009541.00000000 22315756.00000000 3139.63427734   355475.75000000 282230.71875000 
0.16800    13589575.00000000 8852056.00000000 21924306.00000000 3059.30908203   346644.96875000 275162.43750000 
0.16900    13350440.00000000 8697343.00000000 21539446.00000000 2981.27514648   338031.03125000 268263.68750000 
0.17000    13115256.00000000 8544934.00000000 21160940.00000000 2905.40454102   329616.75000000 261525.10937500 
