# SAXS profile: number of points = 501, q_min = 0, q_max = 0.5, delta_q = 0.001
#    q    intensity 
0.00000    162236992.00000000 101201872.00000000 256271232.00000000 92855.25781250  7762654.00000000 6130927.50000000 
0.00100    162209104.00000000 101183200.00000000 256225120.00000000 92833.38281250  7761054.00000000 6129668.50000000 
0.00200    162121632.00000000 101127808.00000000 256085120.00000000 92768.03906250  7756182.00000000 6125838.50000000 
0.00300    161975152.00000000 101036320.00000000 255852112.00000000 92658.48437500  7748049.00000000 6119408.00000000 
0.00400    161768480.00000000 100907688.00000000 255526608.00000000 92505.54687500  7736710.00000000 6110454.00000000 
0.00500    161501568.00000000 100742328.00000000 255106944.00000000 92309.67187500  7722113.00000000 6099020.00000000 
0.00600    161175936.00000000 100541680.00000000 254594544.00000000 92070.84375000  7704361.00000000 6084999.00000000 
0.00700    160792112.00000000 100303448.00000000 253990816.00000000 91788.91406250  7683409.00000000 6068535.50000000 
0.00800    160351392.00000000 100031064.00000000 253298480.00000000 91466.00781250  7659364.00000000 6049600.00000000 
0.00900    159852496.00000000 99722008.00000000 252515936.00000000 91100.40625000  7632177.00000000 6028129.50000000 
0.01000    159299040.00000000 99379528.00000000 251644544.00000000 90694.83593750  7601939.50000000 6004350.50000000 
0.01100    158690912.00000000 99002800.00000000 250686096.00000000 90248.29687500  7568697.00000000 5978142.50000000 
0.01200    158028304.00000000 98591456.00000000 249640048.00000000 89762.54687500  7532485.50000000 5949579.00000000 
0.01300    157311216.00000000 98145984.00000000 248510480.00000000 89237.98437500  7493322.00000000 5918753.50000000 
0.01400    156538448.00000000 97668088.00000000 247295984.00000000 88674.96093750  7451293.00000000 5885631.50000000 
0.01500    155716144.00000000 97157248.00000000 245999680.00000000 88075.14062500  7406487.00000000 5850330.50000000 
0.01600    154842528.00000000 96615048.00000000 244623760.00000000 87438.94531250  7358890.50000000 5812834.50000000 
0.01700    153918336.00000000 96042896.00000000 243168688.00000000 86767.35156250  7308667.50000000 5773264.50000000 
0.01800    152946032.00000000 95439720.00000000 241636640.00000000 86061.65625000  7255823.00000000 5731647.00000000 
0.01900    151926704.00000000 94807312.00000000 240030768.00000000 85322.96093750  7200397.50000000 5687981.00000000 
0.02000    150859392.00000000 94145664.00000000 238350976.00000000 84552.03125000  7142570.00000000 5642421.50000000 
0.02100    149749456.00000000 93455992.00000000 236600352.00000000 83750.91406250  7082371.50000000 5594965.50000000 
0.02200    148593120.00000000 92740336.00000000 234781728.00000000 82919.54687500  7019862.50000000 5545698.00000000 
0.02300    147396592.00000000 91997856.00000000 232896128.00000000 82059.51562500  6955112.50000000 5494691.00000000 
0.02400    146158592.00000000 91230264.00000000 230948032.00000000 81173.39062500  6888296.50000000 5442021.00000000 
0.02500    144882352.00000000 90438544.00000000 228936272.00000000 80260.60937500  6819367.00000000 5387736.00000000 
0.02600    143567904.00000000 89622616.00000000 226864624.00000000 79323.17187500  6748550.00000000 5331915.00000000 
0.02700    142217440.00000000 88785216.00000000 224737792.00000000 78363.14843750  6675856.50000000 5274589.50000000 
0.02800    140833104.00000000 87925496.00000000 222555872.00000000 77380.78906250  6601411.00000000 5215968.00000000 
0.02900    139414144.00000000 87045928.00000000 220322080.00000000 76378.33593750  6525274.50000000 5155939.50000000 
0.03000    137965536.00000000 86146240.00000000 218038096.00000000 75356.61718750  6447606.00000000 5094733.50000000 
0.03100    136487136.00000000 85229104.00000000 215708656.00000000 74317.35937500  6368477.00000000 5032329.50000000 
0.03200    134979680.00000000 84293320.00000000 213334000.00000000 73261.57812500  6287963.00000000 4968871.50000000 
0.03300    133447040.00000000 83341856.00000000 210918944.00000000 72191.05468750  6206159.50000000 4904389.50000000 
0.03400    131889264.00000000 82375168.00000000 208465184.00000000 71106.77343750  6123160.00000000 4838971.00000000 
0.03500    130308440.00000000 81394032.00000000 205974192.00000000 70010.64843750  6039132.00000000 4772727.00000000 
0.03600    128707528.00000000 80399936.00000000 203450432.00000000 68904.11718750  5954085.50000000 4705693.50000000 
0.03700    127086536.00000000 79393536.00000000 200896112.00000000 67788.00000000  5868167.00000000 4637951.00000000 
0.03800    125448584.00000000 78376200.00000000 198313056.00000000 66663.50000000  5781488.00000000 4569585.50000000 
0.03900    123793240.00000000 77348344.00000000 195706384.00000000 65532.69531250  5694113.00000000 4500685.00000000 
0.04000    122124304.00000000 76312224.00000000 193075968.00000000 64396.75390625  5606177.00000000 4431341.00000000 
0.04100    120442736.00000000 75268192.00000000 190425856.00000000 63256.77734375  5517690.50000000 4361599.00000000 
0.04200    118750936.00000000 74217624.00000000 187757824.00000000 62114.12500000  5428835.50000000 4291527.50000000 
0.04300    117048544.00000000 73160312.00000000 185074688.00000000 60970.06640625  5339714.50000000 4221189.50000000 
0.04400    115339208.00000000 72097728.00000000 182379616.00000000 59825.78515625  5250293.50000000 4150691.25000000 
0.04500    113623680.00000000 71032136.00000000 179676144.00000000 58682.34765625  5160790.50000000 4080107.75000000 
0.04600    111904336.00000000 69963032.00000000 176964848.00000000 57541.26953125  5071238.50000000 4009466.50000000 
0.04700    110181200.00000000 68892592.00000000 174248816.00000000 56403.42187500  4981740.00000000 3938879.50000000 
0.04800    108456904.00000000 67821544.00000000 171530000.00000000 55269.98437500  4892363.00000000 3868368.50000000 
0.04900    106733320.00000000 66749768.00000000 168811328.00000000 54141.92968750  4803202.00000000 3798037.50000000 
0.05000    105011032.00000000 65679064.00000000 166095920.00000000 53020.49609375  4714348.50000000 3727928.75000000 
0.05100    103291536.00000000 64610172.00000000 163385104.00000000 51906.41796875  4625835.00000000 3658085.00000000 
0.05200    101576760.00000000 63544120.00000000 160678672.00000000 50800.90625000  4537748.50000000 3588601.00000000 
0.05300    99867864.00000000 62481384.00000000 157983616.00000000 49704.63281250  4450186.50000000 3519518.75000000 
0.05400    98166000.00000000 61422900.00000000 155299488.00000000 48618.46875000  4363218.50000000 3450885.00000000 
0.05500    96472032.00000000 60369728.00000000 152626816.00000000 47543.07812500  4276861.00000000 3382744.25000000 
0.05600    94787648.00000000 59322136.00000000 149970624.00000000 46479.31640625  4191239.50000000 3315154.75000000 
0.05700    93113872.00000000 58281404.00000000 147331968.00000000 45428.32812500  4106353.00000000 3248182.00000000 
0.05800    91452640.00000000 57247948.00000000 144710320.00000000 44390.42968750  4022290.00000000 3181842.50000000 
0.05900    89803792.00000000 56222136.00000000 142109264.00000000 43365.93750000  3939115.00000000 3116199.50000000 
0.06000    88168688.00000000 55205144.00000000 139530480.00000000 42356.10546875  3856860.25000000 3051244.25000000 
0.06100    86548632.00000000 54197260.00000000 136975712.00000000 41360.74218750  3775569.75000000 2987102.75000000 
0.06200    84944928.00000000 53199120.00000000 134445504.00000000 40380.90625000  3695309.25000000 2923731.00000000 
0.06300    83357944.00000000 52211740.00000000 131941808.00000000 39416.42187500  3616085.25000000 2861200.00000000 
0.06400    81787352.00000000 51234888.00000000 129464528.00000000 38468.23828125  3537962.00000000 2799518.25000000 
0.06500    80236864.00000000 50269276.00000000 127017144.00000000 37536.40234375  3460957.00000000 2738738.75000000 
0.06600    78704800.00000000 49315908.00000000 124599296.00000000 36621.31250000  3385109.25000000 2678857.25000000 
0.06700    77192848.00000000 48374528.00000000 122213704.00000000 35723.51562500  3310479.50000000 2619922.75000000 
0.06800    75700424.00000000 47445984.00000000 119859088.00000000 34842.75781250  3237031.25000000 2561936.00000000 
0.06900    74229384.00000000 46530528.00000000 117538728.00000000 33979.28125000  3164822.00000000 2504931.50000000 
0.07000    72780672.00000000 45628068.00000000 115251624.00000000 33133.12500000  3093877.00000000 2448892.00000000 
0.07100    71353360.00000000 44739528.00000000 112998480.00000000 32304.99218750  3024196.25000000 2393880.75000000 
0.07200    69948568.00000000 43865076.00000000 110781688.00000000 31494.33789062  2955801.50000000 2339886.25000000 
0.07300    68566544.00000000 43004424.00000000 108600528.00000000 30701.24218750  2888703.00000000 2286886.75000000 
0.07400    67206968.00000000 42158616.00000000 106455920.00000000 29926.10742188  2822906.00000000 2234936.50000000 
0.07500    65871348.00000000 41327064.00000000 104347976.00000000 29168.28710938  2758419.00000000 2184002.00000000 
0.07600    64559580.00000000 40510212.00000000 102277984.00000000 28428.02539062  2695236.50000000 2134114.50000000 
0.07700    63271568.00000000 39708256.00000000 100245128.00000000 27705.46289062  2633372.00000000 2085277.62500000 
0.07800    62007640.00000000 38920976.00000000 98249920.00000000 26999.97656250  2572820.75000000 2037465.62500000 
0.07900    60767544.00000000 38149104.00000000 96292752.00000000 26311.35546875  2513595.50000000 1990674.87500000 
0.08000    59551788.00000000 37392144.00000000 94374056.00000000 25639.94726562  2455656.75000000 1944919.50000000 
0.08100    58360224.00000000 36650016.00000000 92493928.00000000 24985.16406250  2399015.25000000 1900202.87500000 
0.08200    57192524.00000000 35923328.00000000 90651512.00000000 24346.89453125  2343649.00000000 1856476.25000000 
0.08300    56049280.00000000 35211760.00000000 88847168.00000000 23724.71875000  2289552.50000000 1813770.87500000 
0.08400    54929732.00000000 34514656.00000000 87080520.00000000 23118.68554688  2236727.25000000 1772067.12500000 
0.08500    53834352.00000000 33832916.00000000 85352360.00000000 22527.99609375  2185155.50000000 1731330.50000000 
0.08600    52762812.00000000 33166078.00000000 83660784.00000000 21952.91210938  2134801.25000000 1691575.75000000 
0.08700    51714600.00000000 32513838.00000000 82007344.00000000 21392.76757812  2085656.75000000 1652775.87500000 
0.08800    50689844.00000000 31876036.00000000 80390664.00000000 20847.31250000  2037718.12500000 1614920.37500000 
0.08900    49687912.00000000 31252786.00000000 78810112.00000000 20316.20898438  1990947.00000000 1577983.37500000 
0.09000    48709188.00000000 30643896.00000000 77266192.00000000 19799.04882812  1945310.87500000 1541965.87500000 
0.09100    47752936.00000000 30049020.00000000 75757664.00000000 19295.59375000  1900807.00000000 1506832.12500000 
0.09200    46818716.00000000 29468022.00000000 74283800.00000000 18805.51367188  1857406.00000000 1472563.25000000 
0.09300    45906332.00000000 28900666.00000000 72845048.00000000 18328.22070312  1815091.00000000 1439169.25000000 
0.09400    45015660.00000000 28346826.00000000 71440240.00000000 17863.50585938  1773832.25000000 1406597.62500000 
0.09500    44146060.00000000 27806214.00000000 70069320.00000000 17411.07617188  1733604.25000000 1374852.00000000 
0.09600    43297236.00000000 27278702.00000000 68730304.00000000 16970.24414062  1694370.25000000 1343886.87500000 
0.09700    42468908.00000000 26763858.00000000 67424080.00000000 16541.25585938  1656131.50000000 1313704.62500000 
0.09800    41660344.00000000 26261674.00000000 66149876.00000000 16123.23437500  1618840.62500000 1284268.62500000 
0.09900    40871516.00000000 25771644.00000000 64906476.00000000 15716.04589844  1582482.00000000 1255587.87500000 
0.10000    40101392.00000000 25293440.00000000 63692788.00000000 15319.09179688  1547019.37500000 1227596.87500000 
0.10100    39350048.00000000 24827110.00000000 62508348.00000000 14932.28515625  1512426.25000000 1200312.50000000 
0.10200    38616896.00000000 24372028.00000000 61353364.00000000 14555.23925781  1478692.75000000 1173697.12500000 
0.10300    37901080.00000000 23928148.00000000 60225956.00000000 14187.58300781  1445773.87500000 1147720.00000000 
0.10400    37202856.00000000 23494996.00000000 59125932.00000000 13829.00390625  1413659.62500000 1122387.75000000 
0.10500    36521672.00000000 23072674.00000000 58052732.00000000 13479.36816406  1382313.62500000 1097665.75000000 
0.10600    35856432.00000000 22660254.00000000 57005048.00000000 13137.94628906  1351708.25000000 1073517.62500000 
0.10700    35207152.00000000 22257764.00000000 55982920.00000000 12804.83398438  1321827.62500000 1049951.62500000 
0.10800    34573576.00000000 21865018.00000000 54984848.00000000 12479.65429688  1292649.00000000 1026940.81250000 
0.10900    33954532.00000000 21481598.00000000 54010560.00000000 12162.04589844  1264154.75000000 1004445.62500000 
0.11000    33350124.00000000 21107328.00000000 53058900.00000000 11851.85546875  1236288.87500000 982475.93750000 
0.11100    32759476.00000000 20741778.00000000 52129988.00000000 11548.82324219  1209063.25000000 961005.81250000 
0.11200    32182750.00000000 20384788.00000000 51222228.00000000 11252.58105469  1182439.50000000 940006.06250000 
0.11300    31618956.00000000 20036006.00000000 50335176.00000000 10963.07226562  1156414.00000000 919465.87500000 
0.11400    31067798.00000000 19695044.00000000 49468292.00000000 10680.09082031  1130940.75000000 899377.43750000 
0.11500    30529036.00000000 19361926.00000000 48620932.00000000 10403.24707031  1106017.25000000 879716.43750000 
0.11600    30002132.00000000 19036148.00000000 47792272.00000000 10132.51269531  1081618.62500000 860476.50000000 
0.11700    29486898.00000000 18717656.00000000 46981520.00000000 9867.77929688   1057730.25000000 841631.12500000 
0.11800    28982360.00000000 18405826.00000000 46188156.00000000 9608.71386719   1034326.25000000 823164.75000000 
0.11900    28488634.00000000 18100630.00000000 45411924.00000000 9355.15917969   1011404.43750000 805071.50000000 
0.12000    28005166.00000000 17802108.00000000 44651556.00000000 9107.03613281   988926.68750000 787341.37500000 
0.12100    27531556.00000000 17509530.00000000 43907408.00000000 8864.32324219   966909.31250000 769957.12500000 
0.12200    27067420.00000000 17223080.00000000 43177708.00000000 8626.75878906   945311.68750000 752911.62500000 
0.12300    26612746.00000000 16942278.00000000 42463128.00000000 8394.20996094   924135.75000000 736193.31250000 
0.12400    26166838.00000000 16667016.00000000 41761952.00000000 8166.59228516   903353.12500000 719787.00000000 
0.12500    25729448.00000000 16396868.00000000 41074580.00000000 7943.85253906   882968.18750000 703679.81250000 
0.12600    25300606.00000000 16132089.00000000 40400288.00000000 7725.91357422   862960.93750000 687876.06250000 
0.12700    24879390.00000000 15872138.00000000 39738448.00000000 7512.65087891   843317.75000000 672357.81250000 
0.12800    24466168.00000000 15616919.00000000 39088656.00000000 7303.99365234   824039.93750000 657119.81250000 
0.12900    24060470.00000000 15366345.00000000 38451016.00000000 7099.90185547   805113.68750000 642151.37500000 
0.13000    23661600.00000000 15120091.00000000 37824164.00000000 6900.30859375   786518.06250000 627451.75000000 
0.13100    23269750.00000000 14878086.00000000 37208344.00000000 6705.12939453   768260.68750000 613009.00000000 
0.13200    22884578.00000000 14640241.00000000 36602752.00000000 6514.26367188   750328.50000000 598812.56250000 
0.13300    22506286.00000000 14406455.00000000 36007724.00000000 6327.80224609   732726.75000000 584875.37500000 
0.13400    22133976.00000000 14176255.00000000 35422292.00000000 6145.64013672   715417.50000000 571177.00000000 
0.13500    21767686.00000000 13950041.00000000 34846408.00000000 5967.66699219   698431.25000000 557712.31250000 
0.13600    21407458.00000000 13727224.00000000 34279568.00000000 5793.94042969   681736.31250000 544482.18750000 
0.13700    21052960.00000000 13507927.00000000 33721704.00000000 5624.38574219   665347.81250000 531484.75000000 
0.13800    20704056.00000000 13291891.00000000 33172426.00000000 5458.98046875   649245.37500000 518716.43750000 
0.13900    20360752.00000000 13079288.00000000 32631720.00000000 5297.68798828   633438.37500000 506167.03125000 
0.14000    20022450.00000000 12869811.00000000 32099164.00000000 5140.47851562   617918.12500000 493843.00000000 
0.14100    19689530.00000000 12663417.00000000 31574598.00000000 4987.35595703   602677.06250000 481734.84375000 
0.14200    19361542.00000000 12460041.00000000 31057948.00000000 4838.16601562   587711.68750000 469838.00000000 
0.14300    19038530.00000000 12259621.00000000 30548952.00000000 4693.02587891   573026.00000000 458162.62500000 
0.14400    18720270.00000000 12061972.00000000 30047238.00000000 4551.84033203   558612.37500000 446696.28125000 
0.14500    18406822.00000000 11867264.00000000 29552962.00000000 4414.55908203   544475.18750000 435438.06250000 
0.14600    18098006.00000000 11675243.00000000 29065634.00000000 4281.20361328   530602.31250000 424391.68750000 
0.14700    17793852.00000000 11485882.00000000 28585652.00000000 4151.69775391   517007.90625000 413551.40625000 
0.14800    17494208.00000000 11299237.00000000 28112262.00000000 4026.00952148   503669.21875000 402916.03125000 
0.14900    17198648.00000000 11115083.00000000 27645900.00000000 3904.06884766   490598.37500000 392482.81250000 
0.15000    16907698.00000000 10933540.00000000 27185948.00000000 3785.88745117   477786.00000000 382255.40625000 
0.15100    16621099.00000000 10754586.00000000 26732672.00000000 3671.40722656   465240.09375000 372227.03125000 
0.15200    16338715.00000000 10578097.00000000 26286174.00000000 3560.63256836   452953.40625000 362404.81250000 
0.15300    16060519.00000000 10403941.00000000 25845706.00000000 3453.37915039   440925.68750000 352783.50000000 
0.15400    15786371.00000000 10232380.00000000 25411696.00000000 3349.67675781   429144.18750000 343354.87500000 
0.15500    15516389.00000000 10063125.00000000 24984008.00000000 3249.45776367   417625.06250000 334126.96875000 
0.15600    15250478.00000000 9896216.00000000 24562596.00000000 3152.67065430   406355.12500000 325093.18750000 
0.15700    14988719.00000000 9731773.00000000 24147498.00000000 3059.28833008   395339.71875000 316255.65625000 
0.15800    14730763.00000000 9569600.00000000 23738238.00000000 2969.16333008   384568.03125000 307610.03125000 
0.15900    14476920.00000000 9409770.00000000 23335160.00000000 2882.32666016   374044.65625000 299156.78125000 
0.16000    14226890.00000000 9252138.00000000 22938102.00000000 2798.62011719   363763.46875000 290895.31250000 
0.16100    13980815.00000000 9096933.00000000 22546928.00000000 2718.05322266   353725.93750000 282825.84375000 
0.16200    13738608.00000000 8943867.00000000 22161880.00000000 2640.48364258   343930.00000000 274940.81250000 
0.16300    13500338.00000000 8793151.00000000 21782658.00000000 2565.86962891   334369.53125000 267239.34375000 
0.16400    13265811.00000000 8644661.00000000 21409378.00000000 2494.14062500   325045.43750000 259725.89062500 
0.16500    13035092.00000000 8498289.00000000 21041662.00000000 2425.20605469   315952.50000000 252393.85937500 
0.16600    12808131.00000000 8354295.50000000 20679890.00000000 2358.98461914   307083.43750000 245238.57812500 
0.16700    12584916.00000000 8212390.50000000 20323698.00000000 2295.37670898   298443.34375000 238262.37500000 
0.16800    12365366.00000000 8072686.00000000 19973358.00000000 2234.30126953   290023.50000000 231458.68750000 
0.16900    12149503.00000000 7935222.00000000 19628780.00000000 2175.72875977   281825.28125000 224830.92187500 
0.17000    11937340.00000000 7799858.00000000 19289622.00000000 2119.48486328   273840.15625000 218372.84375000 
