# SAXS profile: number of points = 501, q_min = 0, q_max = 0.5, delta_q = 0.001
#    q    intensity 
0.00000    162233872.00000000 101202536.00000000 256270640.00000000 99488.72656250  8035145.50000000 6346125.00000000 
0.00100    162192048.00000000 101173736.00000000 256199760.00000000 99454.07812500  8032671.50000000 6344203.00000000 
0.00200    162064352.00000000 101090192.00000000 255990048.00000000 99352.57812500  8025227.00000000 6338324.00000000 
0.00300    161843488.00000000 100952392.00000000 255637920.00000000 99183.10156250  8012862.50000000 6328591.50000000 
0.00400    161529376.00000000 100758264.00000000 255146848.00000000 98946.88281250  7995549.00000000 6314940.50000000 
0.00500    161126112.00000000 100509592.00000000 254515408.00000000 98643.78906250  7973376.00000000 6297427.50000000 
0.00600    160638768.00000000 100207008.00000000 253747408.00000000 98274.99218750  7946366.50000000 6276187.50000000 
0.00700    160058896.00000000 99852008.00000000 252844416.00000000 97841.92968750  7914598.00000000 6251158.50000000 
0.00800    159399792.00000000 99443360.00000000 251806768.00000000 97344.94531250  7878110.50000000 6222444.50000000 
0.00900    158658352.00000000 98983872.00000000 250636960.00000000 96784.53125000  7837065.00000000 6190069.00000000 
0.01000    157836032.00000000 98473224.00000000 249337520.00000000 96164.17187500  7791485.00000000 6154166.50000000 
0.01100    156931584.00000000 97911568.00000000 247913088.00000000 95483.99218750  7741501.00000000 6114834.50000000 
0.01200    155946304.00000000 97301136.00000000 246362880.00000000 94745.62500000  7687265.00000000 6072046.50000000 
0.01300    154886144.00000000 96642768.00000000 244691744.00000000 93951.43750000  7628822.00000000 6026044.50000000 
0.01400    153749936.00000000 95938944.00000000 242904992.00000000 93104.33593750  7566281.00000000 5976756.00000000 
0.01500    152543792.00000000 95191200.00000000 241003904.00000000 92203.26562500  7499916.50000000 5924454.50000000 
0.01600    151266048.00000000 94399032.00000000 238993856.00000000 91253.75781250  7429756.00000000 5869186.00000000 
0.01700    149922448.00000000 93565800.00000000 236875968.00000000 90255.66406250  7356004.00000000 5811029.50000000 
0.01800    148514640.00000000 92692176.00000000 234657776.00000000 89212.42968750  7278815.00000000 5750218.50000000 
0.01900    147043904.00000000 91779792.00000000 232340672.00000000 88127.50000000  7198333.00000000 5686799.00000000 
0.02000    145513824.00000000 90831152.00000000 229932528.00000000 87000.85156250  7114740.50000000 5620922.00000000 
0.02100    143929552.00000000 89847008.00000000 227435280.00000000 85837.38281250  7028257.00000000 5552756.50000000 
0.02200    142291664.00000000 88830552.00000000 224853392.00000000 84638.04687500  6938994.00000000 5482409.50000000 
0.02300    140603184.00000000 87783640.00000000 222193696.00000000 83406.81250000  6847244.50000000 5410006.00000000 
0.02400    138870048.00000000 86706784.00000000 219461808.00000000 82146.14843750  6753022.00000000 5335757.50000000 
0.02500    137091536.00000000 85602640.00000000 216659552.00000000 80857.68750000  6656600.50000000 5259788.00000000 
0.02600    135273472.00000000 84472928.00000000 213794000.00000000 79545.88281250  6558277.50000000 5182225.00000000 
0.02700    133418656.00000000 83321208.00000000 210870208.00000000 78212.92968750  6458121.00000000 5103241.50000000 
0.02800    131530128.00000000 82147944.00000000 207892448.00000000 76859.85156250  6356306.00000000 5022931.50000000 
0.02900    129611536.00000000 80956152.00000000 204869344.00000000 75491.71093750  6253058.00000000 4941533.50000000 
0.03000    127665944.00000000 79746216.00000000 201801040.00000000 74109.50000000  6148604.50000000 4859150.00000000 
0.03100    125696896.00000000 78522104.00000000 198694224.00000000 72717.78906250  6043198.50000000 4775986.00000000 
0.03200    123706688.00000000 77285928.00000000 195557216.00000000 71317.32812500  5936800.50000000 4692110.00000000 
0.03300    121700544.00000000 76039056.00000000 192393168.00000000 69911.53906250  5829929.50000000 4607699.00000000 
0.03400    119679088.00000000 74782176.00000000 189206320.00000000 68502.95312500  5722407.50000000 4522908.00000000 
0.03500    117648832.00000000 73518872.00000000 186001712.00000000 67093.53906250  5614619.50000000 4437890.50000000 
0.03600    115609232.00000000 72250216.00000000 182784192.00000000 65686.08593750  5506726.50000000 4352748.50000000 
0.03700    113565776.00000000 70978400.00000000 179561552.00000000 64282.47265625  5398876.50000000 4267640.00000000 
0.03800    111521440.00000000 69704944.00000000 176335744.00000000 62885.48437500  5291206.50000000 4182641.75000000 
0.03900    109477488.00000000 68432768.00000000 173110208.00000000 61497.23828125  5183936.00000000 4097958.00000000 
0.04000    107438920.00000000 67163248.00000000 169891856.00000000 60119.03515625  5077139.00000000 4013655.00000000 
0.04100    105406496.00000000 65898356.00000000 166685504.00000000 58753.21875000  4971038.50000000 3929885.75000000 
0.04200    103384864.00000000 64638208.00000000 163493568.00000000 57402.07421875  4865758.00000000 3846778.00000000 
0.04300    101375472.00000000 63386336.00000000 160320880.00000000 56066.46484375  4761367.50000000 3764385.25000000 
0.04400    99379920.00000000 62143104.00000000 157170608.00000000 54748.36718750  4658077.50000000 3682807.75000000 
0.04500    97402752.00000000 60910484.00000000 154047616.00000000 53449.12500000  4556033.00000000 3602205.50000000 
0.04600    95444632.00000000 59689688.00000000 150953520.00000000 52170.03906250  4455250.50000000 3522581.75000000 
0.04700    93506984.00000000 58481744.00000000 147895008.00000000 50913.36328125  4355842.00000000 3444099.50000000 
0.04800    91593856.00000000 57288592.00000000 144873680.00000000 49678.61328125  4258000.50000000 3366804.50000000 
0.04900    89705616.00000000 56111236.00000000 141891808.00000000 48467.75390625  4161697.25000000 3290737.75000000 
0.05000    87844936.00000000 54950304.00000000 138952096.00000000 47281.51171875  4067107.50000000 3216002.50000000 
0.05100    86012976.00000000 53806712.00000000 136057712.00000000 46120.45703125  3974251.50000000 3142660.75000000 
0.05200    84210712.00000000 52682276.00000000 133212152.00000000 44985.93359375  3883228.75000000 3070727.25000000 
0.05300    82440968.00000000 51577884.00000000 130415456.00000000 43877.43750000  3794044.50000000 3000286.50000000 
0.05400    80703832.00000000 50493404.00000000 127670464.00000000 42795.91015625  3706816.25000000 2931357.50000000 
0.05500    79001552.00000000 49430436.00000000 124978976.00000000 41741.83593750  3621558.50000000 2863986.75000000 
0.05600    77333528.00000000 48389072.00000000 122344912.00000000 40715.36328125  3538294.75000000 2798154.50000000 
0.05700    75701816.00000000 47370460.00000000 119765088.00000000 39716.21875000  3457062.00000000 2733979.75000000 
0.05800    74106528.00000000 46374096.00000000 117243760.00000000 38745.46093750  3377854.75000000 2671391.00000000 
0.05900    72548616.00000000 45400960.00000000 114781528.00000000 37801.62109375  3300741.25000000 2610450.75000000 
0.06000    71028208.00000000 44452348.00000000 112379176.00000000 36885.61328125  3225691.25000000 2551149.00000000 
0.06100    69545792.00000000 43526556.00000000 110036960.00000000 35996.54296875  3152719.75000000 2493496.50000000 
0.06200    68102968.00000000 42625312.00000000 107756248.00000000 35134.40234375  3081804.75000000 2437463.00000000 
0.06300    66698824.00000000 41747748.00000000 105535664.00000000 34299.22656250  3012953.00000000 2383063.50000000 
0.06400    65332296.00000000 40894416.00000000 103376808.00000000 33489.59375000  2946139.50000000 2330246.00000000 
0.06500    64004704.00000000 40065976.00000000 101278496.00000000 32705.55664062  2881328.75000000 2279048.50000000 
0.06600    62715736.00000000 39261368.00000000 99241240.00000000 31946.80078125  2818489.50000000 2229413.75000000 
0.06700    61464996.00000000 38480372.00000000 97265032.00000000 31212.53125000  2757638.25000000 2181341.00000000 
0.06800    60252164.00000000 37723384.00000000 95348968.00000000 30501.82421875  2698671.00000000 2134781.50000000 
0.06900    59076196.00000000 36990192.00000000 93491944.00000000 29814.26367188  2641647.50000000 2089740.75000000 
0.07000    57937520.00000000 36280228.00000000 91694360.00000000 29148.63281250  2586383.75000000 2046126.25000000 
0.07100    56835708.00000000 35592872.00000000 89953064.00000000 28505.01367188  2532961.25000000 2003924.25000000 
0.07200    55769308.00000000 34928456.00000000 88269136.00000000 27881.88671875  2481261.75000000 1963133.62500000 
0.07300    54737720.00000000 34285768.00000000 86641488.00000000 27278.63085938  2431234.25000000 1923652.37500000 
0.07400    53740224.00000000 33665040.00000000 85067224.00000000 26694.60937500  2382865.50000000 1885489.87500000 
0.07500    52776788.00000000 33065918.00000000 83547136.00000000 26128.98046875  2336061.00000000 1848570.62500000 
0.07600    51845624.00000000 32486646.00000000 82077584.00000000 25580.79296875  2290750.00000000 1812840.50000000 
0.07700    50945792.00000000 31927946.00000000 80660408.00000000 25049.26171875  2246925.75000000 1778289.25000000 
0.07800    50077160.00000000 31388208.00000000 79290888.00000000 24533.64843750  2204515.25000000 1744857.62500000 
0.07900    49238388.00000000 30867602.00000000 77967784.00000000 24032.88281250  2163414.25000000 1712455.50000000 
0.08000    48427668.00000000 30365026.00000000 76691504.00000000 23546.62500000  2123613.00000000 1681099.75000000 
0.08100    47644540.00000000 29880334.00000000 75459832.00000000 23073.62890625  2084998.62500000 1650707.25000000 
0.08200    46888240.00000000 29412466.00000000 74269544.00000000 22613.54296875  2047538.62500000 1621225.25000000 
0.08300    46157480.00000000 28960464.00000000 73120088.00000000 22165.48632812  2011229.00000000 1592622.12500000 
0.08400    45451008.00000000 28524394.00000000 72009560.00000000 21728.63085938  1975921.25000000 1564846.12500000 
0.08500    44768120.00000000 28103220.00000000 70937024.00000000 21302.34375000  1941596.25000000 1537850.75000000 
0.08600    44107252.00000000 27696196.00000000 69899776.00000000 20886.27734375  1908208.62500000 1511584.75000000 
0.08700    43467928.00000000 27302754.00000000 68897056.00000000 20479.46093750  1875681.25000000 1486029.62500000 
0.08800    42848408.00000000 26922142.00000000 67925448.00000000 20081.57617188  1843974.00000000 1461103.37500000 
0.08900    42247996.00000000 26553796.00000000 66984560.00000000 19691.78320312  1813034.62500000 1436785.12500000 
0.09000    41665640.00000000 26197038.00000000 66072868.00000000 19309.83398438  1782807.37500000 1413045.50000000 
0.09100    41100676.00000000 25851062.00000000 65187840.00000000 18935.24023438  1753263.87500000 1389823.12500000 
0.09200    40551660.00000000 25515362.00000000 64329036.00000000 18567.26171875  1724324.62500000 1367107.75000000 
0.09300    40017472.00000000 25189414.00000000 63494312.00000000 18205.63867188  1695969.62500000 1344848.00000000 
0.09400    39497472.00000000 24872422.00000000 62682180.00000000 17850.16210938  1668169.12500000 1323008.87500000 
0.09500    38990640.00000000 24563726.00000000 61890640.00000000 17500.48046875  1640845.25000000 1301562.50000000 
0.09600    38496568.00000000 24263110.00000000 61119408.00000000 17156.16406250  1614011.37500000 1280483.25000000 
0.09700    38013584.00000000 23969666.00000000 60366280.00000000 16816.89257812  1587593.25000000 1259749.25000000 
0.09800    37541136.00000000 23683022.00000000 59630064.00000000 16482.71093750  1561583.75000000 1239335.50000000 
0.09900    37078732.00000000 23402730.00000000 58909524.00000000 16153.16796875  1535941.00000000 1219205.75000000 
0.10000    36625008.00000000 23128162.00000000 58203332.00000000 15827.99902344  1510638.62500000 1199338.25000000 
0.10100    36180212.00000000 22858910.00000000 57510508.00000000 15507.34960938  1485680.00000000 1179719.25000000 
0.10200    35742548.00000000 22594608.00000000 56830400.00000000 15190.94726562  1460990.62500000 1160342.37500000 
0.10300    35312416.00000000 22334482.00000000 56160836.00000000 14878.57617188  1436600.00000000 1141171.25000000 
0.10400    34888716.00000000 22078688.00000000 55502084.00000000 14570.35546875  1412460.25000000 1122191.62500000 
0.10500    34470912.00000000 21826360.00000000 54852368.00000000 14266.13769531  1388578.75000000 1103414.87500000 
0.10600    34058588.00000000 21577378.00000000 54210920.00000000 13965.90136719  1364917.12500000 1084813.12500000 
0.10700    33651056.00000000 21331466.00000000 53577484.00000000 13669.63671875  1341484.37500000 1066369.75000000 
0.10800    33247944.00000000 21088322.00000000 52950520.00000000 13377.27148438  1318268.37500000 1048101.43750000 
0.10900    32849164.00000000 20847444.00000000 52330164.00000000 13088.93945312  1295248.37500000 1029973.81250000 
0.11000    32453516.00000000 20608786.00000000 51715612.00000000 12804.58496094  1272441.12500000 1012001.25000000 
0.11100    32061450.00000000 20372080.00000000 51105916.00000000 12524.14746094  1249819.37500000 994169.50000000 
0.11200    31672668.00000000 20137334.00000000 50500880.00000000 12247.87695312  1227395.75000000 976485.31250000 
0.11300    31286380.00000000 19903734.00000000 49899860.00000000 11975.64062500  1205150.37500000 958947.43750000 
0.11400    30902884.00000000 19671696.00000000 49303008.00000000 11707.66503906  1183103.00000000 941537.56250000 
0.11500    30521490.00000000 19440636.00000000 48709328.00000000 11443.83203125  1161250.62500000 924273.75000000 
0.11600    30142442.00000000 19211292.00000000 48118600.00000000 11184.18750000  1139580.25000000 907146.37500000 
0.11700    29765402.00000000 18982420.00000000 47530560.00000000 10928.94433594  1118121.37500000 890185.87500000 
0.11800    29390118.00000000 18754558.00000000 46945324.00000000 10678.02343750  1096857.62500000 873347.06250000 
0.11900    29016424.00000000 18527742.00000000 46362628.00000000 10431.43164062  1075766.12500000 856666.31250000 
0.12000    28644486.00000000 18301298.00000000 45781740.00000000 10189.22167969  1054900.00000000 840136.06250000 
0.12100    28274362.00000000 18075774.00000000 45203600.00000000 9951.63476562   1034242.56250000 823772.31250000 
0.12200    27905702.00000000 17850906.00000000 44627336.00000000 9718.51757812   1013802.81250000 807554.93750000 
0.12300    27538636.00000000 17626504.00000000 44053184.00000000 9489.91699219   993579.31250000 791507.68750000 
0.12400    27173384.00000000 17403206.00000000 43481380.00000000 9265.93457031   973581.68750000 775635.37500000 
0.12500    26809390.00000000 17180044.00000000 42911424.00000000 9046.49511719   953814.68750000 759931.56250000 
0.12600    26447334.00000000 16957768.00000000 42343540.00000000 8831.64648438   934287.68750000 744409.62500000 
0.12700    26086538.00000000 16736303.00000000 41778156.00000000 8621.33789062   914999.75000000 729070.31250000 
0.12800    25727858.00000000 16515375.00000000 41214284.00000000 8415.68554688   895965.37500000 713924.81250000 
0.12900    25370738.00000000 16295297.00000000 40653736.00000000 8214.54394531   877171.75000000 698965.31250000 
0.13000    25015406.00000000 16075960.00000000 40094904.00000000 8017.88085938   858634.25000000 684210.68750000 
0.13100    24662186.00000000 15857526.00000000 39539152.00000000 7825.70947266   840367.06250000 669649.43750000 
0.13200    24310826.00000000 15640089.00000000 38986144.00000000 7638.00830078   822359.43750000 655296.81250000 
0.13300    23961534.00000000 15423483.00000000 38435516.00000000 7454.71582031   804628.56250000 641156.68750000 
0.13400    23614392.00000000 15207870.00000000 37888176.00000000 7275.82324219   787163.06250000 627222.18750000 
0.13500    23269604.00000000 14993324.00000000 37344052.00000000 7101.11279297   769983.37500000 613505.37500000 
0.13600    22927108.00000000 14779945.00000000 36802872.00000000 6930.69531250   753068.81250000 599996.12500000 
0.13700    22587196.00000000 14567763.00000000 36266104.00000000 6764.34716797   736437.56250000 586708.81250000 
0.13800    22249610.00000000 14356917.00000000 35732204.00000000 6602.00976562   720095.12500000 573651.62500000 
0.13900    21914922.00000000 14147342.00000000 35202316.00000000 6443.66894531   704024.12500000 560809.75000000 
0.14000    21582718.00000000 13939150.00000000 34676392.00000000 6289.25878906   688241.50000000 548194.00000000 
0.14100    21253538.00000000 13732516.00000000 34154272.00000000 6138.56201172   672748.50000000 535795.12500000 
0.14200    20926874.00000000 13527341.00000000 33636768.00000000 5991.57373047   657524.68750000 523626.25000000 
0.14300    20603694.00000000 13323843.00000000 33123742.00000000 5848.18310547   642598.81250000 511683.34375000 
0.14400    20283220.00000000 13121908.00000000 32614670.00000000 5708.23388672   627942.50000000 499955.34375000 
0.14500    19966068.00000000 12921788.00000000 32110618.00000000 5571.70214844   613568.31250000 488453.40625000 
0.14600    19652042.00000000 12723253.00000000 31611316.00000000 5438.44384766   599477.93750000 477169.34375000 
0.14700    19341280.00000000 12526689.00000000 31116896.00000000 5308.40283203   585665.31250000 466109.09375000 
0.14800    19033660.00000000 12331919.00000000 30627432.00000000 5181.39111328   572116.56250000 455261.46875000 
0.14900    18729544.00000000 12139132.00000000 30143216.00000000 5057.36474609   558837.56250000 444634.53125000 
0.15000    18428850.00000000 11948211.00000000 29663876.00000000 4936.23730469   545822.37500000 434217.65625000 
0.15100    18131594.00000000 11759297.00000000 29189884.00000000 4817.88085938   533075.62500000 424011.21875000 
0.15200    17837950.00000000 11572429.00000000 28721304.00000000 4702.26171875   520585.59375000 414013.18750000 
0.15300    17547800.00000000 11387531.00000000 28258264.00000000 4589.24951172   508348.65625000 404220.03125000 
0.15400    17261184.00000000 11204796.00000000 27800272.00000000 4478.74316406   496358.56250000 394625.03125000 
0.15500    16978052.00000000 11024156.00000000 27348258.00000000 4370.63427734   484621.03125000 385234.84375000 
0.15600    16698732.00000000 10845629.00000000 26901454.00000000 4264.97705078   473117.40625000 376030.50000000 
0.15700    16422821.00000000 10669319.00000000 26460460.00000000 4161.56787109   461860.15625000 367022.87500000 
0.15800    16150555.00000000 10495072.00000000 26024762.00000000 4060.35156250   450826.90625000 358199.62500000 
0.15900    15881795.00000000 10323055.00000000 25594938.00000000 3961.35156250   440026.21875000 349562.87500000 
0.16000    15616712.00000000 10153137.00000000 25170512.00000000 3864.39990234   429442.81250000 341103.56250000 
0.16100    15355237.00000000 9985593.00000000 24751714.00000000 3769.53149414   419085.34375000 332822.09375000 
0.16200    15097338.00000000 9820039.00000000 24338796.00000000 3676.62255859   408936.71875000 324714.28125000 
0.16300    14843151.00000000 9656781.00000000 23931262.00000000 3585.63452148   398994.62500000 316773.21875000 
0.16400    14592268.00000000 9495707.00000000 23529394.00000000 3496.56127930   389260.43750000 308997.37500000 
0.16500    14345117.00000000 9336872.00000000 23133040.00000000 3409.37622070   379722.87500000 301382.31250000 
0.16600    14101403.00000000 9180156.00000000 22742320.00000000 3323.96899414   370382.50000000 293926.50000000 
0.16700    13861152.00000000 9025536.00000000 22357084.00000000 3240.35742188   361227.78125000 286622.56250000 
0.16800    13624408.00000000 8873112.00000000 21977170.00000000 3158.46728516   352262.56250000 279467.40625000 
0.16900    13391171.00000000 8722927.00000000 21603010.00000000 3078.35717773   343480.59375000 272460.09375000 
0.17000    13161211.00000000 8574779.00000000 21233892.00000000 2999.92993164   334876.40625000 265599.46875000 
