# SAXS profile: number of points = 501, q_min = 0, q_max = 0.5, delta_q = 0.001
#    q    intensity 
0.00000    162229392.00000000 101201960.00000000 256268320.00000000 115643.45312500 8663046.00000000 6841997.50000000 
0.00100    162190384.00000000 101175304.00000000 256200624.00000000 115599.74218750 8660344.00000000 6839806.50000000 
0.00200    162069056.00000000 101094320.00000000 255997216.00000000 115472.95312500 8651952.00000000 6833268.50000000 
0.00300    161858032.00000000 100961008.00000000 255655520.00000000 115260.28125000 8638028.00000000 6822328.00000000 
0.00400    161548416.00000000 100772712.00000000 255179232.00000000 114963.11718750 8618633.00000000 6807092.00000000 
0.00500    161154992.00000000 100529888.00000000 254560896.00000000 114583.15625000 8593752.00000000 6787517.00000000 
0.00600    160676112.00000000 100237712.00000000 253814320.00000000 114121.67187500 8563496.00000000 6763811.00000000 
0.00700    160106928.00000000 99892880.00000000 252937728.00000000 113578.07031250 8527841.00000000 6735819.00000000 
0.00800    159463760.00000000 99497680.00000000 251926704.00000000 112955.33593750 8487053.00000000 6703778.00000000 
0.00900    158740656.00000000 99053352.00000000 250787824.00000000 112254.71093750 8441097.00000000 6667658.50000000 
0.01000    157937360.00000000 98556616.00000000 249521232.00000000 111478.21093750 8390075.00000000 6627599.00000000 
0.01100    157050784.00000000 98010648.00000000 248133744.00000000 110628.75000000 8334172.00000000 6583617.50000000 
0.01200    156086464.00000000 97419032.00000000 246623584.00000000 109706.96875000 8273522.00000000 6535941.50000000 
0.01300    155049152.00000000 96780288.00000000 244996416.00000000 108715.54687500 8208192.00000000 6484607.50000000 
0.01400    153940496.00000000 96097864.00000000 243256736.00000000 107658.76562500 8138356.50000000 6429692.00000000 
0.01500    152758160.00000000 95371592.00000000 241401888.00000000 106537.52343750 8064264.00000000 6371485.00000000 
0.01600    151510560.00000000 94602144.00000000 239442416.00000000 105355.82031250 7986012.50000000 6309944.50000000 
0.01700    150194608.00000000 93791384.00000000 237377776.00000000 104116.25000000 7903739.00000000 6245329.50000000 
0.01800    148816400.00000000 92943360.00000000 235214432.00000000 102821.96093750 7817720.00000000 6177642.50000000 
0.01900    147376720.00000000 92056496.00000000 232953536.00000000 101476.87500000 7728101.00000000 6107183.50000000 
0.02000    145878720.00000000 91133800.00000000 230601696.00000000 100083.92187500 7635107.00000000 6034048.00000000 
0.02100    144325376.00000000 90176256.00000000 228162480.00000000 98645.80468750  7538840.50000000 5958323.00000000 
0.02200    142720784.00000000 89186440.00000000 225639744.00000000 97166.81250000  7439619.00000000 5880315.00000000 
0.02300    141065408.00000000 88165176.00000000 223041552.00000000 95649.71093750  7337659.50000000 5800047.50000000 
0.02400    139364000.00000000 87115064.00000000 220368528.00000000 94098.92968750  7233096.50000000 5717808.50000000 
0.02500    137618160.00000000 86038456.00000000 217627968.00000000 92517.32031250  7126211.00000000 5633703.50000000 
0.02600    135835936.00000000 84936056.00000000 214822976.00000000 90909.34375000  7017194.50000000 5547920.50000000 
0.02700    134011968.00000000 83811368.00000000 211958624.00000000 89277.60937500  6906338.50000000 5460656.50000000 
0.02800    132154600.00000000 82664016.00000000 209038992.00000000 87625.21875000  6793676.00000000 5371923.00000000 
0.02900    130268112.00000000 81497832.00000000 206072672.00000000 85957.13281250  6679571.00000000 5282100.00000000 
0.03000    128352328.00000000 80313744.00000000 203061584.00000000 84275.13281250  6564211.50000000 5191233.00000000 
0.03100    126412936.00000000 79115224.00000000 200010464.00000000 82584.32812500  6447763.50000000 5099551.50000000 
0.03200    124451336.00000000 77901488.00000000 196921744.00000000 80886.96093750  6330462.50000000 5007209.00000000 
0.03300    122471864.00000000 76676136.00000000 193808224.00000000 79185.96875000  6212551.50000000 4914303.00000000 
0.03400    120475520.00000000 75440136.00000000 190667776.00000000 77484.07031250  6094151.00000000 4821054.00000000 
0.03500    118467608.00000000 74196736.00000000 187506832.00000000 75785.70312500  5975538.00000000 4727529.50000000 
0.03600    116450304.00000000 72945568.00000000 184328272.00000000 74092.61718750  5856834.50000000 4633968.00000000 
0.03700    114425688.00000000 71691240.00000000 181141552.00000000 72407.94531250  5738280.50000000 4540504.00000000 
0.03800    112398064.00000000 70432904.00000000 177945744.00000000 70734.64843750  5619981.00000000 4447260.00000000 
0.03900    110369328.00000000 69173776.00000000 174749904.00000000 69073.67968750  5502163.00000000 4354346.00000000 
0.04000    108341120.00000000 67915736.00000000 171553872.00000000 67429.81250000  5385001.50000000 4261863.50000000 
0.04100    106318464.00000000 66657976.00000000 168363936.00000000 65803.50000000  5268601.50000000 4170088.00000000 
0.04200    104301280.00000000 65404764.00000000 165185536.00000000 64196.26171875  5153143.00000000 4078969.75000000 
0.04300    102293280.00000000 64157168.00000000 162018960.00000000 62611.58984375  5038754.50000000 3988709.50000000 
0.04400    100297480.00000000 62915432.00000000 158870224.00000000 61050.81250000  4925557.50000000 3899378.00000000 
0.04500    98315088.00000000 61682260.00000000 155744336.00000000 59515.17968750  4813744.50000000 3811083.00000000 
0.04600    96348872.00000000 60457864.00000000 152640800.00000000 58006.19921875  4703313.00000000 3723924.00000000 
0.04700    94399352.00000000 59244512.00000000 149565024.00000000 56525.04296875  4594452.00000000 3637969.25000000 
0.04800    92469640.00000000 58042264.00000000 146519856.00000000 55073.09765625  4487252.00000000 3553269.50000000 
0.04900    90562464.00000000 56853384.00000000 143507440.00000000 53651.58593750  4381741.50000000 3469957.00000000 
0.05000    88678000.00000000 55678344.00000000 140531712.00000000 52260.54296875  4278126.00000000 3388046.75000000 
0.05100    86818168.00000000 54518688.00000000 137595216.00000000 50901.26953125  4176287.50000000 3307617.50000000 
0.05200    84985208.00000000 53374776.00000000 134697808.00000000 49574.64843750  4076468.50000000 3228730.00000000 
0.05300    83178816.00000000 52247376.00000000 131844808.00000000 48279.94531250  3978690.00000000 3151404.50000000 
0.05400    81402056.00000000 51137576.00000000 129035512.00000000 47018.36328125  3882887.50000000 3075695.25000000 
0.05500    79654840.00000000 50046464.00000000 126274496.00000000 45790.16796875  3789235.75000000 3001632.50000000 
0.05600    77938488.00000000 48974172.00000000 123561528.00000000 44595.23046875  3697691.50000000 2929223.50000000 
0.05700    76254112.00000000 47921444.00000000 120898040.00000000 43433.00390625  3608270.75000000 2858530.25000000 
0.05800    74603096.00000000 46888928.00000000 118285904.00000000 42303.73437500  3521050.50000000 2789479.50000000 
0.05900    72985528.00000000 45876936.00000000 115727632.00000000 41207.72656250  3435959.75000000 2722209.75000000 
0.06000    71401184.00000000 44885744.00000000 113221528.00000000 40143.51171875  3353095.50000000 2656624.00000000 
0.06100    69852560.00000000 43916248.00000000 110770472.00000000 39111.07812500  3272361.50000000 2592740.00000000 
0.06200    68337008.00000000 42968188.00000000 108373776.00000000 38110.17187500  3193808.25000000 2530576.25000000 
0.06300    66858664.00000000 42042432.00000000 106033512.00000000 37140.57421875  3117409.50000000 2470135.25000000 
0.06400    65414804.00000000 41138144.00000000 103748336.00000000 36200.63281250  3043147.25000000 2411339.75000000 
0.06500    64006224.00000000 40256396.00000000 101519880.00000000 35290.52734375  2971002.25000000 2354228.50000000 
0.06600    62634264.00000000 39397340.00000000 99348168.00000000 34409.14453125  2900932.50000000 2298771.50000000 
0.06700    61297680.00000000 38560264.00000000 97232920.00000000 33555.91015625  2832915.25000000 2244916.00000000 
0.06800    59996208.00000000 37745176.00000000 95172416.00000000 32730.16601562  2766930.50000000 2192676.00000000 
0.06900    58730996.00000000 36952068.00000000 93169528.00000000 31930.67187500  2702888.50000000 2141978.50000000 
0.07000    57500256.00000000 36181876.00000000 91221888.00000000 31156.83593750  2640820.00000000 2092861.75000000 
0.07100    56304536.00000000 35433340.00000000 89329696.00000000 30407.73437500  2580621.00000000 2045208.75000000 
0.07200    55142880.00000000 34706300.00000000 87491712.00000000 29682.36914062  2522242.25000000 1999021.75000000 
0.07300    54016100.00000000 34000852.00000000 85708368.00000000 28980.23046875  2465701.50000000 1954257.62500000 
0.07400    52922088.00000000 33317060.00000000 83978480.00000000 28299.83984375  2410917.00000000 1910892.87500000 
0.07500    51862188.00000000 32653708.00000000 82300920.00000000 27641.00195312  2357795.50000000 1868869.62500000 
0.07600    50834048.00000000 32010960.00000000 80674544.00000000 27002.51953125  2306352.50000000 1828155.87500000 
0.07700    49837712.00000000 31388730.00000000 79099288.00000000 26383.62500000  2256492.75000000 1788702.00000000 
0.07800    48872988.00000000 30785878.00000000 77574144.00000000 25783.51757812  2208176.50000000 1750471.25000000 
0.07900    47938704.00000000 30202602.00000000 76097952.00000000 25201.42578125  2161327.75000000 1713417.50000000 
0.08000    47034760.00000000 29638444.00000000 74669392.00000000 24636.55273438  2115931.00000000 1677527.75000000 
0.08100    46159612.00000000 29092708.00000000 73286952.00000000 24088.20507812  2071953.75000000 1642716.62500000 
0.08200    45313184.00000000 28565284.00000000 71950408.00000000 23555.48828125  2029253.37500000 1608963.75000000 
0.08300    44494056.00000000 28055278.00000000 70657800.00000000 23037.94140625  1987870.25000000 1576236.25000000 
0.08400    43702384.00000000 27562610.00000000 69409072.00000000 22534.81640625  1947678.87500000 1544493.25000000 
0.08500    42936856.00000000 27086516.00000000 68200704.00000000 22045.31640625  1908706.50000000 1513673.75000000 
0.08600    42196456.00000000 26626736.00000000 67033808.00000000 21569.04101562  1870844.37500000 1483749.12500000 
0.08700    41480496.00000000 26182296.00000000 65906284.00000000 21105.60156250  1834069.00000000 1454713.37500000 
0.08800    40788044.00000000 25753192.00000000 64815448.00000000 20654.10351562  1798342.12500000 1426478.25000000 
0.08900    40119108.00000000 25338826.00000000 63761560.00000000 20214.17187500  1763594.37500000 1399046.12500000 
0.09000    39472224.00000000 24938360.00000000 62744060.00000000 19785.52539062  1729805.37500000 1372366.75000000 
0.09100    38846164.00000000 24551668.00000000 61759872.00000000 19367.43945312  1696940.62500000 1346403.00000000 
0.09200    38240756.00000000 24177892.00000000 60807852.00000000 18959.57421875  1664938.62500000 1321151.87500000 
0.09300    37654972.00000000 23816672.00000000 59887560.00000000 18561.66992188  1633767.75000000 1296539.25000000 
0.09400    37088372.00000000 23467412.00000000 58997748.00000000 18173.25781250  1603387.25000000 1272561.75000000 
0.09500    36539600.00000000 23129862.00000000 58136384.00000000 17793.79492188  1573771.62500000 1249187.12500000 
0.09600    36007912.00000000 22803218.00000000 57303296.00000000 17423.48632812  1544872.62500000 1226381.12500000 
0.09700    35492868.00000000 22487096.00000000 56495920.00000000 17061.49023438  1516679.12500000 1204133.00000000 
0.09800    34993652.00000000 22181072.00000000 55713800.00000000 16708.07031250  1489158.50000000 1182392.37500000 
0.09900    34509988.00000000 21884460.00000000 54955416.00000000 16362.66113281  1462252.37500000 1161185.87500000 
0.10000    34039640.00000000 21597124.00000000 54220200.00000000 16024.94531250  1435967.50000000 1140419.37500000 
0.10100    33583772.00000000 21318074.00000000 53506912.00000000 15694.81250000  1410236.37500000 1120135.25000000 
0.10200    33140508.00000000 21047484.00000000 52813444.00000000 15372.01171875  1385074.50000000 1100269.37500000 
0.10300    32709410.00000000 20784432.00000000 52139816.00000000 15056.39550781  1360434.50000000 1080811.75000000 
0.10400    32290186.00000000 20528716.00000000 51484464.00000000 14747.79003906  1336295.37500000 1061761.12500000 
0.10500    31881694.00000000 20279920.00000000 50846552.00000000 14445.90527344  1312672.62500000 1043088.37500000 
0.10600    31483320.00000000 20037440.00000000 50224696.00000000 14150.51074219  1289461.37500000 1024788.06250000 
0.10700    31094724.00000000 19801312.00000000 49618696.00000000 13861.67578125  1266729.87500000 1006826.31250000 
0.10800    30715388.00000000 19570614.00000000 49026452.00000000 13579.15429688  1244417.00000000 989197.12500000 
0.10900    30344492.00000000 19344908.00000000 48447652.00000000 13302.52832031  1222501.50000000 971888.31250000 
0.11000    29981724.00000000 19124466.00000000 47881620.00000000 13031.93164062  1200985.75000000 954881.68750000 
0.11100    29626448.00000000 18908734.00000000 47327260.00000000 12767.04199219  1179855.87500000 938168.93750000 
0.11200    29278008.00000000 18697082.00000000 46783816.00000000 12507.73535156  1159072.75000000 921735.93750000 
0.11300    28936044.00000000 18489522.00000000 46250460.00000000 12253.93164062  1138640.37500000 905573.06250000 
0.11400    28600346.00000000 18285332.00000000 45726540.00000000 12005.43164062  1118535.25000000 889666.43750000 
0.11500    28270100.00000000 18084378.00000000 45211460.00000000 11761.97265625  1098754.12500000 874009.62500000 
0.11600    27945054.00000000 17886744.00000000 44703952.00000000 11523.53222656  1079275.00000000 858591.75000000 
0.11700    27624702.00000000 17691890.00000000 44203756.00000000 11289.98339844  1060099.62500000 843403.87500000 
0.11800    27308814.00000000 17499432.00000000 43710676.00000000 11060.91992188  1041192.75000000 828438.50000000 
0.11900    26996944.00000000 17309372.00000000 43222972.00000000 10836.40527344  1022571.93750000 813680.75000000 
0.12000    26688576.00000000 17121270.00000000 42741068.00000000 10616.38085938  1004215.25000000 799131.93750000 
0.12100    26383736.00000000 16934918.00000000 42264644.00000000 10400.51855469  986114.68750000 784776.81250000 
0.12200    26082004.00000000 16750426.00000000 41792148.00000000 10188.66894531  968257.12500000 770610.93750000 
0.12300    25782922.00000000 16567331.00000000 41324144.00000000 9980.78125000   950633.37500000 756627.37500000 
0.12400    25486080.00000000 16385659.00000000 40859204.00000000 9776.65136719   933244.18750000 742833.18750000 
0.12500    25191584.00000000 16205026.00000000 40398048.00000000 9576.12109375   916076.87500000 729204.93750000 
0.12600    24899376.00000000 16025417.00000000 39939352.00000000 9379.12109375   899133.75000000 715739.93750000 
0.12700    24608740.00000000 15846547.00000000 39483432.00000000 9185.51953125   882390.31250000 702443.68750000 
0.12800    24319860.00000000 15668396.00000000 39029184.00000000 8995.02246094   865855.87500000 689306.87500000 
0.12900    24032312.00000000 15491014.00000000 38577260.00000000 8807.80371094   849520.50000000 676324.37500000 
0.13000    23746128.00000000 15314038.00000000 38127320.00000000 8623.59472656   833378.18750000 663489.50000000 
0.13100    23460794.00000000 15137604.00000000 37678380.00000000 8442.20605469   817426.37500000 650811.00000000 
0.13200    23176646.00000000 14961473.00000000 37230916.00000000 8263.66894531   801655.75000000 638263.93750000 
0.13300    22893492.00000000 14785646.00000000 36784608.00000000 8087.85839844   786069.31250000 625866.18750000 
0.13400    22611048.00000000 14610004.00000000 36339344.00000000 7914.68066406   770659.56250000 613613.06250000 
0.13500    22329328.00000000 14434651.00000000 35894312.00000000 7744.01025391   755431.25000000 601489.43750000 
0.13600    22048360.00000000 14259413.00000000 35450156.00000000 7575.92285156   740370.93750000 589502.37500000 
0.13700    21768060.00000000 14084303.00000000 35007276.00000000 7410.23095703   725487.50000000 577652.68750000 
0.13800    21488304.00000000 13909292.00000000 34564560.00000000 7246.83642578   710767.06250000 565937.00000000 
0.13900    21209112.00000000 13734442.00000000 34122592.00000000 7085.90527344   696219.87500000 554356.81250000 
0.14000    20930302.00000000 13559612.00000000 33681104.00000000 6927.26025391   681849.25000000 542905.56250000 
0.14100    20652314.00000000 13384944.00000000 33240598.00000000 6770.89208984   667634.68750000 531586.25000000 
0.14200    20374982.00000000 13210468.00000000 32800446.00000000 6616.78076172   653599.06250000 520406.65625000 
0.14300    20098122.00000000 13036144.00000000 32360884.00000000 6464.95361328   639726.56250000 509360.90625000 
0.14400    19821954.00000000 12861911.00000000 31922322.00000000 6315.28955078   626021.75000000 498438.78125000 
0.14500    19546380.00000000 12687910.00000000 31484388.00000000 6168.00195312   612494.43750000 487661.81250000 
0.14600    19271780.00000000 12514239.00000000 31047478.00000000 6022.91357422   599142.50000000 477015.59375000 
0.14700    18997898.00000000 12340920.00000000 30611690.00000000 5880.15478516   585955.12500000 466511.65625000 
0.14800    18724736.00000000 12167882.00000000 30176954.00000000 5739.70507812   572952.62500000 456142.28125000 
0.14900    18452718.00000000 11995254.00000000 29743754.00000000 5601.48632812   560120.12500000 445914.40625000 
0.15000    18181678.00000000 11823187.00000000 29311684.00000000 5465.75097656   547469.50000000 435825.81250000 
0.15100    17911864.00000000 11651538.00000000 28881270.00000000 5332.30664062   535003.18750000 425890.06250000 
0.15200    17643186.00000000 11480599.00000000 28452796.00000000 5201.36083984   522716.68750000 416091.71875000 
0.15300    17375886.00000000 11310249.00000000 28026000.00000000 5072.84033203   510619.81250000 406443.03125000 
0.15400    17109944.00000000 11140676.00000000 27601382.00000000 4946.83544922   498709.81250000 396944.59375000 
0.15500    16845670.00000000 10971889.00000000 27179060.00000000 4823.36132812   486991.21875000 387597.50000000 
0.15600    16582915.00000000 10803960.00000000 26758746.00000000 4702.42529297   475459.65625000 378401.81250000 
0.15700    16322045.00000000 10637093.00000000 26341286.00000000 4584.12890625   464132.34375000 369362.18750000 
0.15800    16062717.00000000 10471146.00000000 25926548.00000000 4468.44140625   452997.15625000 360480.28125000 
0.15900    15805443.00000000 10306268.00000000 25514764.00000000 4355.43994141   442067.06250000 351752.53125000 
0.16000    15550060.00000000 10142414.00000000 25106060.00000000 4245.10156250   431331.81250000 343188.78125000 
0.16100    15296989.00000000 9980169.00000000 24700728.00000000 4137.55664062   420804.40625000 334784.90625000 
0.16200    15046088.00000000 9818958.00000000 24298684.00000000 4032.71801758   410479.96875000 326543.53125000 
0.16300    14797555.00000000 9659250.00000000 23899898.00000000 3930.59790039   400361.06250000 318463.40625000 
0.16400    14551364.00000000 9500991.00000000 23505272.00000000 3831.29858398   390449.96875000 310549.37500000 
0.16500    14307779.00000000 9344141.00000000 23114318.00000000 3734.73071289   380743.34375000 302794.78125000 
0.16600    14066777.00000000 9188832.00000000 22727620.00000000 3640.96923828   371247.65625000 295213.43750000 
0.16700    13828422.00000000 9035148.00000000 22344858.00000000 3549.90087891   361958.25000000 287792.21875000 
0.16800    13592660.00000000 8883157.00000000 21966298.00000000 3461.59985352   352877.00000000 280532.06250000 
0.16900    13359827.00000000 8732906.00000000 21592682.00000000 3376.07788086   344003.37500000 273444.21875000 
0.17000    13130082.00000000 8584422.00000000 21222974.00000000 3293.24023438   335334.84375000 266515.90625000 
