# SAXS profile: number of points = 501, q_min = 0, q_max = 0.5, delta_q = 0.001
#    q    intensity 
0.00000    162233920.00000000 101201720.00000000 256270784.00000000 98029.42187500  7976045.50000000 6299440.00000000 
0.00100    162202256.00000000 101180216.00000000 256216016.00000000 98002.92187500  7974059.50000000 6297917.00000000 
0.00200    162102096.00000000 101115792.00000000 256053792.00000000 97923.51562500  7968245.00000000 6293292.00000000 
0.00300    161931536.00000000 101009008.00000000 255780032.00000000 97790.17968750  7958489.00000000 6285672.00000000 
0.00400    161687440.00000000 100859352.00000000 255399408.00000000 97603.85937500  7944911.50000000 6274980.50000000 
0.00500    161375904.00000000 100667216.00000000 254910688.00000000 97365.75000000  7927439.50000000 6261267.00000000 
0.00600    160994064.00000000 100431792.00000000 254311248.00000000 97075.27343750  7906184.50000000 6244546.00000000 
0.00700    160546960.00000000 100155912.00000000 253610080.00000000 96733.32812500  7881151.00000000 6224889.50000000 
0.00800    160027392.00000000 99838616.00000000 252802560.00000000 96339.89843750  7852394.00000000 6202200.50000000 
0.00900    159445808.00000000 99482040.00000000 251889632.00000000 95897.18750000  7819909.00000000 6176710.50000000 
0.01000    158800768.00000000 99083616.00000000 250875984.00000000 95405.07812500  7783837.50000000 6148303.50000000 
0.01100    158092192.00000000 98645952.00000000 249760080.00000000 94864.35937500  7744137.50000000 6117175.00000000 
0.01200    157319728.00000000 98168384.00000000 248544592.00000000 94276.95312500  7700997.00000000 6083211.50000000 
0.01300    156481712.00000000 97652752.00000000 247232064.00000000 93642.20312500  7654438.00000000 6046597.00000000 
0.01400    155584624.00000000 97099416.00000000 245823216.00000000 92962.92968750  7604501.00000000 6007326.00000000 
0.01500    154628784.00000000 96510136.00000000 244322256.00000000 92240.30468750  7551296.00000000 5965534.50000000 
0.01600    153616832.00000000 95884968.00000000 242729552.00000000 91474.17968750  7494961.00000000 5921134.50000000 
0.01700    152545280.00000000 95224848.00000000 241047696.00000000 90667.53906250  7435472.50000000 5874418.00000000 
0.01800    151419440.00000000 94530240.00000000 239280064.00000000 89822.03125000  7373072.50000000 5825334.50000000 
0.01900    150242272.00000000 93803032.00000000 237428880.00000000 88936.93750000  7307735.00000000 5773963.50000000 
0.02000    149012160.00000000 93043920.00000000 235496848.00000000 88015.96875000  7239643.50000000 5720388.50000000 
0.02100    147732336.00000000 92254816.00000000 233486080.00000000 87060.39843750  7168930.00000000 5664772.50000000 
0.02200    146404480.00000000 91435704.00000000 231400592.00000000 86071.32812500  7095629.00000000 5607093.00000000 
0.02300    145032208.00000000 90587120.00000000 229241344.00000000 85050.32812500  7019879.50000000 5547524.50000000 
0.02400    143614272.00000000 89711632.00000000 227013504.00000000 83999.62500000  6941869.50000000 5486094.50000000 
0.02500    142154752.00000000 88810288.00000000 224719312.00000000 82920.99218750  6861636.00000000 5422955.50000000 
0.02600    140655792.00000000 87884416.00000000 222363296.00000000 81816.69531250  6779352.50000000 5358195.00000000 
0.02700    139119488.00000000 86934424.00000000 219946320.00000000 80687.47656250  6695102.00000000 5291895.50000000 
0.02800    137546608.00000000 85962520.00000000 217473888.00000000 79535.35937500  6609002.50000000 5224160.00000000 
0.02900    135939120.00000000 84969488.00000000 214948400.00000000 78363.29687500  6521291.50000000 5155098.00000000 
0.03000    134302160.00000000 83957480.00000000 212372448.00000000 77172.00000000  6431965.00000000 5084792.00000000 
0.03100    132635432.00000000 82926328.00000000 209750800.00000000 75963.10156250  6341274.00000000 5013360.50000000 
0.03200    130941104.00000000 81878384.00000000 207086048.00000000 74740.24218750  6249231.50000000 4940914.50000000 
0.03300    129222552.00000000 80814536.00000000 204381408.00000000 73503.46875000  6156038.50000000 4867550.50000000 
0.03400    127481360.00000000 79736768.00000000 201641664.00000000 72255.30468750  6061820.00000000 4793309.50000000 
0.03500    125719328.00000000 78645992.00000000 198868592.00000000 70997.34375000  5966656.50000000 4718378.00000000 
0.03600    123939008.00000000 77543712.00000000 196068160.00000000 69732.34375000  5870742.00000000 4642817.00000000 
0.03700    122142344.00000000 76432152.00000000 193240976.00000000 68460.23437500  5774167.50000000 4566741.00000000 
0.03800    120332304.00000000 75310840.00000000 190390512.00000000 67184.35937500  5677069.50000000 4490223.00000000 
0.03900    118510520.00000000 74182032.00000000 187521184.00000000 65905.10937500  5579529.50000000 4413412.00000000 
0.04000    116679064.00000000 73046272.00000000 184637328.00000000 64625.75781250  5481708.00000000 4336343.50000000 
0.04100    114839088.00000000 71905808.00000000 181740448.00000000 63346.75000000  5383771.00000000 4259111.00000000 
0.04200    112994856.00000000 70761456.00000000 178835552.00000000 62069.51953125  5285704.00000000 4181795.50000000 
0.04300    111146072.00000000 69614776.00000000 175923008.00000000 60796.50000000  5187733.50000000 4104543.50000000 
0.04400    109296272.00000000 68466872.00000000 173009120.00000000 59528.02343750  5089887.00000000 4027407.50000000 
0.04500    107446456.00000000 67318760.00000000 170094080.00000000 58266.41406250  4992384.00000000 3950496.00000000 
0.04600    105599384.00000000 66171396.00000000 167182432.00000000 57013.04687500  4895198.00000000 3873873.00000000 
0.04700    103756600.00000000 65026568.00000000 164277136.00000000 55768.45703125  4798469.00000000 3797610.25000000 
0.04800    101919456.00000000 63885448.00000000 161380800.00000000 54534.59375000  4702371.50000000 3721771.75000000 
0.04900    100090200.00000000 62748256.00000000 158495984.00000000 53312.21484375  4606927.00000000 3646471.75000000 
0.05000    98269744.00000000 61616748.00000000 155624816.00000000 52102.69921875  4512215.00000000 3571744.50000000 
0.05100    96460072.00000000 60491408.00000000 152770640.00000000 50907.12890625  4418356.50000000 3497667.00000000 
0.05200    94663136.00000000 59373524.00000000 149935632.00000000 49726.19531250  4325417.00000000 3424295.50000000 
0.05300    92880232.00000000 58264316.00000000 147124176.00000000 48560.95703125  4233400.50000000 3351698.25000000 
0.05400    91112304.00000000 57163924.00000000 144334368.00000000 47412.44140625  4142500.75000000 3279916.50000000 
0.05500    89362080.00000000 56073736.00000000 141570576.00000000 46281.08593750  4052730.00000000 3209014.75000000 
0.05600    87629176.00000000 54994276.00000000 138836448.00000000 45167.69140625  3964124.25000000 3139069.75000000 
0.05700    85915384.00000000 53926656.00000000 136132592.00000000 44073.17968750  3876776.25000000 3070081.00000000 
0.05800    84222296.00000000 52871428.00000000 133459280.00000000 42997.89843750  3790697.75000000 3002132.75000000 
0.05900    82550272.00000000 51829136.00000000 130818912.00000000 41942.53125000  3706019.25000000 2935204.00000000 
0.06000    80901680.00000000 50800840.00000000 128213792.00000000 40907.33984375  3622709.25000000 2869368.75000000 
0.06100    79274912.00000000 49786364.00000000 125645224.00000000 39892.51171875  3540823.00000000 2804677.75000000 
0.06200    77673872.00000000 48787212.00000000 123115488.00000000 38898.78515625  3460406.50000000 2741124.00000000 
0.06300    76097160.00000000 47803180.00000000 120623792.00000000 37926.41015625  3381472.00000000 2678744.25000000 
0.06400    74546592.00000000 46834672.00000000 118172576.00000000 36975.29296875  3304085.75000000 2617555.50000000 
0.06500    73022472.00000000 45882892.00000000 115763896.00000000 36045.57812500  3228230.75000000 2557604.25000000 
0.06600    71525328.00000000 44947316.00000000 113397368.00000000 35137.72265625  3153937.00000000 2498863.25000000 
0.06700    70055048.00000000 44028800.00000000 111072904.00000000 34251.71484375  3081232.50000000 2441360.00000000 
0.06800    68612672.00000000 43127660.00000000 108793344.00000000 33387.07031250  3010110.25000000 2385119.00000000 
0.06900    67199528.00000000 42244000.00000000 106557136.00000000 32544.17773438  2940574.25000000 2330123.25000000 
0.07000    65814656.00000000 41377852.00000000 104367712.00000000 31723.11523438  2872672.00000000 2276423.75000000 
0.07100    64458956.00000000 40529780.00000000 102222712.00000000 30922.98828125  2806345.75000000 2223956.25000000 
0.07200    63131316.00000000 39699360.00000000 100123352.00000000 30144.26171875  2741608.75000000 2172758.00000000 
0.07300    61834148.00000000 38887400.00000000 98070992.00000000 29386.48046875  2678459.00000000 2122776.50000000 
0.07400    60566040.00000000 38093764.00000000 96064104.00000000 28649.40820312  2616891.75000000 2074089.62500000 
0.07500    59326656.00000000 37318104.00000000 94103400.00000000 27932.56835938  2556898.75000000 2026616.12500000 
0.07600    58116988.00000000 36560852.00000000 92188856.00000000 27235.83789062  2498463.50000000 1980355.37500000 
0.07700    56936764.00000000 35821880.00000000 90320432.00000000 26558.80664062  2441556.75000000 1935329.75000000 
0.07800    55784784.00000000 35100416.00000000 88497808.00000000 25901.04101562  2386180.50000000 1891490.37500000 
0.07900    54662104.00000000 34397376.00000000 86720368.00000000 25262.23437500  2332275.25000000 1848844.37500000 
0.08000    53568016.00000000 33711892.00000000 84988920.00000000 24641.96289062  2279848.50000000 1807342.12500000 
0.08100    52502316.00000000 33044726.00000000 83302096.00000000 24039.76171875  2228856.75000000 1766987.87500000 
0.08200    51464580.00000000 32394812.00000000 81660088.00000000 23455.01171875  2179290.25000000 1727747.12500000 
0.08300    50454688.00000000 31762186.00000000 80060576.00000000 22887.58203125  2131106.50000000 1689609.00000000 
0.08400    49471692.00000000 31146702.00000000 78505200.00000000 22336.68359375  2084270.25000000 1652549.25000000 
0.08500    48515704.00000000 30547842.00000000 76991664.00000000 21801.80273438  2038748.75000000 1616517.62500000 
0.08600    47586112.00000000 29965898.00000000 75520672.00000000 21282.80468750  1994536.62500000 1581520.00000000 
0.08700    46682284.00000000 29399942.00000000 74090512.00000000 20778.84765625  1951564.37500000 1547517.37500000 
0.08800    45803792.00000000 28850086.00000000 72700424.00000000 20289.68164062  1909807.00000000 1514478.62500000 
0.08900    44950304.00000000 28315862.00000000 71350256.00000000 19814.62500000  1869258.12500000 1482383.50000000 
0.09000    44121296.00000000 27797022.00000000 70038200.00000000 19353.14453125  1829845.50000000 1451195.62500000 
0.09100    43315692.00000000 27293224.00000000 68763688.00000000 18904.87109375  1791545.25000000 1420888.50000000 
0.09200    42533564.00000000 26803970.00000000 67526224.00000000 18469.59765625  1754330.87500000 1391434.75000000 
0.09300    41773704.00000000 26329032.00000000 66324968.00000000 18046.41796875  1718159.62500000 1362828.62500000 
0.09400    41035836.00000000 25867872.00000000 65158412.00000000 17634.91015625  1682980.25000000 1334994.62500000 
0.09500    40319244.00000000 25420308.00000000 64025588.00000000 17234.78320312  1648780.00000000 1307933.00000000 
0.09600    39623024.00000000 24985652.00000000 62925132.00000000 16845.50781250  1615519.87500000 1281621.50000000 
0.09700    38947372.00000000 24563684.00000000 61857596.00000000 16466.60937500  1583149.37500000 1256023.37500000 
0.09800    38290832.00000000 24154200.00000000 60820076.00000000 16097.90917969  1551652.87500000 1231102.37500000 
0.09900    37653000.00000000 23756460.00000000 59812916.00000000 15738.75292969  1520980.25000000 1206850.12500000 
0.10000    37033340.00000000 23370238.00000000 58834220.00000000 15388.70703125  1491110.87500000 1183235.62500000 
0.10100    36430960.00000000 22995230.00000000 57883632.00000000 15047.53710938  1461998.50000000 1160214.50000000 
0.10200    35845664.00000000 22630956.00000000 56960136.00000000 14714.85253906  1433622.87500000 1137780.25000000 
0.10300    35276252.00000000 22276754.00000000 56062144.00000000 14390.25976562  1405950.62500000 1115890.62500000 
0.10400    34722752.00000000 21932704.00000000 55188356.00000000 14073.57226562  1378938.00000000 1094542.62500000 
0.10500    34184220.00000000 21598016.00000000 54339060.00000000 13764.30175781  1352588.25000000 1073710.25000000 
0.10600    33659624.00000000 21272332.00000000 53512752.00000000 13462.21875000  1326826.00000000 1053338.87500000 
0.10700    33149018.00000000 20955680.00000000 52708064.00000000 13167.03320312  1301663.87500000 1033450.68750000 
0.10800    32651606.00000000 20647152.00000000 51924272.00000000 12878.43066406  1277064.00000000 1014002.93750000 
0.10900    32166322.00000000 20346662.00000000 51160580.00000000 12596.31640625  1252987.87500000 994971.25000000 
0.11000    31693304.00000000 20053860.00000000 50415796.00000000 12320.23339844  1229430.00000000 976339.37500000 
0.11100    31231556.00000000 19768066.00000000 49689488.00000000 12050.13867188  1206360.25000000 958098.87500000 
0.11200    30780916.00000000 19489582.00000000 48980292.00000000 11785.67187500  1183746.75000000 940229.43750000 
0.11300    30340470.00000000 19217500.00000000 48287804.00000000 11526.76660156  1161592.62500000 922697.68750000 
0.11400    29909862.00000000 18951572.00000000 47611264.00000000 11273.20214844  1139848.87500000 905505.62500000 
0.11500    29488898.00000000 18691710.00000000 46949404.00000000 11024.74511719  1118516.00000000 888630.12500000 
0.11600    29076598.00000000 18437534.00000000 46301604.00000000 10781.34082031  1097572.12500000 872067.75000000 
0.11700    28672748.00000000 18188752.00000000 45667380.00000000 10542.83007812  1076994.00000000 855790.62500000 
0.11800    28277232.00000000 17944922.00000000 45045912.00000000 10308.99902344  1056779.87500000 839790.00000000 
0.11900    27888948.00000000 17705874.00000000 44436492.00000000 10079.72167969  1036902.31250000 824061.00000000 
0.12000    27507756.00000000 17471358.00000000 43838116.00000000 9854.93164062   1017353.00000000 808582.31250000 
0.12100    27133602.00000000 17241014.00000000 43251064.00000000 9634.49707031   998118.43750000 793355.75000000 
0.12200    26765642.00000000 17014740.00000000 42673508.00000000 9418.34570312   979183.12500000 778355.87500000 
0.12300    26403960.00000000 16792344.00000000 42105832.00000000 9206.46679688   960545.87500000 763590.43750000 
0.12400    26047822.00000000 16573466.00000000 41547308.00000000 8998.64550781   942186.43750000 749043.81250000 
0.12500    25697236.00000000 16358014.00000000 40997092.00000000 8794.81738281   924103.00000000 734707.93750000 
0.12600    25351816.00000000 16145671.00000000 40454904.00000000 8595.01562500   906281.81250000 720576.62500000 
0.12700    25011170.00000000 15936204.00000000 39920616.00000000 8398.98046875   888714.56250000 706642.56250000 
0.12800    24675060.00000000 15729557.00000000 39393108.00000000 8206.80566406   871400.00000000 692906.31250000 
0.12900    24343260.00000000 15525643.00000000 38872640.00000000 8018.36132812   854324.93750000 679349.00000000 
0.13000    24015524.00000000 15324251.00000000 38358476.00000000 7833.59277344   837486.75000000 665978.06250000 
0.13100    23691818.00000000 15125090.00000000 37850184.00000000 7652.53027344   820877.50000000 652787.81250000 
0.13200    23371628.00000000 14928018.00000000 37347584.00000000 7475.02685547   804500.00000000 639767.43750000 
0.13300    23054998.00000000 14733075.00000000 36850500.00000000 7301.02880859   788337.68750000 626926.43750000 
0.13400    22741558.00000000 14540097.00000000 36358244.00000000 7130.49023438   772390.68750000 614245.31250000 
0.13500    22431460.00000000 14348971.00000000 35871120.00000000 6963.43945312   756668.81250000 601733.56250000 
0.13600    22124294.00000000 14159566.00000000 35388016.00000000 6799.75195312   741148.37500000 589383.18750000 
0.13700    21819788.00000000 13971740.00000000 34909704.00000000 6639.36816406   725839.25000000 577191.06250000 
0.13800    21518048.00000000 13785623.00000000 34435296.00000000 6482.27294922   710734.12500000 565166.18750000 
0.13900    21219258.00000000 13600900.00000000 33964848.00000000 6328.42089844   695831.43750000 553291.37500000 
0.14000    20922852.00000000 13417545.00000000 33498476.00000000 6177.77392578   681131.87500000 541572.31250000 
0.14100    20628800.00000000 13235664.00000000 33035658.00000000 6030.20654297   666637.87500000 530014.00000000 
0.14200    20337052.00000000 13055036.00000000 32576432.00000000 5885.79052734   652331.00000000 518604.31250000 
0.14300    20047848.00000000 12875678.00000000 32120524.00000000 5744.37744141   638228.56250000 507349.75000000 
0.14400    19760576.00000000 12697457.00000000 31667740.00000000 5605.85839844   624313.68750000 496240.06250000 
0.14500    19475724.00000000 12520566.00000000 31218290.00000000 5470.35058594   610597.50000000 485288.43750000 
0.14600    19192776.00000000 12344710.00000000 30772076.00000000 5337.70068359   597072.68750000 474486.81250000 
0.14700    18912176.00000000 12170117.00000000 30329096.00000000 5207.84130859   583743.00000000 463834.68750000 
0.14800    18633510.00000000 11996507.00000000 29889110.00000000 5080.72607422   570601.37500000 453331.53125000 
0.14900    18357002.00000000 11824077.00000000 29451858.00000000 4956.30566406   557649.81250000 442977.65625000 
0.15000    18082570.00000000 11652603.00000000 29017844.00000000 4834.51318359   544885.62500000 432771.21875000 
0.15100    17810020.00000000 11482366.00000000 28586838.00000000 4715.31347656   532314.75000000 422712.90625000 
0.15200    17539626.00000000 11313120.00000000 28158814.00000000 4598.71679688   519924.15625000 412802.78125000 
0.15300    17271258.00000000 11145067.00000000 27733796.00000000 4484.51513672   507724.62500000 403043.03125000 
0.15400    17004780.00000000 10978064.00000000 27311678.00000000 4372.73632812   495710.21875000 393424.18750000 
0.15500    16740337.00000000 10812156.00000000 26892700.00000000 4263.33740234   483880.46875000 383954.34375000 
0.15600    16478103.00000000 10647325.00000000 26476576.00000000 4156.22900391   472235.87500000 374629.84375000 
0.15700    16218055.00000000 10483758.00000000 26063914.00000000 4051.39062500   460777.28125000 365455.40625000 
0.15800    15959755.00000000 10321214.00000000 25654030.00000000 3948.69360352   449492.06250000 356419.96875000 
0.15900    15703796.00000000 10159882.00000000 25247402.00000000 3848.17138672   438394.06250000 347530.93750000 
0.16000    15449875.00000000 9999687.00000000 24843918.00000000 3749.72509766   427477.03125000 338783.62500000 
0.16100    15198197.00000000 9840640.00000000 24443778.00000000 3653.34033203   416740.37500000 330188.31250000 
0.16200    14948746.00000000 9682903.00000000 24046732.00000000 3558.93530273   406182.87500000 321728.90625000 
0.16300    14701421.00000000 9526369.00000000 23653112.00000000 3466.48242188   395800.96875000 313413.84375000 
0.16400    14456423.00000000 9371160.00000000 23263086.00000000 3375.92700195   385598.25000000 305242.96875000 
0.16500    14213701.00000000 9217285.00000000 22876234.00000000 3287.23120117   375571.12500000 297211.18750000 
0.16600    13973321.00000000 9064686.00000000 22493166.00000000 3200.34741211   365717.84375000 289321.25000000 
0.16700    13735219.00000000 8913440.00000000 22113606.00000000 3115.22827148   356038.12500000 281568.12500000 
0.16800    13499547.00000000 8763547.00000000 21737664.00000000 3031.85400391   346526.84375000 273955.43750000 
0.16900    13266275.00000000 8615054.00000000 21365386.00000000 2950.21142578   337196.68750000 266485.09375000 
0.17000    13035531.00000000 8468029.00000000 20996880.00000000 2870.23388672   328033.25000000 259150.46875000 
