# SAXS profile: number of points = 501, q_min = 0, q_max = 0.5, delta_q = 0.001
#    q    intensity 
0.00000    162234736.00000000 101201472.00000000 256270592.00000000 97220.47656250  7943022.00000000 6273364.00000000 
0.00100    162195328.00000000 101175640.00000000 256205776.00000000 97187.02343750  7940601.00000000 6271464.00000000 
0.00200    162072624.00000000 101097432.00000000 256006816.00000000 97087.59375000  7933417.50000000 6265833.50000000 
0.00300    161863872.00000000 100966872.00000000 255675440.00000000 96922.21093750  7921446.50000000 6256398.50000000 
0.00400    161568000.00000000 100784760.00000000 255212352.00000000 96691.28906250  7904676.00000000 6243187.00000000 
0.00500    161188592.00000000 100552112.00000000 254619152.00000000 96395.31250000  7883213.50000000 6226319.00000000 
0.00600    160729056.00000000 100266704.00000000 253894016.00000000 96034.81250000  7857084.00000000 6205708.00000000 
0.00700    160185472.00000000 99931640.00000000 253043264.00000000 95611.33593750  7826328.50000000 6181481.00000000 
0.00800    159561808.00000000 99547600.00000000 252065056.00000000 95125.54687500  7791037.00000000 6153704.00000000 
0.00900    158862944.00000000 99114608.00000000 250963008.00000000 94578.75000000  7751265.50000000 6122400.50000000 
0.01000    158084064.00000000 98633392.00000000 249738320.00000000 93971.28125000  7707112.50000000 6087665.00000000 
0.01100    157231040.00000000 98104176.00000000 248393056.00000000 93305.47656250  7658658.00000000 6049500.50000000 
0.01200    156299648.00000000 97528912.00000000 246930032.00000000 92583.49218750  7606125.00000000 6008088.00000000 
0.01300    155297456.00000000 96908744.00000000 245354016.00000000 91806.84375000  7549431.50000000 5963501.00000000 
0.01400    154223008.00000000 96244360.00000000 243665520.00000000 90977.41406250  7488838.00000000 5915764.00000000 
0.01500    153082592.00000000 95538376.00000000 241869184.00000000 90095.25781250  7424423.50000000 5864989.50000000 
0.01600    151872864.00000000 94791096.00000000 239968496.00000000 89165.04687500  7356326.50000000 5811382.50000000 
0.01700    150599360.00000000 94002648.00000000 237964832.00000000 88188.82031250  7284732.50000000 5755059.50000000 
0.01800    149266016.00000000 93176720.00000000 235864352.00000000 87166.38281250  7209790.00000000 5695993.50000000 
0.01900    147869952.00000000 92313832.00000000 233671088.00000000 86102.50781250  7131571.00000000 5634410.00000000 
0.02000    146419584.00000000 91415944.00000000 231386688.00000000 84998.90625000  7050334.50000000 5570444.00000000 
0.02100    144914704.00000000 90484112.00000000 229020464.00000000 83857.35156250  6966210.00000000 5504141.50000000 
0.02200    143358816.00000000 89520072.00000000 226567952.00000000 82681.63281250  6879394.50000000 5435748.00000000 
0.02300    141753008.00000000 88526280.00000000 224042608.00000000 81474.42187500  6789981.00000000 5365326.50000000 
0.02400    140102992.00000000 87502760.00000000 221445216.00000000 80236.67968750  6698238.00000000 5293045.50000000 
0.02500    138408832.00000000 86454584.00000000 218778496.00000000 78972.16406250  6604359.50000000 5219000.50000000 
0.02600    136675952.00000000 85380624.00000000 216049984.00000000 77683.46875000  6508405.00000000 5143460.50000000 
0.02700    134905280.00000000 84283864.00000000 213261952.00000000 76373.46875000  6410658.00000000 5066416.50000000 
0.02800    133101560.00000000 83165352.00000000 210422816.00000000 75044.45312500  6311324.50000000 4988119.50000000 
0.02900    131267928.00000000 82028200.00000000 207533600.00000000 73699.78125000  6210516.50000000 4908615.50000000 
0.03000    129405288.00000000 80873416.00000000 204600256.00000000 72341.07812500  6108410.50000000 4828175.00000000 
0.03100    127517952.00000000 79702848.00000000 201628160.00000000 70971.56250000  6005228.00000000 4746833.50000000 
0.03200    125610112.00000000 78519232.00000000 198622128.00000000 69593.95312500  5901194.00000000 4664815.00000000 
0.03300    123682560.00000000 77322976.00000000 195585472.00000000 68210.66406250  5796404.00000000 4582176.00000000 
0.03400    121740056.00000000 76117992.00000000 192525104.00000000 66823.67187500  5691092.00000000 4499197.00000000 
0.03500    119784256.00000000 74904536.00000000 189445408.00000000 65436.51171875  5585410.00000000 4415860.00000000 
0.03600    117818544.00000000 73685000.00000000 186347184.00000000 64050.65234375  5479549.00000000 4332332.50000000 
0.03700    115847656.00000000 72459840.00000000 183238288.00000000 62668.66015625  5373620.50000000 4248827.00000000 
0.03800    113871464.00000000 71232456.00000000 180123920.00000000 61292.48437500  5267843.50000000 4165360.25000000 
0.03900    111893864.00000000 70003488.00000000 177007392.00000000 59925.11328125  5162368.50000000 4082131.50000000 
0.04000    109918320.00000000 68776048.00000000 173892192.00000000 58567.82812500  5057259.50000000 3999248.75000000 
0.04100    107947248.00000000 67550864.00000000 170782928.00000000 57222.38281250  4952773.00000000 3916800.50000000 
0.04200    105982120.00000000 66328340.00000000 167683984.00000000 55891.33203125  4849001.00000000 3834939.75000000 
0.04300    104024920.00000000 65111732.00000000 164598976.00000000 54575.84765625  4746158.00000000 3753738.75000000 
0.04400    102080440.00000000 63902216.00000000 161531680.00000000 53277.67968750  4644223.50000000 3673293.50000000 
0.04500    100149360.00000000 62700508.00000000 158484496.00000000 51998.57812500  4543417.50000000 3593738.50000000 
0.04600    98234480.00000000 61508560.00000000 155460608.00000000 50740.02343750  4443832.50000000 3515121.00000000 
0.04700    96336440.00000000 60327196.00000000 152467568.00000000 49503.06640625  4345595.00000000 3437559.25000000 
0.04800    94459176.00000000 59157904.00000000 149503312.00000000 48288.71093750  4248776.00000000 3361102.50000000 
0.04900    92602624.00000000 58001860.00000000 146574672.00000000 47098.62500000  4153428.25000000 3285856.75000000 
0.05000    90770264.00000000 56860348.00000000 143681504.00000000 45933.07421875  4059721.50000000 3211846.00000000 
0.05100    88962760.00000000 55733928.00000000 140827280.00000000 44793.44921875  3967712.00000000 3139175.50000000 
0.05200    87181392.00000000 54623628.00000000 138014352.00000000 43680.21093750  3877403.75000000 3067851.75000000 
0.05300    85428656.00000000 53530436.00000000 135246512.00000000 42593.92187500  3788951.50000000 2998011.75000000 
0.05400    83704080.00000000 52455764.00000000 132524576.00000000 41535.06250000  3702363.25000000 2929585.50000000 
0.05500    82010776.00000000 51399608.00000000 129850000.00000000 40504.16796875  3617668.00000000 2862667.00000000 
0.05600    80349808.00000000 50362800.00000000 127224520.00000000 39501.30859375  3534933.50000000 2797313.00000000 
0.05700    78718904.00000000 49346192.00000000 124649552.00000000 38526.82031250  3454169.75000000 2733509.00000000 
0.05800    77123160.00000000 48349984.00000000 122127864.00000000 37581.10546875  3375418.50000000 2671277.00000000 
0.05900    75560296.00000000 47374700.00000000 119658440.00000000 36663.22265625  3298698.75000000 2610647.00000000 
0.06000    74032608.00000000 46420836.00000000 117244280.00000000 35773.60937500  3224009.75000000 2551650.25000000 
0.06100    72539704.00000000 45488700.00000000 114884792.00000000 34911.97656250  3151398.00000000 2494250.00000000 
0.06200    71082480.00000000 44578600.00000000 112581032.00000000 34078.35156250  3080808.25000000 2438471.50000000 
0.06300    69660072.00000000 43690692.00000000 110334040.00000000 33271.82812500  3012268.25000000 2384290.00000000 
0.06400    68273624.00000000 42824944.00000000 108143112.00000000 32492.60351562  2945724.25000000 2331722.25000000 
0.06500    66924176.00000000 41981680.00000000 106009208.00000000 31739.52148438  2881220.25000000 2280724.25000000 
0.06600    65609548.00000000 41160428.00000000 103931848.00000000 31012.09570312  2818658.75000000 2231302.75000000 
0.06700    64331168.00000000 40362204.00000000 101911144.00000000 30310.00585938  2758060.00000000 2183414.75000000 
0.06800    63088188.00000000 39585764.00000000 99945808.00000000 29632.39062500  2699391.50000000 2137054.25000000 
0.06900    61880604.00000000 38831516.00000000 98037968.00000000 28978.58203125  2642619.50000000 2092185.12500000 
0.07000    60708036.00000000 38098836.00000000 96184504.00000000 28347.57031250  2587677.50000000 2048785.75000000 
0.07100    59570204.00000000 37388500.00000000 94385400.00000000 27738.97265625  2534527.25000000 2006800.50000000 
0.07200    58466048.00000000 36698800.00000000 92640856.00000000 27151.34570312  2483141.50000000 1966191.37500000 
0.07300    57395468.00000000 36030820.00000000 90948376.00000000 26584.41210938  2433461.75000000 1926937.12500000 
0.07400    56357536.00000000 35383240.00000000 89308936.00000000 26037.01562500  2385403.25000000 1888989.50000000 
0.07500    55352216.00000000 34755476.00000000 87720128.00000000 25508.24218750  2338949.00000000 1852306.37500000 
0.07600    54378088.00000000 34147836.00000000 86181184.00000000 24997.19726562  2294035.75000000 1816849.75000000 
0.07700    53434000.00000000 33559344.00000000 84690680.00000000 24503.28320312  2250597.75000000 1782542.75000000 
0.07800    52520084.00000000 32989730.00000000 83247968.00000000 24025.05468750  2208561.25000000 1749362.00000000 
0.07900    51635380.00000000 32438258.00000000 81850752.00000000 23561.89453125  2167883.00000000 1717268.87500000 
0.08000    50778068.00000000 31904588.00000000 80497536.00000000 23112.86328125  2128500.00000000 1686189.37500000 
0.08100    49948632.00000000 31388186.00000000 79188160.00000000 22677.19140625  2090358.62500000 1656093.12500000 
0.08200    49144996.00000000 30888134.00000000 77920424.00000000 22253.91601562  2053370.62500000 1626936.25000000 
0.08300    48366600.00000000 30404106.00000000 76692688.00000000 21842.32617188  2017510.25000000 1598653.37500000 
0.08400    47612488.00000000 29935564.00000000 75503520.00000000 21441.28906250  1982690.87500000 1571193.50000000 
0.08500    46881552.00000000 29481906.00000000 74352048.00000000 21050.42773438  1948851.62500000 1544544.62500000 
0.08600    46172632.00000000 29042272.00000000 73235240.00000000 20668.66992188  1915964.00000000 1518627.12500000 
0.08700    45485136.00000000 28616086.00000000 72152544.00000000 20295.64257812  1883937.12500000 1493394.12500000 
0.08800    44817876.00000000 28202892.00000000 71102248.00000000 19930.32031250  1852740.12500000 1468806.62500000 
0.08900    44169660.00000000 27802058.00000000 70082240.00000000 19572.25195312  1822289.37500000 1444841.62500000 
0.09000    43540308.00000000 27412776.00000000 69092832.00000000 19220.89648438  1792550.50000000 1421427.87500000 
0.09100    42928132.00000000 27034586.00000000 68130624.00000000 18875.58398438  1763480.37500000 1398542.50000000 
0.09200    42332416.00000000 26667078.00000000 67194192.00000000 18535.61132812  1735011.87500000 1376141.62500000 
0.09300    41752032.00000000 26309446.00000000 66282208.00000000 18200.82226562  1707115.12500000 1354194.25000000 
0.09400    41186488.00000000 25960888.00000000 65394392.00000000 17870.55664062  1679731.37500000 1332656.87500000 
0.09500    40634080.00000000 25621226.00000000 64528360.00000000 17544.45312500  1652840.25000000 1311490.75000000 
0.09600    40095076.00000000 25289748.00000000 63682540.00000000 17222.16406250  1626397.12500000 1290683.00000000 
0.09700    39567796.00000000 24966028.00000000 62855440.00000000 16903.57226562  1600336.87500000 1270190.00000000 
0.09800    39051968.00000000 24649578.00000000 62047828.00000000 16588.27929688  1574666.12500000 1249994.12500000 
0.09900    38546748.00000000 24339786.00000000 61256048.00000000 16275.78515625  1549334.75000000 1230065.25000000 
0.10000    38051292.00000000 24035898.00000000 60479708.00000000 15966.21777344  1524303.00000000 1210375.62500000 
0.10100    37564756.00000000 23738184.00000000 59717956.00000000 15659.35058594  1499568.62500000 1190906.25000000 
0.10200    37086508.00000000 23445610.00000000 58969596.00000000 15354.94433594  1475087.37500000 1171647.50000000 
0.10300    36615632.00000000 23158144.00000000 58233480.00000000 15052.96777344  1450839.00000000 1152563.25000000 
0.10400    36152620.00000000 22875094.00000000 57509116.00000000 14753.47753906  1426826.25000000 1133666.00000000 
0.10500    35695880.00000000 22596118.00000000 56794844.00000000 14456.23242188  1403012.12500000 1114915.50000000 
0.10600    35245336.00000000 22320938.00000000 56090300.00000000 14161.19335938  1379397.37500000 1096311.25000000 
0.10700    34800372.00000000 22049296.00000000 55394468.00000000 13868.83300781  1355955.87500000 1077849.87500000 
0.10800    34360616.00000000 21781052.00000000 54706744.00000000 13578.76855469  1332687.12500000 1059514.75000000 
0.10900    33925148.00000000 21515386.00000000 54026796.00000000 13291.20800781  1309576.12500000 1041290.75000000 
0.11000    33494662.00000000 21252620.00000000 53353612.00000000 13006.19433594  1286635.25000000 1023192.75000000 
0.11100    33068046.00000000 20992212.00000000 52686296.00000000 12723.77929688  1263825.87500000 1005210.25000000 
0.11200    32644974.00000000 20733962.00000000 52025228.00000000 12444.18554688  1241193.25000000 987332.50000000 
0.11300    32225444.00000000 20477886.00000000 51369208.00000000 12167.45703125  1218694.12500000 969566.18750000 
0.11400    31808986.00000000 20223434.00000000 50718000.00000000 11893.87695312  1196345.12500000 951912.87500000 
0.11500    31395604.00000000 19970974.00000000 50071436.00000000 11623.40429688  1174150.75000000 934375.25000000 
0.11600    30984978.00000000 19720096.00000000 49428992.00000000 11356.30566406  1152126.62500000 916949.25000000 
0.11700    30576968.00000000 19470360.00000000 48790196.00000000 11092.66406250  1130257.62500000 899653.25000000 
0.11800    30171388.00000000 19222170.00000000 48155280.00000000 10832.68847656  1108542.50000000 882472.18750000 
0.11900    29768294.00000000 18975230.00000000 47524028.00000000 10576.41503906  1087009.12500000 865415.50000000 
0.12000    29367660.00000000 18729482.00000000 46895840.00000000 10324.02734375  1065663.37500000 848496.00000000 
0.12100    28969138.00000000 18484982.00000000 46271520.00000000 10075.88769531  1044501.00000000 831718.81250000 
0.12200    28572764.00000000 18241548.00000000 45649788.00000000 9831.84570312   1023531.31250000 815083.31250000 
0.12300    28178662.00000000 17999262.00000000 45031216.00000000 9592.17480469   1002771.25000000 798607.50000000 
0.12400    27786646.00000000 17757946.00000000 44415188.00000000 9356.95996094   982217.75000000 782284.43750000 
0.12500    27396858.00000000 17517754.00000000 43803372.00000000 9126.21386719   961887.43750000 766126.00000000 
0.12600    27009404.00000000 17278730.00000000 43194444.00000000 8900.27929688   941787.18750000 750148.62500000 
0.12700    26624116.00000000 17040792.00000000 42588444.00000000 8678.96289062   921924.87500000 734345.31250000 
0.12800    26241010.00000000 16803958.00000000 41985844.00000000 8462.42773438   902309.81250000 718737.81250000 
0.12900    25860376.00000000 16568337.00000000 41386808.00000000 8250.97656250   882947.00000000 703323.62500000 
0.13000    25482240.00000000 16333893.00000000 40791008.00000000 8044.32470703   863849.37500000 688102.25000000 
0.13100    25106344.00000000 16100735.00000000 40198496.00000000 7842.57177734   845015.12500000 673089.06250000 
0.13200    24733398.00000000 15868956.00000000 39610188.00000000 7645.84667969   826458.37500000 658298.75000000 
0.13300    24362918.00000000 15638498.00000000 39025496.00000000 7454.06982422   808185.12500000 643715.00000000 
0.13400    23995212.00000000 15409471.00000000 38444992.00000000 7267.25927734   790205.50000000 629355.56250000 
0.13500    23630576.00000000 15181906.00000000 37868352.00000000 7085.40625000   772512.81250000 615221.50000000 
0.13600    23268824.00000000 14955902.00000000 37296328.00000000 6908.38378906   755121.56250000 601333.81250000 
0.13700    22909978.00000000 14731502.00000000 36728852.00000000 6736.23974609   738027.75000000 587669.00000000 
0.13800    22554280.00000000 14508846.00000000 36165488.00000000 6568.86816406   721238.87500000 574246.37500000 
0.13900    22201998.00000000 14287871.00000000 35607220.00000000 6406.25000000   704765.62500000 561066.75000000 
0.14000    21852860.00000000 14068660.00000000 35054196.00000000 6248.16943359   688596.56250000 548124.37500000 
0.14100    21507148.00000000 13851406.00000000 34505648.00000000 6094.65478516   672740.00000000 535429.62500000 
0.14200    21164938.00000000 13635996.00000000 33962416.00000000 5945.51171875   657182.93750000 522976.62500000 
0.14300    20826386.00000000 13422712.00000000 33424964.00000000 5800.62451172   641947.75000000 510770.12500000 
0.14400    20491404.00000000 13211311.00000000 32892478.00000000 5659.89892578   627016.75000000 498807.53125000 
0.14500    20160126.00000000 13002023.00000000 32365870.00000000 5523.25341797   612398.50000000 487090.96875000 
0.14600    19832718.00000000 12794998.00000000 31844840.00000000 5390.52050781   598079.12500000 475614.59375000 
0.14700    19509004.00000000 12589971.00000000 31329720.00000000 5261.47949219   584063.37500000 464382.28125000 
0.14800    19189238.00000000 12387301.00000000 30820180.00000000 5136.02978516   570350.43750000 453385.43750000 
0.14900    18873360.00000000 12186809.00000000 30316974.00000000 5014.02685547   556929.50000000 442626.81250000 
0.15000    18561288.00000000 11988714.00000000 29819566.00000000 4895.38476562   543803.50000000 432099.06250000 
0.15100    18253254.00000000 11792909.00000000 29328610.00000000 4779.89257812   530953.37500000 421798.34375000 
0.15200    17949418.00000000 11599613.00000000 28843742.00000000 4667.34716797   518396.78125000 411723.96875000 
0.15300    17649550.00000000 11408550.00000000 28364938.00000000 4557.70605469   506107.81250000 401876.00000000 
0.15400    17353466.00000000 11219902.00000000 27892152.00000000 4450.76855469   494089.68750000 392238.78125000 
0.15500    17061942.00000000 11033804.00000000 27426036.00000000 4346.35986328   482333.25000000 382815.12500000 
0.15600    16773903.00000000 10849959.00000000 26966240.00000000 4244.36816406   470834.68750000 373595.15625000 
0.15700    16490384.00000000 10668713.00000000 26512702.00000000 4144.70654297   459585.31250000 364584.50000000 
0.15800    16210630.00000000 10489825.00000000 26065170.00000000 4047.19799805   448575.40625000 355766.12500000 
0.15900    15935024.00000000 10313465.00000000 25624258.00000000 3951.69140625   437802.56250000 347140.09375000 
0.16000    15663240.00000000 10139508.00000000 25189436.00000000 3858.11474609   427261.00000000 338698.68750000 
0.16100    15395618.00000000 9968030.00000000 24760904.00000000 3766.37646484   416941.15625000 330438.84375000 
0.16200    15131829.00000000 9799031.00000000 24338814.00000000 3676.32714844   406838.50000000 322356.09375000 
0.16300    14872046.00000000 9632342.00000000 23922712.00000000 3587.87744141   396944.06250000 314442.34375000 
0.16400    14616077.00000000 9468150.00000000 23512752.00000000 3500.96191406   387251.03125000 306694.50000000 
0.16500    14363998.00000000 9306315.00000000 23108878.00000000 3415.51806641   377756.28125000 299105.21875000 
0.16600    14115672.00000000 9147037.00000000 22711036.00000000 3331.46777344   368450.62500000 291671.93750000 
0.16700    13871048.00000000 8989993.00000000 22319074.00000000 3248.68359375   359324.87500000 284384.43750000 
0.16800    13630206.00000000 8835226.00000000 21933012.00000000 3167.14941406   350379.46875000 277247.09375000 
0.16900    13393086.00000000 8682878.00000000 21552930.00000000 3086.89062500   341603.00000000 270247.40625000 
0.17000    13159481.00000000 8532836.00000000 21178688.00000000 3007.79907227   332995.56250000 263384.84375000 
