# SAXS profile: number of points = 501, q_min = 0, q_max = 0.5, delta_q = 0.001
#    q    intensity 
0.00000    162234976.00000000 101201608.00000000 256270704.00000000 104215.34375000 8223837.50000000 6495151.50000000 
0.00100    162201760.00000000 101179520.00000000 256214896.00000000 104185.60937500 8221714.00000000 6493504.00000000 
0.00200    162095824.00000000 101113704.00000000 256045728.00000000 104096.50781250 8215378.50000000 6488564.00000000 
0.00300    161920240.00000000 101003416.00000000 255764240.00000000 103947.85156250 8204845.00000000 6480262.00000000 
0.00400    161669168.00000000 100848784.00000000 255370096.00000000 103741.00781250 8190184.00000000 6468712.50000000 
0.00500    161345104.00000000 100650872.00000000 254866064.00000000 103475.41406250 8171329.00000000 6453925.00000000 
0.00600    160951712.00000000 100408064.00000000 254249616.00000000 103151.74218750 8148310.00000000 6435860.50000000 
0.00700    160488320.00000000 100123856.00000000 253524208.00000000 102770.82031250 8121249.00000000 6414633.50000000 
0.00800    159952336.00000000 99797336.00000000 252691280.00000000 102332.54687500 8090153.00000000 6390156.50000000 
0.00900    159351312.00000000 99428168.00000000 251747648.00000000 101839.45312500 8055061.00000000 6362617.00000000 
0.01000    158683040.00000000 99017992.00000000 250699824.00000000 101290.72656250 8016032.50000000 6331964.50000000 
0.01100    157949376.00000000 98567160.00000000 249547408.00000000 100688.31250000 7973136.00000000 6298293.00000000 
0.01200    157150768.00000000 98074848.00000000 248292416.00000000 100033.03125000 7926479.50000000 6261634.50000000 
0.01300    156284896.00000000 97543088.00000000 246936752.00000000 99326.06250000  7876099.00000000 6222043.50000000 
0.01400    155355536.00000000 96972544.00000000 245482688.00000000 98569.43750000  7822126.50000000 6179647.50000000 
0.01500    154366080.00000000 96363680.00000000 243930288.00000000 97763.04687500  7764613.50000000 6134478.50000000 
0.01600    153318432.00000000 95718680.00000000 242285120.00000000 96909.65625000  7703620.00000000 6086577.50000000 
0.01700    152210672.00000000 95038080.00000000 240546384.00000000 96010.35156250  7639338.00000000 6036049.00000000 
0.01800    151044768.00000000 94321224.00000000 238720080.00000000 95066.45312500  7571839.00000000 5983003.00000000 
0.01900    149824240.00000000 93571000.00000000 236805664.00000000 94080.54687500  7501191.00000000 5927505.50000000 
0.02000    148551088.00000000 92787496.00000000 234807024.00000000 93053.53125000  7427533.50000000 5869627.00000000 
0.02100    147226016.00000000 91972192.00000000 232727312.00000000 91987.73437500  7351051.50000000 5809484.50000000 
0.02200    145850032.00000000 91126008.00000000 230570736.00000000 90883.99218750  7271761.00000000 5747187.00000000 
0.02300    144426672.00000000 90250056.00000000 228337888.00000000 89745.67187500  7189845.00000000 5682795.50000000 
0.02400    142958368.00000000 89345696.00000000 226031632.00000000 88573.74218750  7105390.50000000 5616434.00000000 
0.02500    141445680.00000000 88414960.00000000 223658288.00000000 87370.60937500  7018602.50000000 5548211.00000000 
0.02600    139891408.00000000 87456992.00000000 221217792.00000000 86138.78125000  6929584.00000000 5478210.50000000 
0.02700    138298400.00000000 86475536.00000000 218716416.00000000 84878.48437500  6838404.50000000 5406582.50000000 
0.02800    136666256.00000000 85470928.00000000 216156272.00000000 83593.11718750  6745343.00000000 5333368.50000000 
0.02900    135000576.00000000 84443352.00000000 213539824.00000000 82285.32812500  6650400.50000000 5258716.50000000 
0.03000    133301424.00000000 83396320.00000000 210872464.00000000 80956.50000000  6553814.50000000 5182751.00000000 
0.03100    131572072.00000000 82329648.00000000 208156144.00000000 79608.85156250  6455670.50000000 5105550.00000000 
0.03200    129813432.00000000 81245640.00000000 205394720.00000000 78244.12500000  6356102.50000000 5027245.50000000 
0.03300    128029200.00000000 80144840.00000000 202592496.00000000 76864.31250000  6255333.50000000 4947937.50000000 
0.03400    126221816.00000000 79029064.00000000 199751008.00000000 75472.09375000  6153377.00000000 4867746.50000000 
0.03500    124392112.00000000 77899960.00000000 196876368.00000000 74069.46875000  6050490.00000000 4786812.50000000 
0.03600    122543136.00000000 76758504.00000000 193970544.00000000 72658.32812500  5946769.00000000 4705178.50000000 
0.03700    120677192.00000000 75606976.00000000 191038864.00000000 71240.01562500  5842343.00000000 4623016.50000000 
0.03800    118796936.00000000 74445736.00000000 188083760.00000000 69817.92187500  5737401.00000000 4540377.50000000 
0.03900    116903912.00000000 73275976.00000000 185106784.00000000 68393.23437500  5631994.50000000 4457435.00000000 
0.04000    114999824.00000000 72099552.00000000 182112304.00000000 66967.80468750  5526306.00000000 4374215.50000000 
0.04100    113088864.00000000 70917296.00000000 179105872.00000000 65543.23437500  5420438.50000000 4290888.00000000 
0.04200    111171440.00000000 69731056.00000000 176090160.00000000 64121.51953125  5314550.50000000 4207471.00000000 
0.04300    109249976.00000000 68542192.00000000 173066896.00000000 62704.80468750  5208770.50000000 4124160.00000000 
0.04400    107327456.00000000 67351680.00000000 170041552.00000000 61294.58984375  5103194.00000000 4040985.50000000 
0.04500    105404272.00000000 66161148.00000000 167014288.00000000 59892.13671875  4997959.00000000 3958071.50000000 
0.04600    103484504.00000000 64971492.00000000 163992864.00000000 58499.50000000  4893200.00000000 3875518.50000000 
0.04700    101568024.00000000 63784760.00000000 160975632.00000000 57118.19531250  4788975.50000000 3793381.50000000 
0.04800    99658576.00000000 62600724.00000000 157968368.00000000 55749.59375000  4685384.00000000 3711763.50000000 
0.04900    97756424.00000000 61421564.00000000 154973600.00000000 54394.77734375  4582658.00000000 3630753.00000000 
0.05000    95864680.00000000 60247892.00000000 151992672.00000000 53055.72265625  4480739.50000000 3550406.50000000 
0.05100    93983968.00000000 59080796.00000000 149030304.00000000 51733.22265625  4379849.50000000 3470823.50000000 
0.05200    92116544.00000000 57921496.00000000 146086864.00000000 50428.25390625  4279900.50000000 3392034.50000000 
0.05300    90264464.00000000 56771260.00000000 143167248.00000000 49142.26953125  4181206.50000000 3314178.25000000 
0.05400    88428544.00000000 55630368.00000000 140273440.00000000 47876.10156250  4083703.00000000 3237220.25000000 
0.05500    86610096.00000000 54500152.00000000 137405456.00000000 46631.09375000  3987513.00000000 3161313.50000000 
0.05600    84811288.00000000 53381512.00000000 134568400.00000000 45407.49609375  3892660.50000000 3086442.50000000 
0.05700    83033128.00000000 52275168.00000000 131763848.00000000 44206.51562500  3799275.25000000 3012736.25000000 
0.05800    81276472.00000000 51182016.00000000 128991560.00000000 43028.71093750  3707356.25000000 2940173.25000000 
0.05900    79542464.00000000 50102768.00000000 126256240.00000000 41875.00781250  3617026.00000000 2868826.75000000 
0.06000    77832968.00000000 49037772.00000000 123557896.00000000 40745.49609375  3528292.50000000 2798731.25000000 
0.06100    76149368.00000000 47988540.00000000 120898936.00000000 39641.13281250  3441202.25000000 2729917.25000000 
0.06200    74490744.00000000 46955472.00000000 118280344.00000000 38561.61718750  3355809.50000000 2662450.50000000 
0.06300    72860400.00000000 45938228.00000000 115705232.00000000 37508.05078125  3272163.00000000 2596358.50000000 
0.06400    71256976.00000000 44937820.00000000 113171896.00000000 36480.59375000  3190261.75000000 2531587.25000000 
0.06500    69682832.00000000 43955372.00000000 110684392.00000000 35478.73046875  3110122.00000000 2468250.25000000 
0.06600    68137968.00000000 42990500.00000000 108242528.00000000 34503.71093750  3031878.50000000 2406343.00000000 
0.06700    66622276.00000000 42043656.00000000 105846968.00000000 33554.73828125  2955382.75000000 2345855.25000000 
0.06800    65137792.00000000 41115652.00000000 103499600.00000000 32631.94726562  2880759.00000000 2286800.50000000 
0.06900    63684252.00000000 40206896.00000000 101200000.00000000 31735.79101562  2807979.50000000 2229234.25000000 
0.07000    62261588.00000000 39317056.00000000 98950064.00000000 30865.72460938  2737087.25000000 2173099.75000000 
0.07100    60870616.00000000 38446916.00000000 96749072.00000000 30021.37304688  2668013.25000000 2118427.75000000 
0.07200    59511676.00000000 37595676.00000000 94599256.00000000 29202.95507812  2600804.00000000 2065214.00000000 
0.07300    58184820.00000000 36764892.00000000 92498424.00000000 28410.09960938  2535463.75000000 2013452.25000000 
0.07400    56889872.00000000 35953336.00000000 90449064.00000000 27642.61718750  2471927.00000000 1963143.37500000 
0.07500    55627840.00000000 35162112.00000000 88449704.00000000 26899.78906250  2410234.50000000 1914255.37500000 
0.07600    54397592.00000000 34390728.00000000 86501072.00000000 26181.25976562  2350348.75000000 1866801.12500000 
0.07700    53199592.00000000 33639260.00000000 84603400.00000000 25486.85546875  2292252.50000000 1820744.62500000 
0.07800    52033812.00000000 32907852.00000000 82757312.00000000 24815.74414062  2235914.75000000 1776075.62500000 
0.07900    50899880.00000000 32196074.00000000 80959784.00000000 24167.81640625  2181291.50000000 1732778.75000000 
0.08000    49797908.00000000 31504038.00000000 79213424.00000000 23542.19921875  2128423.00000000 1690835.37500000 
0.08100    48726968.00000000 30831518.00000000 77515624.00000000 22938.55273438  2077205.00000000 1650214.62500000 
0.08200    47687368.00000000 30178550.00000000 75868280.00000000 22356.03125000  2027633.25000000 1610876.87500000 
0.08300    46678716.00000000 29544498.00000000 74267600.00000000 21794.26171875  1979689.50000000 1572824.25000000 
0.08400    45700320.00000000 28929738.00000000 72716800.00000000 21252.64257812  1933278.37500000 1536014.50000000 
0.08500    44751976.00000000 28333512.00000000 71213272.00000000 20730.37304688  1888429.75000000 1500396.62500000 
0.08600    43833372.00000000 27755536.00000000 69755568.00000000 20226.78710938  1845088.87500000 1465974.25000000 
0.08700    42943452.00000000 27195902.00000000 68343824.00000000 19741.27539062  1803178.75000000 1432697.50000000 
0.08800    42082304.00000000 26653992.00000000 66977976.00000000 19273.26953125  1762691.87500000 1400541.25000000 
0.08900    41248604.00000000 26129568.00000000 65655292.00000000 18822.03125000  1723567.00000000 1369466.12500000 
0.09000    40442356.00000000 25622418.00000000 64376364.00000000 18386.74023438  1685779.00000000 1339448.12500000 
0.09100    39663072.00000000 25131976.00000000 63139120.00000000 17966.99414062  1649253.62500000 1310425.75000000 
0.09200    38909432.00000000 24657708.00000000 61943588.00000000 17562.01953125  1613974.62500000 1282398.37500000 
0.09300    38181548.00000000 24199640.00000000 60788784.00000000 17171.12109375  1579887.75000000 1255312.25000000 
0.09400    37477696.00000000 23757062.00000000 59672248.00000000 16793.72265625  1546948.50000000 1229134.25000000 
0.09500    36798008.00000000 23329558.00000000 58594080.00000000 16428.82617188  1515100.12500000 1203811.12500000 
0.09600    36141636.00000000 22916814.00000000 57553652.00000000 16076.19921875  1484312.62500000 1179342.00000000 
0.09700    35508384.00000000 22518454.00000000 56548680.00000000 15735.29003906  1454544.00000000 1155679.25000000 
0.09800    34896652.00000000 22133908.00000000 55578148.00000000 15405.16503906  1425733.12500000 1132773.12500000 
0.09900    34306088.00000000 21762802.00000000 54641724.00000000 15085.48339844  1397850.25000000 1110611.50000000 
0.10000    33735608.00000000 21404508.00000000 53737784.00000000 14775.57910156  1370858.00000000 1089144.37500000 
0.10100    33185018.00000000 21058772.00000000 52864820.00000000 14474.99121094  1344687.25000000 1068352.75000000 
0.10200    32653524.00000000 20725032.00000000 52022356.00000000 14183.05175781  1319321.50000000 1048186.37500000 
0.10300    32139802.00000000 20402882.00000000 51208796.00000000 13899.30273438  1294710.25000000 1028627.43750000 
0.10400    31643874.00000000 20092018.00000000 50423136.00000000 13623.26660156  1270817.75000000 1009638.12500000 
0.10500    31164718.00000000 19791780.00000000 49664212.00000000 13354.53808594  1247612.50000000 991197.56250000 
0.10600    30701286.00000000 19501562.00000000 48930572.00000000 13092.56640625  1225042.62500000 973255.50000000 
0.10700    30253278.00000000 19221226.00000000 48222148.00000000 12836.95214844  1203075.37500000 955818.43750000 
0.10800    29819960.00000000 18950324.00000000 47536408.00000000 12587.29199219  1181700.25000000 938819.25000000 
0.10900    29400340.00000000 18688396.00000000 46873292.00000000 12343.24609375  1160850.00000000 922260.31250000 
0.11000    28994182.00000000 18434750.00000000 46231244.00000000 12104.52539062  1140508.00000000 906106.06250000 
0.11100    28600652.00000000 18189566.00000000 45609404.00000000 11870.73925781  1120663.25000000 890336.25000000 
0.11200    28218768.00000000 17951660.00000000 45006828.00000000 11641.47460938  1101241.75000000 874922.50000000 
0.11300    27848180.00000000 17721042.00000000 44421584.00000000 11416.49121094  1082255.50000000 859846.18750000 
0.11400    27488378.00000000 17497706.00000000 43854284.00000000 11195.73925781  1063667.12500000 845082.93750000 
0.11500    27138618.00000000 17280216.00000000 43302956.00000000 10978.67089844  1045445.93750000 830625.56250000 
0.11600    26798420.00000000 17069238.00000000 42766864.00000000 10765.29980469  1027569.43750000 816442.75000000 
0.11700    26467168.00000000 16863972.00000000 42245116.00000000 10555.21582031  1010024.87500000 802515.50000000 
0.11800    26144162.00000000 16663917.00000000 41736388.00000000 10348.40136719  992777.31250000 788837.50000000 
0.11900    25828814.00000000 16469009.00000000 41240636.00000000 10144.51855469  975819.62500000 775384.43750000 
0.12000    25520980.00000000 16278817.00000000 40756500.00000000 9943.65625000   959127.25000000 762148.62500000 
0.12100    25220054.00000000 16093148.00000000 40283604.00000000 9745.55664062   942693.00000000 749114.81250000 
0.12200    24925350.00000000 15911514.00000000 39820456.00000000 9550.06347656   926494.12500000 736266.87500000 
0.12300    24636796.00000000 15733707.00000000 39367220.00000000 9357.11523438   910515.75000000 723598.50000000 
0.12400    24353582.00000000 15559367.00000000 38922524.00000000 9166.71777344   894751.75000000 711102.18750000 
0.12500    24075396.00000000 15388168.00000000 38486256.00000000 8978.63964844   879182.12500000 698759.00000000 
0.12600    23801890.00000000 15220241.00000000 38057332.00000000 8793.01855469   863807.68750000 686568.62500000 
0.12700    23532752.00000000 15054927.00000000 37635200.00000000 8609.58300781   848606.06250000 674525.93750000 
0.12800    23267674.00000000 14892068.00000000 37219608.00000000 8428.49609375   833578.00000000 662612.68750000 
0.12900    23006214.00000000 14731599.00000000 36809716.00000000 8249.63183594   818716.62500000 650834.50000000 
0.13000    22748026.00000000 14573356.00000000 36405024.00000000 8073.02343750   804014.75000000 639179.31250000 
0.13100    22492774.00000000 14416830.00000000 36005192.00000000 7898.64160156   789461.62500000 627647.00000000 
0.13200    22240596.00000000 14262118.00000000 35609724.00000000 7726.50781250   775059.87500000 616234.37500000 
0.13300    21990744.00000000 14108907.00000000 35218544.00000000 7556.55371094   760799.18750000 604931.31250000 
0.13400    21743254.00000000 13957121.00000000 34830648.00000000 7388.91406250   746682.18750000 593740.81250000 
0.13500    21497730.00000000 13806624.00000000 34445980.00000000 7223.51953125   732706.62500000 582662.00000000 
0.13600    21254112.00000000 13657136.00000000 34064128.00000000 7060.41406250   718866.43750000 571688.37500000 
0.13700    21012042.00000000 13508649.00000000 33684908.00000000 6899.61523438   705160.75000000 560824.06250000 
0.13800    20771598.00000000 13361057.00000000 33307720.00000000 6741.14501953   691592.56250000 550061.93750000 
0.13900    20532606.00000000 13214223.00000000 32933006.00000000 6585.07763672   678159.06250000 539410.12500000 
0.14000    20294650.00000000 13068012.00000000 32559750.00000000 6431.36230469   664863.18750000 528863.93750000 
0.14100    20057856.00000000 12922404.00000000 32188308.00000000 6280.12451172   651699.87500000 518423.09375000 
0.14200    19821992.00000000 12777273.00000000 31818084.00000000 6131.34667969   638676.87500000 508088.90625000 
0.14300    19587206.00000000 12632626.00000000 31449138.00000000 5985.01074219   625787.00000000 497864.06250000 
0.14400    19352912.00000000 12488150.00000000 31081224.00000000 5841.23193359   613043.12500000 487746.71875000 
0.14500    19119444.00000000 12344090.00000000 30714380.00000000 5699.98828125   600437.12500000 477742.68750000 
0.14600    18886770.00000000 12200356.00000000 30348272.00000000 5561.28027344   587974.25000000 467849.12500000 
0.14700    18654480.00000000 12056779.00000000 29983152.00000000 5425.20996094   575663.18750000 458065.81250000 
0.14800    18423074.00000000 11913368.00000000 29618518.00000000 5291.72509766   563492.25000000 448401.81250000 
0.14900    18191982.00000000 11770131.00000000 29254434.00000000 5160.84863281   551465.68750000 438850.03125000 
0.15000    17961258.00000000 11627017.00000000 28891218.00000000 5032.62744141   539595.81250000 429419.34375000 
0.15100    17731312.00000000 11483983.00000000 28528170.00000000 4907.05908203   527880.75000000 420104.53125000 
0.15200    17501682.00000000 11341163.00000000 28166096.00000000 4784.15625000   516320.28125000 410914.00000000 
0.15300    17272738.00000000 11198522.00000000 27804364.00000000 4663.93164062   504912.40625000 401844.56250000 
0.15400    17044140.00000000 11055896.00000000 27443146.00000000 4546.33886719   493666.65625000 392896.93750000 
0.15500    16816008.00000000 10913467.00000000 27082780.00000000 4431.42285156   482578.90625000 384078.09375000 
0.15600    16588698.00000000 10771150.00000000 26722824.00000000 4319.14941406   471652.31250000 375379.53125000 
0.15700    16361683.00000000 10628960.00000000 26363562.00000000 4209.59521484   460892.62500000 366815.93750000 
0.15800    16135419.00000000 10487016.00000000 26004976.00000000 4102.59228516   450296.15625000 358377.15625000 
0.15900    15909730.00000000 10345224.00000000 25647050.00000000 3998.22753906   439864.81250000 350071.43750000 
0.16000    15684788.00000000 10203681.00000000 25290240.00000000 3896.51245117   429605.40625000 341894.18750000 
0.16100    15460565.00000000 10062407.00000000 24934336.00000000 3797.33911133   419512.18750000 333849.28125000 
0.16200    15237082.00000000 9921416.00000000 24579264.00000000 3700.73046875   409588.12500000 325934.28125000 
0.16300    15014472.00000000 9780776.00000000 24225278.00000000 3606.65161133   399829.25000000 318154.12500000 
0.16400    14792732.00000000 9640499.00000000 23872462.00000000 3515.07080078   390248.18750000 310509.00000000 
0.16500    14571913.00000000 9500595.00000000 23520862.00000000 3425.96704102   380831.40625000 302995.65625000 
0.16600    14352062.00000000 9361127.00000000 23170706.00000000 3339.27490234   371587.78125000 295615.68750000 
0.16700    14133216.00000000 9222057.00000000 22821834.00000000 3254.97021484   362511.75000000 288368.00000000 
0.16800    13915554.00000000 9083573.00000000 22474558.00000000 3173.00366211   353604.65625000 281255.00000000 
0.16900    13699176.00000000 8945704.00000000 22129088.00000000 3093.39770508   344872.62500000 274273.46875000 
0.17000    13483906.00000000 8808376.00000000 21785208.00000000 3016.07592773   336303.12500000 267426.21875000 
