# SAXS profile: number of points = 501, q_min = 0, q_max = 0.5, delta_q = 0.001
#    q    intensity 
0.00000    162236928.00000000 101202024.00000000 256271952.00000000 104599.83593750 8238978.50000000 6507112.50000000 
0.00100    162204128.00000000 101180576.00000000 256217392.00000000 104571.36718750 8236971.00000000 6505540.50000000 
0.00200    162102336.00000000 101116776.00000000 256054464.00000000 104486.10937500 8230966.50000000 6500800.50000000 
0.00300    161931808.00000000 101010352.00000000 255785632.00000000 104343.16406250 8220852.50000000 6492873.50000000 
0.00400    161691248.00000000 100862480.00000000 255407808.00000000 104144.12500000 8206854.00000000 6481822.50000000 
0.00500    161382432.00000000 100672016.00000000 254922496.00000000 103888.57812500 8188798.00000000 6467692.00000000 
0.00600    161005088.00000000 100440024.00000000 254331776.00000000 103577.55468750 8166826.50000000 6450390.50000000 
0.00700    160561312.00000000 100165816.00000000 253634720.00000000 103211.21875000 8140952.00000000 6430043.00000000 
0.00800    160050688.00000000 99851440.00000000 252834960.00000000 102789.95312500 8111189.00000000 6406653.50000000 
0.00900    159474224.00000000 99496936.00000000 251930752.00000000 102315.15625000 8077626.50000000 6380225.00000000 
0.01000    158833952.00000000 99101904.00000000 250925024.00000000 101787.45312500 8040281.00000000 6350886.00000000 
0.01100    158129936.00000000 98667688.00000000 249818816.00000000 101206.78125000 7999215.50000000 6318614.50000000 
0.01200    157363792.00000000 98194760.00000000 248614528.00000000 100575.76562500 7954546.50000000 6283466.50000000 
0.01300    156535872.00000000 97683296.00000000 247312000.00000000 99894.46093750  7906307.50000000 6245523.50000000 
0.01400    155645776.00000000 97134336.00000000 245914752.00000000 99164.71093750  7854563.00000000 6204842.50000000 
0.01500    154695936.00000000 96549000.00000000 244424112.00000000 98386.77343750  7799416.50000000 6161482.00000000 
0.01600    153690992.00000000 95927800.00000000 242842736.00000000 97563.07031250  7740918.50000000 6115459.50000000 
0.01700    152626656.00000000 95272104.00000000 241172784.00000000 96694.35937500  7679248.50000000 6066955.50000000 
0.01800    151509360.00000000 94582200.00000000 239417168.00000000 95782.46875000  7614398.50000000 6015962.00000000 
0.01900    150337856.00000000 93859544.00000000 237576336.00000000 94828.53125000  7546515.50000000 5962553.00000000 
0.02000    149114272.00000000 93104880.00000000 235654336.00000000 93834.47656250  7475728.00000000 5906915.00000000 
0.02100    147842608.00000000 92319280.00000000 233654256.00000000 92802.39062500  7402140.00000000 5849009.00000000 
0.02200    146520416.00000000 91503848.00000000 231578240.00000000 91733.23437500  7325817.00000000 5788966.50000000 
0.02300    145153824.00000000 90659248.00000000 229428656.00000000 90628.09375000  7246946.50000000 5726910.50000000 
0.02400    143741264.00000000 89787968.00000000 227210560.00000000 89491.00781250  7165538.00000000 5662872.50000000 
0.02500    142287856.00000000 88889384.00000000 224925856.00000000 88321.89843750  7081820.50000000 5596978.00000000 
0.02600    140790752.00000000 87966560.00000000 222573744.00000000 87123.21093750  6995895.50000000 5529388.00000000 
0.02700    139258112.00000000 87019416.00000000 220163776.00000000 85897.17968750  6907815.00000000 5460111.50000000 
0.02800    137686736.00000000 86049208.00000000 217694960.00000000 84645.07031250  6817809.50000000 5389263.50000000 
0.02900    136082672.00000000 85057896.00000000 215173488.00000000 83369.17187500  6725956.50000000 5316979.50000000 
0.03000    134445808.00000000 84046880.00000000 212600240.00000000 82071.89062500  6632377.00000000 5243343.00000000 
0.03100    132778080.00000000 83016088.00000000 209977888.00000000 80754.88281250  6537226.00000000 5168451.00000000 
0.03200    131082728.00000000 81968744.00000000 207313536.00000000 79419.00000000  6440638.00000000 5092422.00000000 
0.03300    129361360.00000000 80904872.00000000 204606016.00000000 78067.91406250  6342728.50000000 5015390.00000000 
0.03400    127616656.00000000 79826232.00000000 201861616.00000000 76702.75000000  6243619.50000000 4937362.50000000 
0.03500    125849720.00000000 78734248.00000000 199084688.00000000 75325.36718750  6143495.50000000 4858542.00000000 
0.03600    124063224.00000000 77629880.00000000 196274592.00000000 73938.54687500  6042430.50000000 4778991.50000000 
0.03700    122259360.00000000 76514440.00000000 193438368.00000000 72542.67968750  5940578.00000000 4698801.50000000 
0.03800    120440696.00000000 75389520.00000000 190576976.00000000 71141.44531250  5838086.00000000 4618120.50000000 
0.03900    118609544.00000000 74257064.00000000 187696768.00000000 69735.03906250  5735094.50000000 4536987.50000000 
0.04000    116766912.00000000 73117368.00000000 184797984.00000000 68326.97656250  5631656.00000000 4455567.50000000 
0.04100    114914848.00000000 71971992.00000000 181885792.00000000 66917.60156250  5527985.00000000 4373905.50000000 
0.04200    113056688.00000000 70822640.00000000 178961072.00000000 65509.65234375  5424168.50000000 4292109.50000000 
0.04300    111194384.00000000 69668968.00000000 176029600.00000000 64104.32031250  5320277.50000000 4210294.50000000 
0.04400    109328112.00000000 68513448.00000000 173094672.00000000 62703.53125000  5216504.50000000 4128528.50000000 
0.04500    107462008.00000000 67358224.00000000 170156992.00000000 61308.58984375  5112923.00000000 4046940.50000000 
0.04600    105596720.00000000 66202612.00000000 167220672.00000000 59921.44531250  5009697.00000000 3965580.75000000 
0.04700    103734496.00000000 65049392.00000000 164289040.00000000 58543.71093750  4906846.00000000 3884538.00000000 
0.04800    101876608.00000000 63898780.00000000 161365104.00000000 57176.55078125  4804582.00000000 3803951.50000000 
0.04900    100026592.00000000 62751804.00000000 158452416.00000000 55821.39453125  4702898.50000000 3723814.25000000 
0.05000    98184584.00000000 61609860.00000000 155551200.00000000 54479.93750000  4602004.50000000 3644254.25000000 
0.05100    96352376.00000000 60474300.00000000 152665904.00000000 53152.87109375  4501898.00000000 3565357.00000000 
0.05200    94531616.00000000 59345456.00000000 149799088.00000000 51841.78906250  4402720.50000000 3487157.75000000 
0.05300    92724208.00000000 58224940.00000000 146952080.00000000 50547.76171875  4304567.00000000 3409753.00000000 
0.05400    90932920.00000000 57112948.00000000 144128960.00000000 49271.80078125  4207497.50000000 3333219.25000000 
0.05500    89156416.00000000 56011416.00000000 141330768.00000000 48015.22656250  4111594.50000000 3257573.75000000 
0.05600    87397640.00000000 54919664.00000000 138559616.00000000 46778.64453125  4016915.75000000 3182896.25000000 
0.05700    85657968.00000000 53839788.00000000 135819248.00000000 45562.87890625  3923572.75000000 3109248.25000000 
0.05800    83938424.00000000 52772332.00000000 133110312.00000000 44369.10156250  3831577.25000000 3036681.25000000 
0.05900    82239840.00000000 51717596.00000000 130433200.00000000 43197.94140625  3741055.50000000 2965227.25000000 
0.06000    80564696.00000000 50676824.00000000 127791360.00000000 42049.61718750  3652000.50000000 2894938.00000000 
0.06100    78912808.00000000 49650392.00000000 125186712.00000000 40924.86718750  3564494.50000000 2825877.50000000 
0.06200    77284840.00000000 48638624.00000000 122619800.00000000 39825.03125000  3478551.00000000 2758049.75000000 
0.06300    75682016.00000000 47642604.00000000 120093488.00000000 38749.30078125  3394277.50000000 2691498.50000000 
0.06400    74105952.00000000 46662084.00000000 117607200.00000000 37698.77734375  3311622.25000000 2626243.00000000 
0.06500    72556488.00000000 45698640.00000000 115163264.00000000 36673.44531250  3230702.75000000 2562348.50000000 
0.06600    71034816.00000000 44751964.00000000 112762520.00000000 35673.97656250  3151505.75000000 2499773.00000000 
0.06700    69541208.00000000 43822424.00000000 110405384.00000000 34700.18359375  3074057.50000000 2438585.75000000 
0.06800    68075968.00000000 42910944.00000000 108093688.00000000 33752.37890625  2998365.50000000 2378788.75000000 
0.06900    66640196.00000000 42017052.00000000 105828592.00000000 32830.57031250  2924483.50000000 2320408.00000000 
0.07000    65234616.00000000 41141316.00000000 103608776.00000000 31934.24414062  2852393.75000000 2263421.75000000 
0.07100    63858088.00000000 40283772.00000000 101436024.00000000 31064.00195312  2782096.75000000 2207843.75000000 
0.07200    62511780.00000000 39444672.00000000 99311232.00000000 30219.48437500  2713614.75000000 2153692.75000000 
0.07300    61196544.00000000 38625036.00000000 97233864.00000000 29400.51757812  2646910.50000000 2100962.50000000 
0.07400    59911312.00000000 37823768.00000000 95204704.00000000 28606.84179688  2582026.75000000 2049654.62500000 
0.07500    58656668.00000000 37041580.00000000 93222392.00000000 27838.28515625  2518949.00000000 1999735.37500000 
0.07600    57433020.00000000 36278396.00000000 91289176.00000000 27094.45312500  2457647.00000000 1951256.62500000 
0.07700    56239248.00000000 35533576.00000000 89403824.00000000 26374.79101562  2398079.50000000 1904135.75000000 
0.07800    55076540.00000000 34807700.00000000 87566536.00000000 25679.14843750  2340296.00000000 1858386.87500000 
0.07900    53944044.00000000 34100892.00000000 85776600.00000000 25006.97656250  2284202.50000000 1814003.00000000 
0.08000    52841512.00000000 33412356.00000000 84034624.00000000 24357.76367188  2229845.00000000 1770955.25000000 
0.08100    51769312.00000000 32742610.00000000 82339312.00000000 23731.34765625  2177144.50000000 1729228.62500000 
0.08200    50726176.00000000 32090970.00000000 80690624.00000000 23126.47851562  2126087.00000000 1688804.87500000 
0.08300    49712560.00000000 31457606.00000000 79087008.00000000 22543.06250000  2076662.00000000 1649644.25000000 
0.08400    48727536.00000000 30841896.00000000 77529680.00000000 21980.48632812  2028809.75000000 1611731.50000000 
0.08500    47771196.00000000 30244114.00000000 76017112.00000000 21438.26367188  1982502.12500000 1575045.00000000 
0.08600    46842740.00000000 29663560.00000000 74548752.00000000 20915.30078125  1937688.37500000 1539533.62500000 
0.08700    45941920.00000000 29100076.00000000 73123720.00000000 20411.44531250  1894375.25000000 1505203.50000000 
0.08800    45067620.00000000 28553146.00000000 71740576.00000000 19925.68164062  1852454.75000000 1471977.75000000 
0.08900    44220028.00000000 28022808.00000000 70399080.00000000 19457.65039062  1811937.37500000 1439849.25000000 
0.09000    43397760.00000000 27508442.00000000 69099280.00000000 19006.40625000  1772776.62500000 1408800.87500000 
0.09100    42601000.00000000 27009658.00000000 67837536.00000000 18571.26171875  1734913.25000000 1378765.37500000 
0.09200    41828560.00000000 26526176.00000000 66615060.00000000 18151.70507812  1698303.87500000 1349727.00000000 
0.09300    41080152.00000000 26057522.00000000 65430736.00000000 17747.25976562  1662911.50000000 1321651.25000000 
0.09400    40354556.00000000 25603274.00000000 64282284.00000000 17356.68945312  1628679.75000000 1294492.37500000 
0.09500    39651464.00000000 25162916.00000000 63169556.00000000 16979.69921875  1595575.12500000 1268225.50000000 
0.09600    38970752.00000000 24736444.00000000 62091076.00000000 16615.75976562  1563551.37500000 1242803.87500000 
0.09700    38310568.00000000 24322948.00000000 61046068.00000000 16263.89550781  1532551.50000000 1218209.00000000 
0.09800    37670868.00000000 23922112.00000000 60033728.00000000 15923.57519531  1502544.37500000 1194379.00000000 
0.09900    37050216.00000000 23533854.00000000 59051396.00000000 15594.16796875  1473481.12500000 1171317.25000000 
0.10000    36448808.00000000 23156978.00000000 58099588.00000000 15274.95312500  1445307.62500000 1148949.25000000 
0.10100    35865600.00000000 22791722.00000000 57175872.00000000 14965.60546875  1417996.75000000 1127256.37500000 
0.10200    35299700.00000000 22437420.00000000 56280376.00000000 14665.34082031  1391489.00000000 1106210.37500000 
0.10300    34750368.00000000 22093408.00000000 55410996.00000000 14373.58593750  1365757.37500000 1085770.25000000 
0.10400    34217380.00000000 21759468.00000000 54566544.00000000 14089.90039062  1340743.50000000 1065914.12500000 
0.10500    33699356.00000000 21435294.00000000 53747244.00000000 13813.72656250  1316423.62500000 1046598.62500000 
0.10600    33195892.00000000 21119836.00000000 52949880.00000000 13544.38183594  1292747.87500000 1027781.50000000 
0.10700    32706368.00000000 20813406.00000000 52175100.00000000 13281.73242188  1269678.00000000 1009461.43750000 
0.10800    32229874.00000000 20515284.00000000 51420764.00000000 13025.10839844  1247185.75000000 991600.93750000 
0.10900    31765554.00000000 20224698.00000000 50686500.00000000 12774.08203125  1225219.75000000 974157.18750000 
0.11000    31313596.00000000 19941972.00000000 49971112.00000000 12528.25878906  1203758.12500000 957118.93750000 
0.11100    30872524.00000000 19666030.00000000 49273156.00000000 12287.25781250  1182770.37500000 940445.37500000 
0.11200    30442234.00000000 19396842.00000000 48592332.00000000 12050.79394531  1162217.00000000 924123.06250000 
0.11300    30021652.00000000 19133870.00000000 47927044.00000000 11818.43945312  1142077.50000000 908123.25000000 
0.11400    29610404.00000000 18876726.00000000 47276676.00000000 11590.02148438  1122314.37500000 892427.18750000 
0.11500    29208042.00000000 18625390.00000000 46640184.00000000 11365.07812500  1102907.37500000 877013.68750000 
0.11600    28813858.00000000 18379180.00000000 46017136.00000000 11143.54199219  1083820.00000000 861859.18750000 
0.11700    28427454.00000000 18137856.00000000 45406024.00000000 10924.99316406  1065048.75000000 846945.62500000 
0.11800    28048198.00000000 17900974.00000000 44806492.00000000 10709.35839844  1046551.87500000 832258.00000000 
0.11900    27675886.00000000 17668408.00000000 44217964.00000000 10496.28222656  1028317.75000000 817779.87500000 
0.12000    27309590.00000000 17439810.00000000 43638828.00000000 10285.79199219  1010331.75000000 803489.12500000 
0.12100    26949256.00000000 17214986.00000000 43069596.00000000 10077.74609375  992563.93750000 789380.37500000 
0.12200    26594328.00000000 16993478.00000000 42508476.00000000 9871.87109375   975012.81250000 775441.87500000 
0.12300    26244574.00000000 16775260.00000000 41955668.00000000 9668.18261719   957658.62500000 761652.25000000 
0.12400    25899412.00000000 16559897.00000000 41410540.00000000 9466.47558594   940480.06250000 748008.68750000 
0.12500    25558396.00000000 16347308.00000000 40871784.00000000 9266.80371094   923473.43750000 734503.56250000 
0.12600    25221916.00000000 16137359.00000000 40340056.00000000 9069.08691406   906632.75000000 721133.68750000 
0.12700    24888610.00000000 15929600.00000000 39813748.00000000 8873.27050781   889940.81250000 707869.81250000 
0.12800    24559234.00000000 15724176.00000000 39292904.00000000 8679.31152344   873393.37500000 694726.93750000 
0.12900    24232702.00000000 15520604.00000000 38777188.00000000 8487.33007812   856991.31250000 681696.00000000 
0.13000    23909318.00000000 15319004.00000000 38266456.00000000 8297.23828125   840717.87500000 668771.12500000 
0.13100    23588702.00000000 15119110.00000000 37760060.00000000 8109.09179688   824575.56250000 655941.62500000 
0.13200    23270666.00000000 14920728.00000000 37257556.00000000 7922.87402344   808557.56250000 643213.81250000 
0.13300    22955118.00000000 14723927.00000000 36758972.00000000 7738.66162109   792675.31250000 630592.87500000 
0.13400    22641930.00000000 14528552.00000000 36263584.00000000 7556.49169922   776913.25000000 618062.06250000 
0.13500    22330670.00000000 14334380.00000000 35772256.00000000 7376.50195312   761275.81250000 605628.50000000 
0.13600    22021748.00000000 14141492.00000000 35283608.00000000 7198.64306641   745756.25000000 593293.25000000 
0.13700    21714588.00000000 13949724.00000000 34798380.00000000 7023.04541016   730376.00000000 581059.56250000 
0.13800    21409334.00000000 13759121.00000000 34315788.00000000 6849.81884766   715116.93750000 568924.37500000 
0.13900    21105898.00000000 13569686.00000000 33835884.00000000 6678.95751953   699996.43750000 556893.62500000 
0.14000    20804394.00000000 13381145.00000000 33358712.00000000 6510.61718750   685006.68750000 544973.62500000 
0.14100    20504536.00000000 13193719.00000000 32884528.00000000 6344.82519531   670162.37500000 533156.25000000 
0.14200    20206582.00000000 13007264.00000000 32413000.00000000 6181.69042969   655456.56250000 521452.43750000 
0.14300    19910200.00000000 12821902.00000000 31944090.00000000 6021.32080078   640904.43750000 509865.71875000 
0.14400    19615632.00000000 12637415.00000000 31477630.00000000 5863.71533203   626501.37500000 498392.18750000 
0.14500    19322754.00000000 12454009.00000000 31014002.00000000 5709.04833984   612262.75000000 487047.09375000 
0.14600    19031802.00000000 12271479.00000000 30553092.00000000 5557.31738281   598185.43750000 475830.06250000 
0.14700    18742724.00000000 12090206.00000000 30095024.00000000 5408.68896484   584285.12500000 464745.96875000 
0.14800    18455318.00000000 11909893.00000000 29639658.00000000 5263.12158203   570545.31250000 453796.06250000 
0.14900    18170014.00000000 11730678.00000000 29187422.00000000 5120.72705078   556991.93750000 442991.25000000 
0.15000    17886504.00000000 11552557.00000000 28737902.00000000 4981.57128906   543631.25000000 432326.43750000 
0.15100    17605378.00000000 11375661.00000000 28291574.00000000 4845.67333984   530452.93750000 421815.00000000 
0.15200    17326314.00000000 11199934.00000000 27848574.00000000 4713.18750000   517477.81250000 411457.87500000 
0.15300    17049232.00000000 11025464.00000000 27408834.00000000 4584.00341797   504703.84375000 401254.78125000 
0.15400    16774435.00000000 10852269.00000000 26972522.00000000 4458.21728516   492134.84375000 391214.71875000 
0.15500    16502080.00000000 10680478.00000000 26539628.00000000 4335.86132812   479779.59375000 381341.18750000 
0.15600    16232064.00000000 10509974.00000000 26110638.00000000 4216.93652344   467636.28125000 371635.59375000 
0.15700    15964706.00000000 10341051.00000000 25685326.00000000 4101.46728516   455713.40625000 362103.90625000 
0.15800    15699722.00000000 10173392.00000000 25263666.00000000 3989.47119141   444014.40625000 352741.53125000 
0.15900    15437502.00000000 10007399.00000000 24846424.00000000 3880.91357422   432542.37500000 343562.12500000 
0.16000    15177948.00000000 9842970.00000000 24433096.00000000 3775.78198242   421296.34375000 334562.46875000 
0.16100    14921327.00000000 9680141.00000000 24024066.00000000 3674.08886719   410285.12500000 325744.56250000 
0.16200    14667455.00000000 9518986.00000000 23619640.00000000 3575.79687500   399507.21875000 317109.34375000 
0.16300    14416525.00000000 9359636.00000000 23219768.00000000 3480.84936523   388965.03125000 308664.15625000 
0.16400    14168707.00000000 9201936.00000000 22824134.00000000 3389.24682617   378657.31250000 300400.06250000 
0.16500    13923911.00000000 9046098.00000000 22433616.00000000 3300.91479492   368592.09375000 292327.78125000 
0.16600    13682301.00000000 8892230.00000000 22047734.00000000 3215.78613281   358759.90625000 284440.93750000 
0.16700    13443813.00000000 8740060.00000000 21666616.00000000 3133.81835938   349164.34375000 276740.15625000 
0.16800    13208442.00000000 8589817.00000000 21290564.00000000 3054.93530273   339807.15625000 269229.09375000 
0.16900    12976632.00000000 8441656.00000000 20919784.00000000 2979.13183594   330687.78125000 261905.81250000 
0.17000    12747994.00000000 8295334.00000000 20554014.00000000 2906.24536133   321802.50000000 254765.45312500 
