# SAXS profile: number of points = 501, q_min = 0, q_max = 0.5, delta_q = 0.001
#    q    intensity 
0.00000    162238512.00000000 101202304.00000000 256270672.00000000 104363.26562500 8229666.00000000 6499756.50000000 
0.00100    162209088.00000000 101183568.00000000 256223408.00000000 104338.31250000 8227897.50000000 6498378.00000000 
0.00200    162120288.00000000 101128104.00000000 256083296.00000000 104261.85937500 8222614.00000000 6494213.50000000 
0.00300    161972816.00000000 101035616.00000000 255849520.00000000 104134.87500000 8213750.00000000 6487239.00000000 
0.00400    161764128.00000000 100907240.00000000 255520784.00000000 103957.52343750 8201408.00000000 6477560.50000000 
0.00500    161495392.00000000 100741136.00000000 255099920.00000000 103730.00781250 8185587.00000000 6465112.50000000 
0.00600    161166912.00000000 100539064.00000000 254584128.00000000 103452.60937500 8166232.50000000 6449910.00000000 
0.00700    160780608.00000000 100300504.00000000 253977248.00000000 103125.37500000 8143459.00000000 6431989.00000000 
0.00800    160335216.00000000 100026800.00000000 253281040.00000000 102749.77343750 8117276.00000000 6411398.00000000 
0.00900    159830512.00000000 99717080.00000000 252492368.00000000 102325.05468750 8087677.50000000 6388174.50000000 
0.01000    159270640.00000000 99372216.00000000 251613616.00000000 101852.95312500 8054739.00000000 6362250.00000000 
0.01100    158657104.00000000 98992928.00000000 250647328.00000000 101333.46093750 8018504.00000000 6333785.50000000 
0.01200    157987424.00000000 98579344.00000000 249593536.00000000 100767.62500000 7978977.00000000 6302744.00000000 
0.01300    157263280.00000000 98132304.00000000 248453536.00000000 100156.49218750 7936290.50000000 6269166.00000000 
0.01400    156483088.00000000 97651024.00000000 247230048.00000000 99500.15625000  7890464.00000000 6233132.50000000 
0.01500    155648848.00000000 97137928.00000000 245921488.00000000 98800.47656250  7841506.50000000 6194648.50000000 
0.01600    154763936.00000000 96591992.00000000 244531968.00000000 98058.21093750  7789566.00000000 6153815.50000000 
0.01700    153829072.00000000 96013888.00000000 243062224.00000000 97273.91406250  7734646.00000000 6110599.50000000 
0.01800    152843200.00000000 95405912.00000000 241514080.00000000 96449.65625000  7676823.50000000 6065154.50000000 
0.01900    151809552.00000000 94768080.00000000 239888288.00000000 95585.52343750  7616189.50000000 6017500.00000000 
0.02000    150727632.00000000 94100960.00000000 238188560.00000000 94683.36718750  7552873.50000000 5967674.50000000 
0.02100    149599680.00000000 93404864.00000000 236417616.00000000 93744.30468750  7486870.00000000 5915791.00000000 
0.02200    148426016.00000000 92680768.00000000 234574592.00000000 92769.66406250  7418304.00000000 5861855.00000000 
0.02300    147209792.00000000 91929728.00000000 232661760.00000000 91760.46093750  7347240.50000000 5805997.50000000 
0.02400    145950016.00000000 91152744.00000000 230684032.00000000 90718.64062500  7273784.50000000 5748240.50000000 
0.02500    144650176.00000000 90351120.00000000 228641472.00000000 89646.00781250  7198030.50000000 5688624.00000000 
0.02600    143312176.00000000 89524200.00000000 226537936.00000000 88542.47656250  7120047.00000000 5627319.50000000 
0.02700    141934880.00000000 88674448.00000000 224373088.00000000 87410.91406250  7040027.50000000 5564375.50000000 
0.02800    140521344.00000000 87801560.00000000 222152336.00000000 86252.53125000  6957921.00000000 5499798.50000000 
0.02900    139072544.00000000 86907504.00000000 219875968.00000000 85068.91406250  6873897.50000000 5433714.00000000 
0.03000    137590736.00000000 85993040.00000000 217548432.00000000 83860.57812500  6788097.50000000 5366236.00000000 
0.03100    136078560.00000000 85059288.00000000 215171424.00000000 82630.87500000  6700581.50000000 5297391.50000000 
0.03200    134535968.00000000 84106184.00000000 212746480.00000000 81379.71875000  6611419.00000000 5227234.50000000 
0.03300    132964880.00000000 83136248.00000000 210276496.00000000 80110.01562500  6520756.50000000 5155932.50000000 
0.03400    131366840.00000000 82149528.00000000 207765952.00000000 78822.08593750  6428752.00000000 5083524.00000000 
0.03500    129744456.00000000 81147144.00000000 205214352.00000000 77519.18750000  6335428.50000000 5010099.50000000 
0.03600    128098616.00000000 80130144.00000000 202627600.00000000 76201.67187500  6240882.50000000 4935723.50000000 
0.03700    126430968.00000000 79099784.00000000 200006176.00000000 74871.29687500  6145343.50000000 4860496.50000000 
0.03800    124743760.00000000 78057584.00000000 197353856.00000000 73529.89843750  6048727.00000000 4784494.50000000 
0.03900    123038688.00000000 77004328.00000000 194672400.00000000 72178.82812500  5951310.00000000 4707829.00000000 
0.04000    121316280.00000000 75939808.00000000 191966112.00000000 70819.81250000  5853090.00000000 4630542.50000000 
0.04100    119580440.00000000 74866408.00000000 189234176.00000000 69454.73437500  5754245.50000000 4552683.50000000 
0.04200    117830832.00000000 73785328.00000000 186484496.00000000 68084.75000000  5654797.50000000 4474437.00000000 
0.04300    116070080.00000000 72696768.00000000 183715984.00000000 66711.25781250  5554954.50000000 4395824.00000000 
0.04400    114299728.00000000 71602200.00000000 180930944.00000000 65336.32421875  5454730.50000000 4316947.50000000 
0.04500    112520824.00000000 70503128.00000000 178133888.00000000 63960.81250000  5354287.50000000 4237833.50000000 
0.04600    110736448.00000000 69399424.00000000 175327440.00000000 62586.71875000  5253682.50000000 4158623.50000000 
0.04700    108947272.00000000 68292472.00000000 172512080.00000000 61214.95703125  5153002.00000000 4079331.25000000 
0.04800    107154664.00000000 67182824.00000000 169692272.00000000 59847.31640625  5052389.00000000 4000094.00000000 
0.04900    105360568.00000000 66073044.00000000 166870752.00000000 58485.09765625  4951909.00000000 3920949.75000000 
0.05000    103566376.00000000 64962868.00000000 164047072.00000000 57129.13671875  4851673.00000000 3841990.75000000 
0.05100    101774608.00000000 63853552.00000000 161227744.00000000 55781.17578125  4751744.00000000 3763271.50000000 
0.05200    99984232.00000000 62745856.00000000 158410784.00000000 54442.43359375  4652244.00000000 3684861.25000000 
0.05300    98199608.00000000 61640828.00000000 155601872.00000000 53113.77343750  4553217.50000000 3606835.50000000 
0.05400    96420904.00000000 60539228.00000000 152801296.00000000 51797.18750000  4454768.50000000 3529269.25000000 
0.05500    94648960.00000000 59442108.00000000 150013152.00000000 50492.66406250  4357014.00000000 3452204.75000000 
0.05600    92886576.00000000 58350108.00000000 147238592.00000000 49202.04296875  4259935.50000000 3375710.00000000 
0.05700    91133800.00000000 57264028.00000000 144478624.00000000 47925.92578125  4163718.50000000 3299837.00000000 
0.05800    89392336.00000000 56184792.00000000 141736224.00000000 46665.44531250  4068357.75000000 3224665.75000000 
0.05900    87663048.00000000 55113248.00000000 139013904.00000000 45421.50000000  3973959.00000000 3150206.75000000 
0.06000    85947720.00000000 54049748.00000000 136312336.00000000 44194.85156250  3880549.25000000 3076576.00000000 
0.06100    84247192.00000000 52995456.00000000 133635056.00000000 42986.78906250  3788244.50000000 3003764.75000000 
0.06200    82562808.00000000 51950816.00000000 130981744.00000000 41797.36718750  3697080.75000000 2931850.75000000 
0.06300    80895232.00000000 50916832.00000000 128354664.00000000 40627.35156250  3607106.00000000 2860864.50000000 
0.06400    79245392.00000000 49893288.00000000 125755864.00000000 39477.97656250  3518364.25000000 2790852.25000000 
0.06500    77614568.00000000 48881452.00000000 123186176.00000000 38349.62109375  3430927.75000000 2721851.25000000 
0.06600    76004480.00000000 47881620.00000000 120648456.00000000 37242.62500000  3344846.75000000 2653900.75000000 
0.06700    74414280.00000000 46894540.00000000 118142888.00000000 36157.55859375  3260135.75000000 2587025.25000000 
0.06800    72845632.00000000 45920328.00000000 115670848.00000000 35094.73437500  3176875.50000000 2521273.50000000 
0.06900    71299848.00000000 44960000.00000000 113233680.00000000 34054.69140625  3095053.75000000 2456688.25000000 
0.07000    69776464.00000000 44013836.00000000 110832240.00000000 33038.17578125  3014742.25000000 2393231.75000000 
0.07100    68277344.00000000 43082304.00000000 108468440.00000000 32044.79492188  2935949.00000000 2331026.50000000 
0.07200    66801956.00000000 42165076.00000000 106142184.00000000 31075.17773438  2858728.00000000 2269977.50000000 
0.07300    65351936.00000000 41263412.00000000 103854880.00000000 30129.28710938  2783059.75000000 2210196.25000000 
0.07400    63927200.00000000 40377088.00000000 101607208.00000000 29207.66406250  2709003.75000000 2151657.25000000 
0.07500    62528268.00000000 39506856.00000000 99400112.00000000 28310.17773438  2636559.25000000 2094390.37500000 
0.07600    61155260.00000000 38652412.00000000 97233752.00000000 27436.64648438  2565740.25000000 2038388.00000000 
0.07700    59809052.00000000 37814408.00000000 95109856.00000000 26587.43164062  2496573.75000000 1983693.25000000 
0.07800    58489744.00000000 36992736.00000000 93026616.00000000 25762.15039062  2429035.50000000 1930270.62500000 
0.07900    57197432.00000000 36187624.00000000 90987344.00000000 24961.05273438  2363151.00000000 1878153.87500000 
0.08000    55932528.00000000 35399636.00000000 88989400.00000000 24184.14453125  2298944.75000000 1827329.12500000 
0.08100    54695252.00000000 34628584.00000000 87036192.00000000 23430.89843750  2236391.25000000 1777809.62500000 
0.08200    53485416.00000000 33873956.00000000 85125400.00000000 22701.11914062  2175471.75000000 1729585.37500000 
0.08300    52303348.00000000 33136928.00000000 83258008.00000000 21994.78515625  2116214.75000000 1682650.37500000 
0.08400    51148868.00000000 32416626.00000000 81434216.00000000 21311.62304688  2058586.50000000 1637000.25000000 
0.08500    50022488.00000000 31713372.00000000 79653592.00000000 20651.45312500  2002584.50000000 1592631.25000000 
0.08600    48923556.00000000 31027350.00000000 77917264.00000000 20013.67382812  1948216.75000000 1549537.12500000 
0.08700    47852480.00000000 30358236.00000000 76223904.00000000 19398.00195312  1895420.37500000 1507688.12500000 
0.08800    46808328.00000000 29705884.00000000 74573104.00000000 18804.11523438  1844228.37500000 1467099.37500000 
0.08900    45791972.00000000 29070546.00000000 72965544.00000000 18231.77148438  1794594.62500000 1427722.37500000 
0.09000    44802572.00000000 28451908.00000000 71400232.00000000 17680.13671875  1746511.50000000 1389565.37500000 
0.09100    43839936.00000000 27849674.00000000 69878024.00000000 17149.29492188  1699924.12500000 1352608.12500000 
0.09200    42903768.00000000 27263824.00000000 68396248.00000000 16638.29101562  1654843.12500000 1316822.75000000 
0.09300    41994072.00000000 26694274.00000000 66956748.00000000 16146.99511719  1611242.50000000 1282193.62500000 
0.09400    41110240.00000000 26140610.00000000 65557300.00000000 15674.67578125  1569075.00000000 1248691.50000000 
0.09500    40251892.00000000 25602806.00000000 64198680.00000000 15220.92578125  1528312.25000000 1216308.75000000 
0.09600    39419020.00000000 25080578.00000000 62878976.00000000 14785.13378906  1488936.12500000 1185013.87500000 
0.09700    38610492.00000000 24573702.00000000 61598456.00000000 14366.94335938  1450907.12500000 1154778.25000000 
0.09800    37826384.00000000 24081798.00000000 60356372.00000000 13965.58398438  1414200.75000000 1125585.00000000 
0.09900    37066372.00000000 23604722.00000000 59151956.00000000 13580.76562500  1378789.12500000 1097406.37500000 
0.10000    36329696.00000000 23142018.00000000 57984040.00000000 13211.74804688  1344613.37500000 1070206.87500000 
0.10100    35615936.00000000 22693534.00000000 56852172.00000000 12857.91699219  1311646.00000000 1043968.00000000 
0.10200    34924608.00000000 22258824.00000000 55755876.00000000 12518.87597656  1279870.75000000 1018664.93750000 
0.10300    34254740.00000000 21837882.00000000 54693540.00000000 12194.03417969  1249240.12500000 994259.87500000 
0.10400    33606412.00000000 21429870.00000000 53664936.00000000 11882.75390625  1219711.37500000 970731.37500000 
0.10500    32978870.00000000 21034890.00000000 52669124.00000000 11584.51367188  1191250.12500000 948050.37500000 
0.10600    32371440.00000000 20652266.00000000 51704900.00000000 11298.67871094  1163822.75000000 926184.81250000 
0.10700    31783440.00000000 20282030.00000000 50771500.00000000 11024.85058594  1137395.12500000 905099.18750000 
0.10800    31214820.00000000 19923488.00000000 49868312.00000000 10762.30273438  1111923.25000000 884777.25000000 
0.10900    30664124.00000000 19576358.00000000 48993868.00000000 10510.66015625  1087381.12500000 865191.62500000 
0.11000    30131568.00000000 19240274.00000000 48147608.00000000 10269.33300781  1063721.87500000 846304.50000000 
0.11100    29616112.00000000 18915196.00000000 47328500.00000000 10037.83496094  1040912.81250000 828094.56250000 
0.11200    29117414.00000000 18600148.00000000 46535288.00000000 9815.62304688   1018907.43750000 810522.06250000 
0.11300    28634324.00000000 18295172.00000000 45767880.00000000 9602.12890625   997692.00000000 793566.93750000 
0.11400    28166926.00000000 17999784.00000000 45024628.00000000 9396.90136719   977216.06250000 777204.31250000 
0.11500    27714154.00000000 17713800.00000000 44304580.00000000 9199.61718750   957441.62500000 761400.37500000 
0.11600    27275784.00000000 17436548.00000000 43606908.00000000 9009.69042969   938351.75000000 746132.56250000 
0.11700    26851002.00000000 17167752.00000000 42931120.00000000 8826.70996094   919892.18750000 731375.75000000 
0.11800    26439128.00000000 16907090.00000000 42275884.00000000 8650.19824219   902038.00000000 717103.00000000 
0.11900    26039678.00000000 16654270.00000000 41639808.00000000 8479.75097656   884762.12500000 703286.62500000 
0.12000    25651972.00000000 16408841.00000000 41023112.00000000 8315.05664062   868031.06250000 689896.18750000 
0.12100    25275890.00000000 16170538.00000000 40424164.00000000 8155.64160156   851813.06250000 676930.56250000 
0.12200    24910222.00000000 15938953.00000000 39841800.00000000 8001.14746094   836081.50000000 664341.62500000 
0.12300    24554792.00000000 15713874.00000000 39276248.00000000 7851.25292969   820802.87500000 652116.87500000 
0.12400    24209334.00000000 15494764.00000000 38725872.00000000 7705.61865234   805954.31250000 640237.62500000 
0.12500    23872656.00000000 15281449.00000000 38189760.00000000 7563.86865234   791507.56250000 628676.06250000 
0.12600    23544790.00000000 15073623.00000000 37667808.00000000 7425.91552734   777437.37500000 617423.75000000 
0.12700    23225032.00000000 14870971.00000000 37158488.00000000 7291.20996094   763716.56250000 606449.50000000 
0.12800    22913024.00000000 14673051.00000000 36661504.00000000 7159.66992188   750323.37500000 595736.62500000 
0.12900    22608102.00000000 14479783.00000000 36176076.00000000 7030.95898438   737239.18750000 585274.31250000 
0.13000    22310040.00000000 14290845.00000000 35701296.00000000 6904.93261719   724438.06250000 575041.62500000 
0.13100    22018200.00000000 14105892.00000000 35236636.00000000 6781.21582031   711905.06250000 565020.43750000 
0.13200    21732462.00000000 13924618.00000000 34781264.00000000 6659.77685547   699612.56250000 555198.93750000 
0.13300    21452052.00000000 13746989.00000000 34334832.00000000 6540.34863281   687550.37500000 545562.87500000 
0.13400    21176804.00000000 13572567.00000000 33896396.00000000 6422.79785156   675703.00000000 536097.12500000 
0.13500    20906366.00000000 13401097.00000000 33465766.00000000 6306.94482422   664046.87500000 526793.37500000 
0.13600    20640296.00000000 13232548.00000000 33042324.00000000 6192.66113281   652568.75000000 517632.25000000 
0.13700    20378290.00000000 13066624.00000000 32625200.00000000 6079.80224609   641259.00000000 508604.87500000 
0.13800    20119954.00000000 12903031.00000000 32214216.00000000 5968.31738281   630104.87500000 499707.56250000 
0.13900    19865296.00000000 12741785.00000000 31808478.00000000 5858.04687500   619093.06250000 490922.31250000 
0.14000    19613706.00000000 12582548.00000000 31408324.00000000 5748.99414062   608210.75000000 482248.40625000 
0.14100    19365018.00000000 12425153.00000000 31012646.00000000 5641.00244141   597453.50000000 473673.81250000 
0.14200    19118994.00000000 12269468.00000000 30621150.00000000 5534.03027344   586801.81250000 465192.65625000 
0.14300    18875540.00000000 12115448.00000000 30233878.00000000 5428.00341797   576263.75000000 456796.40625000 
0.14400    18634106.00000000 11962861.00000000 29849998.00000000 5322.90478516   565814.00000000 448480.43750000 
0.14500    18394816.00000000 11811602.00000000 29469564.00000000 5218.75195312   555463.25000000 440239.03125000 
0.14600    18157448.00000000 11661545.00000000 29091876.00000000 5115.45800781   545198.62500000 432072.81250000 
0.14700    17921776.00000000 11512642.00000000 28717214.00000000 5013.06103516   535015.31250000 423974.43750000 
0.14800    17687364.00000000 11364686.00000000 28344878.00000000 4911.51660156   524908.68750000 415939.37500000 
0.14900    17454650.00000000 11217674.00000000 27974988.00000000 4810.81445312   514881.03125000 407962.78125000 
0.15000    17223142.00000000 11071475.00000000 27606942.00000000 4711.03613281   504919.21875000 400049.46875000 
0.15100    16992754.00000000 10926067.00000000 27240906.00000000 4612.10400391   495032.21875000 392190.28125000 
0.15200    16763497.00000000 10781354.00000000 26876764.00000000 4514.12988281   485217.09375000 384395.81250000 
0.15300    16535182.00000000 10637350.00000000 26514110.00000000 4417.08398438   475468.84375000 376653.28125000 
0.15400    16307858.00000000 10493996.00000000 26152934.00000000 4320.96337891   465787.81250000 368965.50000000 
0.15500    16081464.00000000 10351152.00000000 25793282.00000000 4225.90820312   456176.59375000 361335.46875000 
0.15600    15855782.00000000 10208802.00000000 25434836.00000000 4131.80957031   446634.53125000 353761.18750000 
0.15700    15631106.00000000 10067111.00000000 25077950.00000000 4038.85473633   437165.37500000 346246.75000000 
0.15800    15406990.00000000 9925775.00000000 24722192.00000000 3946.96582031   427767.46875000 338788.18750000 
0.15900    15183821.00000000 9785094.00000000 24367750.00000000 3856.26586914   418445.78125000 331389.18750000 
0.16000    14961354.00000000 9644794.00000000 24014436.00000000 3766.72729492   409196.56250000 324052.62500000 
0.16100    14739857.00000000 9505105.00000000 23662510.00000000 3678.52441406   400033.12500000 316782.06250000 
0.16200    14518946.00000000 9365859.00000000 23311822.00000000 3591.55639648   390949.65625000 309573.37500000 
0.16300    14299036.00000000 9227139.00000000 22962490.00000000 3505.91015625   381950.56250000 302434.09375000 
0.16400    14079897.00000000 9088929.00000000 22614356.00000000 3421.66088867   373038.78125000 295362.53125000 
0.16500    13861733.00000000 8951289.00000000 22267854.00000000 3338.82690430   364219.03125000 288364.78125000 
0.16600    13644467.00000000 8814258.00000000 21922824.00000000 3257.48413086   355497.18750000 281442.03125000 
0.16700    13428215.00000000 8677756.00000000 21579200.00000000 3177.58593750   346866.90625000 274595.31250000 
0.16800    13213018.00000000 8541914.00000000 21237186.00000000 3099.24853516   338342.28125000 267827.81250000 
0.16900    12998926.00000000 8406788.00000000 20897154.00000000 3022.50512695   329922.40625000 261145.56250000 
0.17000    12786039.00000000 8272358.00000000 20558804.00000000 2947.34619141   321608.18750000 254545.76562500 
