# SAXS profile: number of points = 501, q_min = 0, q_max = 0.5, delta_q = 0.001
#    q    intensity 
0.00000    162231168.00000000 101202696.00000000 256268672.00000000 110142.33593750 8454459.00000000 6677232.50000000 
0.00100    162192496.00000000 101175960.00000000 256203504.00000000 110103.24218750 8451865.00000000 6675275.00000000 
0.00200    162074672.00000000 101098576.00000000 256006816.00000000 109990.10937500 8444200.00000000 6669188.50000000 
0.00300    161869920.00000000 100970264.00000000 255679120.00000000 109801.06250000 8431351.00000000 6659167.00000000 
0.00400    161574832.00000000 100789808.00000000 255218992.00000000 109538.28125000 8413484.00000000 6645174.50000000 
0.00500    161194080.00000000 100557568.00000000 254627408.00000000 109200.53906250 8390594.00000000 6627174.50000000 
0.00600    160735120.00000000 100276312.00000000 253909888.00000000 108790.14843750 8362702.00000000 6605318.50000000 
0.00700    160188976.00000000 99945264.00000000 253066496.00000000 108306.44531250 8329849.00000000 6579622.00000000 
0.00800    159565536.00000000 99565320.00000000 252092208.00000000 107752.64062500 8292225.50000000 6550002.00000000 
0.00900    158868576.00000000 99137808.00000000 250996448.00000000 107128.70312500 8249823.00000000 6516737.00000000 
0.01000    158093728.00000000 98661736.00000000 249780576.00000000 106437.14843750 8202716.50000000 6479787.00000000 
0.01100    157240784.00000000 98137256.00000000 248442032.00000000 105678.74218750 8151028.50000000 6439309.50000000 
0.01200    156309472.00000000 97567904.00000000 246987856.00000000 104855.50781250 8094927.50000000 6395252.50000000 
0.01300    155308320.00000000 96952776.00000000 245419376.00000000 103970.04687500 8034500.50000000 6347780.00000000 
0.01400    154235792.00000000 96295248.00000000 243739440.00000000 103023.98437500 7969782.50000000 6297072.50000000 
0.01500    153095344.00000000 95595712.00000000 241951168.00000000 102020.75000000 7901085.50000000 6243150.50000000 
0.01600    151886688.00000000 94854008.00000000 240057952.00000000 100960.64062500 7828434.50000000 6186120.00000000 
0.01700    150614176.00000000 94072928.00000000 238064032.00000000 99848.23437500  7752078.50000000 6126140.50000000 
0.01800    149278736.00000000 93253152.00000000 235972064.00000000 98683.91406250  7672056.00000000 6063305.00000000 
0.01900    147884064.00000000 92397352.00000000 233786272.00000000 97472.10937500  7588583.00000000 5997834.00000000 
0.02000    146432480.00000000 91505000.00000000 231509168.00000000 96214.84375000  7501943.00000000 5929716.50000000 
0.02100    144925184.00000000 90579152.00000000 229146400.00000000 94916.55468750  7412111.00000000 5859250.00000000 
0.02200    143365168.00000000 89621592.00000000 226701504.00000000 93577.31250000  7319426.00000000 5786398.00000000 
0.02300    141758432.00000000 88632168.00000000 224180128.00000000 92201.53125000  7223967.50000000 5711481.50000000 
0.02400    140102144.00000000 87614152.00000000 221584240.00000000 90792.67968750  7125975.50000000 5634487.50000000 
0.02500    138403408.00000000 86569120.00000000 218919968.00000000 89353.50000000  7025721.50000000 5555679.00000000 
0.02600    136663744.00000000 85498176.00000000 216189056.00000000 87886.55468750  6923274.50000000 5475148.00000000 
0.02700    134885600.00000000 84404352.00000000 213401296.00000000 86394.42968750  6818800.50000000 5393039.50000000 
0.02800    133073816.00000000 83288520.00000000 210555696.00000000 84881.45312500  6712581.50000000 5309565.00000000 
0.02900    131228984.00000000 82152144.00000000 207660864.00000000 83349.25781250  6604768.00000000 5224809.50000000 
0.03000    129355648.00000000 80997320.00000000 204717536.00000000 81801.65625000  6495592.00000000 5138965.50000000 
0.03100    127455416.00000000 79826080.00000000 201734640.00000000 80241.86718750  6385225.50000000 5052221.00000000 
0.03200    125532784.00000000 78640432.00000000 198714080.00000000 78671.11718750  6273859.00000000 4964575.00000000 
0.03300    123589040.00000000 77442184.00000000 195662736.00000000 77094.32031250  6161644.00000000 4876335.50000000 
0.03400    121628688.00000000 76232200.00000000 192580272.00000000 75513.22656250  6048815.50000000 4787522.50000000 
0.03500    119652888.00000000 75012040.00000000 189475248.00000000 73930.00000000  5935512.50000000 4698347.00000000 
0.03600    117665136.00000000 73784928.00000000 186351376.00000000 72348.37500000  5821917.50000000 4608936.50000000 
0.03700    115669272.00000000 72550944.00000000 183212528.00000000 70769.55468750  5708219.00000000 4519431.00000000 
0.03800    113667064.00000000 71312440.00000000 180062736.00000000 69197.21093750  5594577.50000000 4429903.50000000 
0.03900    111660960.00000000 70071744.00000000 176907360.00000000 67632.69531250  5481138.50000000 4340559.50000000 
0.04000    109654248.00000000 68829648.00000000 173750016.00000000 66078.77343750  5368036.00000000 4251519.50000000 
0.04100    107648928.00000000 67587928.00000000 170592848.00000000 64537.18750000  5255478.50000000 4162776.25000000 
0.04200    105647456.00000000 66348116.00000000 167442592.00000000 63010.04687500  5143562.00000000 4074597.75000000 
0.04300    103652824.00000000 65111712.00000000 164302432.00000000 61499.76562500  5032481.50000000 3987044.75000000 
0.04400    101666808.00000000 63880048.00000000 161173696.00000000 60007.59765625  4922305.50000000 3900185.25000000 
0.04500    99691984.00000000 62654648.00000000 158062240.00000000 58535.28125000  4813228.50000000 3814143.75000000 
0.04600    97729048.00000000 61437028.00000000 154969136.00000000 57084.00781250  4705270.00000000 3728976.25000000 
0.04700    95782648.00000000 60227720.00000000 151902928.00000000 55655.67578125  4598582.00000000 3644830.50000000 
0.04800    93852688.00000000 59028360.00000000 148858800.00000000 54251.04687500  4493306.50000000 3561743.00000000 
0.04900    91941920.00000000 57840320.00000000 145845024.00000000 52871.98828125  4389546.50000000 3479823.75000000 
0.05000    90051888.00000000 56664416.00000000 142863440.00000000 51519.09375000  4287299.50000000 3399111.50000000 
0.05100    88183400.00000000 55501952.00000000 139916624.00000000 50192.78125000  4186702.75000000 3319678.00000000 
0.05200    86338944.00000000 54353472.00000000 137006816.00000000 48894.48437500  4087811.00000000 3241582.75000000 
0.05300    84520688.00000000 53220284.00000000 134134704.00000000 47625.00000000  3990751.00000000 3164854.25000000 
0.05400    82728096.00000000 52103012.00000000 131305048.00000000 46383.88281250  3895454.00000000 3089604.75000000 
0.05500    80963360.00000000 51002724.00000000 128517584.00000000 45172.63671875  3802110.75000000 3015815.50000000 
0.05600    79228304.00000000 49919836.00000000 125775408.00000000 43991.08593750  3710684.25000000 2943521.75000000 
0.05700    77522880.00000000 48855200.00000000 123080904.00000000 42839.33593750  3621207.50000000 2872793.50000000 
0.05800    75848544.00000000 47808872.00000000 120433016.00000000 41717.69140625  3533767.75000000 2803612.50000000 
0.05900    74204872.00000000 46782216.00000000 117836000.00000000 40626.42578125  3448325.50000000 2736017.25000000 
0.06000    72594608.00000000 45775800.00000000 115289584.00000000 39565.03906250  3364919.25000000 2670037.00000000 
0.06100    71017544.00000000 44789212.00000000 112794024.00000000 38533.81640625  3283572.75000000 2605661.25000000 
0.06200    69473936.00000000 43822764.00000000 110351688.00000000 37532.34765625  3204258.75000000 2542884.50000000 
0.06300    67963360.00000000 42877704.00000000 107962880.00000000 36559.97265625  3127055.25000000 2481736.00000000 
0.06400    66488708.00000000 41953436.00000000 105627576.00000000 35616.74609375  3051870.25000000 2422205.00000000 
0.06500    65048280.00000000 41050800.00000000 103346392.00000000 34701.73437500  2978725.50000000 2364260.75000000 
0.06600    63642184.00000000 40169140.00000000 101120976.00000000 33815.56250000  2907592.25000000 2307922.00000000 
0.06700    62271380.00000000 39309580.00000000 98948784.00000000 32956.29687500  2838488.25000000 2253170.00000000 
0.06800    60935480.00000000 38471216.00000000 96832648.00000000 32124.65625000  2771357.25000000 2199969.25000000 
0.06900    59634232.00000000 37655268.00000000 94770864.00000000 31319.01171875  2706178.25000000 2148313.75000000 
0.07000    58368092.00000000 36860436.00000000 92764920.00000000 30539.12304688  2642938.25000000 2098180.75000000 
0.07100    57136096.00000000 36086408.00000000 90812592.00000000 29784.17968750  2581554.00000000 2049534.62500000 
0.07200    55938836.00000000 35334584.00000000 88914464.00000000 29053.63671875  2522035.50000000 2002363.37500000 
0.07300    54775016.00000000 34603456.00000000 87070304.00000000 28346.72070312  2464351.25000000 1956609.12500000 
0.07400    53645716.00000000 33893804.00000000 85278944.00000000 27662.64843750  2408421.25000000 1912272.75000000 
0.07500    52549060.00000000 33205080.00000000 83540816.00000000 27000.60546875  2354230.00000000 1869283.00000000 
0.07600    51485152.00000000 32536502.00000000 81853384.00000000 26359.71875000  2301728.00000000 1827631.62500000 
0.07700    50453472.00000000 31888080.00000000 80218384.00000000 25739.56250000  2250826.25000000 1787280.37500000 
0.07800    49453260.00000000 31259792.00000000 78632280.00000000 25139.07617188  2201538.75000000 1748191.87500000 
0.07900    48484380.00000000 30650518.00000000 77095416.00000000 24557.51757812  2153782.25000000 1710312.00000000 
0.08000    47545596.00000000 30060628.00000000 75607616.00000000 23994.10156250  2107508.25000000 1673614.62500000 
0.08100    46637004.00000000 29489714.00000000 74166664.00000000 23448.33984375  2062716.62500000 1638058.25000000 
0.08200    45756940.00000000 28936750.00000000 72771216.00000000 22919.49218750  2019288.37500000 1603612.50000000 
0.08300    44905368.00000000 28401822.00000000 71421520.00000000 22406.53125000  1977199.87500000 1570226.75000000 
0.08400    44081300.00000000 27884530.00000000 70115464.00000000 21908.80078125  1936363.87500000 1537857.62500000 
0.08500    43284420.00000000 27384008.00000000 68852552.00000000 21425.97656250  1896837.12500000 1506477.62500000 
0.08600    42513264.00000000 26900208.00000000 67630520.00000000 20957.27343750  1858453.62500000 1476052.75000000 
0.08700    41767608.00000000 26432518.00000000 66449440.00000000 20501.92968750  1821234.50000000 1446523.12500000 
0.08800    41046524.00000000 25980322.00000000 65307332.00000000 20059.21289062  1785103.12500000 1417882.00000000 
0.08900    40349080.00000000 25543208.00000000 64203252.00000000 19629.07421875  1750029.50000000 1390062.50000000 
0.09000    39674124.00000000 25120704.00000000 63135224.00000000 19210.57226562  1715969.00000000 1363055.87500000 
0.09100    39021872.00000000 24712324.00000000 62102812.00000000 18802.94921875  1682846.50000000 1336786.50000000 
0.09200    38390764.00000000 24317602.00000000 61104372.00000000 18406.34179688  1650661.87500000 1311273.75000000 
0.09300    37780420.00000000 23935676.00000000 60138852.00000000 18019.75390625  1619342.12500000 1286459.00000000 
0.09400    37189640.00000000 23566830.00000000 59204472.00000000 17643.12500000  1588869.12500000 1262294.12500000 
0.09500    36617532.00000000 23209724.00000000 58300516.00000000 17275.58593750  1559195.62500000 1238769.50000000 
0.09600    36064044.00000000 22864418.00000000 57426176.00000000 16917.05078125  1530277.25000000 1215843.75000000 
0.09700    35527448.00000000 22530214.00000000 56578584.00000000 16567.23828125  1502095.75000000 1193501.87500000 
0.09800    35007964.00000000 22206704.00000000 55758740.00000000 16225.47851562  1474595.75000000 1171694.12500000 
0.09900    34504028.00000000 21893302.00000000 54963968.00000000 15891.70214844  1447756.37500000 1150430.75000000 
0.10000    34015288.00000000 21589660.00000000 54193020.00000000 15565.72949219  1421549.12500000 1129660.50000000 
0.10100    33541172.00000000 21295270.00000000 53445644.00000000 15246.57031250  1395944.37500000 1109362.87500000 
0.10200    33080830.00000000 21009636.00000000 52720228.00000000 14934.84472656  1370900.37500000 1089517.12500000 
0.10300    32633388.00000000 20732222.00000000 52016144.00000000 14629.70898438  1346401.75000000 1070100.12500000 
0.10400    32198796.00000000 20462930.00000000 51331096.00000000 14331.13476562  1322436.50000000 1051090.00000000 
0.10500    31775748.00000000 20201246.00000000 50665264.00000000 14038.80761719  1298943.00000000 1032474.81250000 
0.10600    31363476.00000000 19946590.00000000 50017040.00000000 13752.75000000  1275944.50000000 1014218.06250000 
0.10700    30962032.00000000 19698400.00000000 49385796.00000000 13472.45703125  1253369.00000000 996341.00000000 
0.10800    30570554.00000000 19456906.00000000 48770540.00000000 13198.01855469  1231254.37500000 978791.12500000 
0.10900    30188596.00000000 19221276.00000000 48169652.00000000 12929.14160156  1209526.50000000 961570.81250000 
0.11000    29815114.00000000 18990938.00000000 47583164.00000000 12665.63671875  1188211.75000000 944656.75000000 
0.11100    29449980.00000000 18766056.00000000 47009744.00000000 12407.27832031  1167269.25000000 928042.18750000 
0.11200    29092766.00000000 18546088.00000000 46448680.00000000 12154.20800781  1146694.75000000 911711.50000000 
0.11300    28742496.00000000 18330902.00000000 45898864.00000000 11905.96777344  1126458.25000000 895653.06250000 
0.11400    28398988.00000000 18119720.00000000 45360336.00000000 11662.62890625  1106554.25000000 879865.75000000 
0.11500    28062246.00000000 17912566.00000000 44831848.00000000 11423.88281250  1086982.25000000 864321.93750000 
0.11600    27731380.00000000 17708994.00000000 44312388.00000000 11189.86718750  1067716.50000000 849023.75000000 
0.11700    27405740.00000000 17508966.00000000 43801720.00000000 10960.25488281  1048748.87500000 833958.56250000 
0.11800    27085218.00000000 17311972.00000000 43298524.00000000 10734.89257812  1030061.56250000 819121.12500000 
0.11900    26769362.00000000 17117976.00000000 42803560.00000000 10513.85351562  1011664.81250000 804506.87500000 
0.12000    26458142.00000000 16926660.00000000 42314948.00000000 10296.82226562  993530.68750000 790094.93750000 
0.12100    26150824.00000000 16737806.00000000 41832856.00000000 10083.85742188  975668.31250000 775895.31250000 
0.12200    25847170.00000000 16550853.00000000 41356352.00000000 9874.70019531   958045.06250000 761890.81250000 
0.12300    25546978.00000000 16366330.00000000 40885036.00000000 9669.31054688   940675.25000000 748077.75000000 
0.12400    25249624.00000000 16183454.00000000 40418956.00000000 9467.59765625   923548.43750000 734453.12500000 
0.12500    24955832.00000000 16002362.00000000 39956788.00000000 9269.54589844   906644.75000000 721011.62500000 
0.12600    24664362.00000000 15822786.00000000 39499084.00000000 9074.96289062   889978.56250000 707750.62500000 
0.12700    24375334.00000000 15644561.00000000 39044872.00000000 8883.67773438   873528.06250000 694669.31250000 
0.12800    24088324.00000000 15467547.00000000 38593720.00000000 8695.75097656   857293.18750000 681745.75000000 
0.12900    23803292.00000000 15291577.00000000 38145632.00000000 8510.97656250   841273.18750000 669001.56250000 
0.13000    23520328.00000000 15116674.00000000 37700644.00000000 8329.35742188   825461.31250000 656416.25000000 
0.13100    23238936.00000000 14942573.00000000 37257424.00000000 8150.74169922   809852.12500000 643991.68750000 
0.13200    22959062.00000000 14769316.00000000 36817064.00000000 7974.97900391   794439.37500000 631723.56250000 
0.13300    22680542.00000000 14596647.00000000 36378132.00000000 7802.15527344   779227.93750000 619619.50000000 
0.13400    22403418.00000000 14424673.00000000 35941376.00000000 7632.03759766   764213.12500000 607653.06250000 
0.13500    22127168.00000000 14253281.00000000 35505976.00000000 7464.78417969   749379.00000000 595848.62500000 
0.13600    21852248.00000000 14082318.00000000 35072088.00000000 7300.10644531   734740.68750000 584196.37500000 
0.13700    21578126.00000000 13911765.00000000 34639928.00000000 7138.06396484   720279.75000000 572687.37500000 
0.13800    21305222.00000000 13741660.00000000 34208464.00000000 6978.44140625   706012.81250000 561321.43750000 
0.13900    21033074.00000000 13571893.00000000 33778448.00000000 6821.44628906   691918.12500000 550104.87500000 
0.14000    20761542.00000000 13402497.00000000 33349680.00000000 6666.89306641   678010.75000000 539025.68750000 
0.14100    20491212.00000000 13233375.00000000 32921804.00000000 6514.72558594   664283.06250000 528100.37500000 
0.14200    20221384.00000000 13064712.00000000 32494760.00000000 6364.94580078   650721.75000000 517308.90625000 
0.14300    19952624.00000000 12896186.00000000 32069258.00000000 6217.52246094   637348.31250000 506661.25000000 
0.14400    19684340.00000000 12728014.00000000 31644254.00000000 6072.47021484   624141.31250000 496153.65625000 
0.14500    19417000.00000000 12560246.00000000 31220680.00000000 5929.73046875   611120.81250000 485788.56250000 
0.14600    19150630.00000000 12392788.00000000 30798232.00000000 5789.27539062   598264.00000000 475564.90625000 
0.14700    18885012.00000000 12225738.00000000 30376594.00000000 5651.16015625   585591.31250000 465476.31250000 
0.14800    18620330.00000000 12059019.00000000 29956574.00000000 5515.31152344   573089.18750000 455526.40625000 
0.14900    18356440.00000000 11892769.00000000 29537762.00000000 5381.75292969   560761.37500000 445721.06250000 
0.15000    18093766.00000000 11726903.00000000 29120106.00000000 5250.59179688   548604.37500000 436053.56250000 
0.15100    17832012.00000000 11561601.00000000 28704266.00000000 5121.70019531   536628.12500000 426528.56250000 
0.15200    17571490.00000000 11396832.00000000 28289932.00000000 4995.16796875   524836.43750000 417146.34375000 
0.15300    17312182.00000000 11232718.00000000 27877218.00000000 4870.96875000   513210.28125000 407899.25000000 
0.15400    17053816.00000000 11069234.00000000 27465952.00000000 4749.21533203   501759.18750000 398798.50000000 
0.15500    16797140.00000000 10906389.00000000 27057246.00000000 4629.84130859   490496.87500000 389835.93750000 
0.15600    16541834.00000000 10744245.00000000 26650278.00000000 4512.89160156   479402.59375000 381016.28125000 
0.15700    16288069.00000000 10582994.00000000 26245888.00000000 4398.41796875   468491.78125000 372340.31250000 
0.15800    16035736.00000000 10422640.00000000 25843486.00000000 4286.39013672   457761.43750000 363806.75000000 
0.15900    15785173.00000000 10263099.00000000 25443714.00000000 4176.90234375   447206.78125000 355415.75000000 
0.16000    15536277.00000000 10104691.00000000 25046484.00000000 4069.94604492   436837.68750000 347171.46875000 
0.16100    15289381.00000000 9947153.00000000 24652254.00000000 3965.55712891   426658.25000000 339073.34375000 
0.16200    15044300.00000000 9790928.00000000 24260668.00000000 3863.73657227   416653.00000000 331115.90625000 
0.16300    14801214.00000000 9635754.00000000 23872494.00000000 3764.57348633   406830.71875000 323303.25000000 
0.16400    14560408.00000000 9481739.00000000 23487558.00000000 3667.98046875   397196.18750000 315637.78125000 
0.16500    14321735.00000000 9329110.00000000 23105790.00000000 3574.06103516   387739.06250000 308117.25000000 
0.16600    14085408.00000000 9177768.00000000 22727476.00000000 3482.81616211   378472.59375000 300740.53125000 
0.16700    13851297.00000000 9027799.00000000 22352898.00000000 3394.19018555   369386.03125000 293509.34375000 
0.16800    13619671.00000000 8879403.00000000 21982156.00000000 3308.23950195   360486.96875000 286422.28125000 
0.16900    13390677.00000000 8732415.00000000 21615318.00000000 3225.00683594   351770.18750000 279480.06250000 
0.17000    13164141.00000000 8586951.00000000 21252538.00000000 3144.39282227   343234.65625000 272683.68750000 
