# SAXS profile: number of points = 501, q_min = 0, q_max = 0.5, delta_q = 0.001
#    q    intensity 
0.00000    162233184.00000000 101201976.00000000 256270960.00000000 101047.92187500 8097886.50000000 6395689.50000000 
0.00100    162193728.00000000 101175504.00000000 256204272.00000000 101015.13281250 8095522.50000000 6393862.50000000 
0.00200    162069664.00000000 101095816.00000000 256001744.00000000 100919.10937500 8088411.50000000 6388234.00000000 
0.00300    161859328.00000000 100963496.00000000 255664256.00000000 100758.07031250 8076553.00000000 6378901.00000000 
0.00400    161558800.00000000 100778224.00000000 255195040.00000000 100533.40625000 8060021.00000000 6365883.00000000 
0.00500    161171664.00000000 100540160.00000000 254589712.00000000 100245.52343750 8038777.50000000 6349196.00000000 
0.00600    160702816.00000000 100250232.00000000 253852736.00000000 99894.83593750  8012933.00000000 6328900.00000000 
0.00700    160147104.00000000 99910272.00000000 252987680.00000000 99482.20312500  7982537.00000000 6304967.00000000 
0.00800    159511776.00000000 99519920.00000000 251992304.00000000 99008.86718750  7947641.00000000 6277540.00000000 
0.00900    158799616.00000000 99080312.00000000 250870032.00000000 98476.28125000  7908296.00000000 6246573.50000000 
0.01000    158007680.00000000 98590936.00000000 249621952.00000000 97884.35937500  7864593.50000000 6212215.50000000 
0.01100    157138240.00000000 98052280.00000000 248253168.00000000 97235.00781250  7816668.00000000 6174526.50000000 
0.01200    156188784.00000000 97467344.00000000 246765056.00000000 96530.61718750  7764592.00000000 6133528.00000000 
0.01300    155167072.00000000 96835880.00000000 245159200.00000000 95771.49218750  7708473.50000000 6089366.50000000 
0.01400    154072720.00000000 96160040.00000000 243439552.00000000 94960.03906250  7648389.50000000 6042141.50000000 
0.01500    152908896.00000000 95441344.00000000 241609040.00000000 94097.33593750  7584491.50000000 5991907.50000000 
0.01600    151674192.00000000 94679928.00000000 239671696.00000000 93186.19531250  7516989.50000000 5938757.00000000 
0.01700    150378048.00000000 93877928.00000000 237630848.00000000 92227.47656250  7445836.50000000 5882773.00000000 
0.01800    149016208.00000000 93036184.00000000 235489216.00000000 91224.71875000  7371361.00000000 5824200.00000000 
0.01900    147592336.00000000 92156840.00000000 233252608.00000000 90179.47656250  7293635.00000000 5763010.50000000 
0.02000    146110624.00000000 91242280.00000000 230924256.00000000 89092.94531250  7212794.50000000 5699406.00000000 
0.02100    144575008.00000000 90291896.00000000 228506128.00000000 87968.57812500  7129044.50000000 5633485.50000000 
0.02200    142983264.00000000 89308600.00000000 226005936.00000000 86808.56250000  7042504.00000000 5565385.50000000 
0.02300    141344016.00000000 88295120.00000000 223426784.00000000 85614.74218750  6953353.00000000 5495200.50000000 
0.02400    139657120.00000000 87251232.00000000 220773440.00000000 84389.68750000  6861772.50000000 5423085.00000000 
0.02500    137925552.00000000 86179984.00000000 218049344.00000000 83136.28906250  6767871.00000000 5349222.50000000 
0.02600    136152384.00000000 85082800.00000000 215259152.00000000 81856.80468750  6671929.50000000 5273624.50000000 
0.02700    134341104.00000000 83962024.00000000 212410384.00000000 80553.15625000  6574065.50000000 5196607.50000000 
0.02800    132494984.00000000 82819456.00000000 209504160.00000000 79228.25781250  6474446.00000000 5118109.00000000 
0.02900    130616584.00000000 81656352.00000000 206548192.00000000 77884.67968750  6373216.50000000 5038449.00000000 
0.03000    128708840.00000000 80474296.00000000 203546432.00000000 76524.33593750  6270659.50000000 4957671.50000000 
0.03100    126775128.00000000 79276584.00000000 200502352.00000000 75151.27343750  6166832.00000000 4875892.50000000 
0.03200    124817688.00000000 78064448.00000000 197420544.00000000 73766.12500000  6061982.00000000 4793317.50000000 
0.03300    122841536.00000000 76839184.00000000 194308880.00000000 72371.39062500  5956315.50000000 4710057.00000000 
0.03400    120847256.00000000 75604928.00000000 191169808.00000000 70970.62500000  5849927.50000000 4626161.50000000 
0.03500    118839304.00000000 74360376.00000000 188007776.00000000 69565.58593750  5742934.00000000 4541967.00000000 
0.03600    116820880.00000000 73107472.00000000 184825824.00000000 68157.96093750  5635660.00000000 4457375.00000000 
0.03700    114793896.00000000 71850608.00000000 181634608.00000000 66750.62500000  5528167.50000000 4372633.50000000 
0.03800    112761888.00000000 70589096.00000000 178432000.00000000 65345.08593750  5420557.00000000 4287841.50000000 
0.03900    110726824.00000000 69326360.00000000 175226064.00000000 63943.40625000  5313094.50000000 4203151.00000000 
0.04000    108692792.00000000 68062648.00000000 172019744.00000000 62547.77343750  5205925.50000000 4118574.75000000 
0.04100    106662000.00000000 66801596.00000000 168820304.00000000 61160.60546875  5099074.50000000 4034346.50000000 
0.04200    104636144.00000000 65543200.00000000 165625968.00000000 59783.17578125  4992828.00000000 3950531.50000000 
0.04300    102619320.00000000 64289904.00000000 162446112.00000000 58416.99218750  4887241.50000000 3867244.75000000 
0.04400    100612224.00000000 63042704.00000000 159280720.00000000 57064.50390625  4782426.50000000 3784574.00000000 
0.04500    98618200.00000000 61802888.00000000 156136864.00000000 55726.69140625  4678562.50000000 3702611.00000000 
0.04600    96639248.00000000 60572648.00000000 153015696.00000000 54404.94921875  4575677.00000000 3621448.00000000 
0.04700    94678008.00000000 59351748.00000000 149920256.00000000 53100.76562500  4473995.00000000 3541195.50000000 
0.04800    92735624.00000000 58143068.00000000 146856096.00000000 51815.51562500  4373539.00000000 3461925.50000000 
0.04900    90814520.00000000 56947356.00000000 143826160.00000000 50550.23828125  4274426.50000000 3383690.50000000 
0.05000    88916448.00000000 55765832.00000000 140829904.00000000 49306.05859375  4176761.00000000 3306587.75000000 
0.05100    87043832.00000000 54599156.00000000 137873920.00000000 48083.83984375  4080594.25000000 3230665.50000000 
0.05200    85196936.00000000 53448456.00000000 134960032.00000000 46884.33203125  3986019.50000000 3155972.75000000 
0.05300    83378872.00000000 52315292.00000000 132087816.00000000 45708.74609375  3893101.75000000 3082602.00000000 
0.05400    81589040.00000000 51200196.00000000 129262672.00000000 44557.24609375  3801936.75000000 3010588.75000000 
0.05500    79830392.00000000 50103780.00000000 126485264.00000000 43430.91406250  3712506.75000000 2939952.00000000 
0.05600    78103840.00000000 49027156.00000000 123758496.00000000 42329.69921875  3624934.00000000 2870761.75000000 
0.05700    76410472.00000000 47970384.00000000 121082848.00000000 41254.29687500  3539210.75000000 2803056.50000000 
0.05800    74750456.00000000 46934776.00000000 118459840.00000000 40205.22656250  3455396.75000000 2736798.75000000 
0.05900    73124936.00000000 45920284.00000000 115892080.00000000 39182.00000000  3373516.00000000 2672121.00000000 
0.06000    71535128.00000000 44927724.00000000 113379704.00000000 38185.11718750  3293599.25000000 2608961.00000000 
0.06100    69981480.00000000 43957808.00000000 110924160.00000000 37214.91015625  3215637.75000000 2547330.75000000 
0.06200    68463736.00000000 43009760.00000000 108525616.00000000 36271.34765625  3139665.75000000 2487277.25000000 
0.06300    66983956.00000000 42085464.00000000 106186240.00000000 35353.66015625  3065696.00000000 2428816.75000000 
0.06400    65540388.00000000 41183740.00000000 103904792.00000000 34462.27734375  2993717.25000000 2371891.25000000 
0.06500    64135028.00000000 40305348.00000000 101682600.00000000 33596.89062500  2923709.25000000 2316565.25000000 
0.06600    62766700.00000000 39450372.00000000 99518936.00000000 32756.93359375  2855695.50000000 2262778.00000000 
0.06700    61436548.00000000 38618552.00000000 97415560.00000000 31942.15234375  2789609.50000000 2210539.00000000 
0.06800    60143476.00000000 37810404.00000000 95371616.00000000 31152.41406250  2725493.25000000 2159819.50000000 
0.06900    58887988.00000000 37025604.00000000 93387040.00000000 30387.21093750  2663271.75000000 2110626.25000000 
0.07000    57669672.00000000 36264332.00000000 91459216.00000000 29645.80078125  2602974.75000000 2062939.25000000 
0.07100    56488240.00000000 35525624.00000000 89591584.00000000 28927.65039062  2544534.25000000 2016712.37500000 
0.07200    55342756.00000000 34809588.00000000 87780456.00000000 28232.35546875  2487867.75000000 1971928.25000000 
0.07300    54233848.00000000 34116728.00000000 86026224.00000000 27559.42187500  2433026.75000000 1928544.75000000 
0.07400    53159912.00000000 33445796.00000000 84329608.00000000 26907.93359375  2379918.75000000 1886578.62500000 
0.07500    52121492.00000000 32796700.00000000 82686816.00000000 26277.32617188  2328520.25000000 1845927.37500000 
0.07600    51117036.00000000 32169196.00000000 81098656.00000000 25667.07812500  2278769.50000000 1806600.50000000 
0.07700    50145876.00000000 31562780.00000000 79563704.00000000 25076.24023438  2230668.50000000 1768544.00000000 
0.07800    49208208.00000000 30977250.00000000 78081288.00000000 24504.43164062  2184100.75000000 1731739.75000000 
0.07900    48301848.00000000 30411592.00000000 76650232.00000000 23950.82812500  2139046.75000000 1696132.00000000 
0.08000    47427000.00000000 29865736.00000000 75267864.00000000 23414.69140625  2095478.12500000 1661687.87500000 
0.08100    46583084.00000000 29339192.00000000 73934184.00000000 22895.29492188  2053291.12500000 1628356.62500000 
0.08200    45767804.00000000 28831334.00000000 72647200.00000000 22392.08593750  2012488.62500000 1596103.00000000 
0.08300    44981504.00000000 28341488.00000000 71405328.00000000 21904.35351562  1972976.50000000 1564876.50000000 
0.08400    44222892.00000000 27869042.00000000 70208880.00000000 21431.34375000  1934707.37500000 1534648.00000000 
0.08500    43491332.00000000 27413600.00000000 69054328.00000000 20972.29296875  1897654.62500000 1505386.37500000 
0.08600    42785460.00000000 26974444.00000000 67940736.00000000 20526.65429688  1861765.62500000 1477024.62500000 
0.08700    42104180.00000000 26551196.00000000 66866728.00000000 20093.80273438  1826934.37500000 1449532.00000000 
0.08800    41446584.00000000 26142920.00000000 65830380.00000000 19672.94140625  1793173.25000000 1422869.00000000 
0.08900    40812084.00000000 25749298.00000000 64830768.00000000 19263.88476562  1760390.62500000 1396988.50000000 
0.09000    40199352.00000000 25369522.00000000 63865656.00000000 18865.69531250  1728556.62500000 1371851.62500000 
0.09100    39607656.00000000 25003092.00000000 62934472.00000000 18477.57421875  1697615.62500000 1347432.50000000 
0.09200    39035680.00000000 24649274.00000000 62034460.00000000 18099.61523438  1667529.37500000 1323683.37500000 
0.09300    38483016.00000000 24307750.00000000 61164848.00000000 17730.98242188  1638234.50000000 1300568.87500000 
0.09400    37947724.00000000 23977288.00000000 60324080.00000000 17371.22460938  1609701.87500000 1278054.37500000 
0.09500    37429960.00000000 23658014.00000000 59510248.00000000 17019.81250000  1581873.75000000 1256106.62500000 
0.09600    36928188.00000000 23348894.00000000 58722952.00000000 16676.41796875  1554717.75000000 1234685.12500000 
0.09700    36441748.00000000 23049648.00000000 57959796.00000000 16340.58398438  1528205.75000000 1213768.12500000 
0.09800    35970008.00000000 22759556.00000000 57219296.00000000 16011.88085938  1502275.25000000 1193316.75000000 
0.09900    35511200.00000000 22478074.00000000 56500116.00000000 15690.14453125  1476911.87500000 1173312.50000000 
0.10000    35065036.00000000 22204386.00000000 55801456.00000000 15374.72070312  1452075.00000000 1153702.50000000 
0.10100    34631208.00000000 21938732.00000000 55121984.00000000 15065.50976562  1427704.87500000 1134506.25000000 
0.10200    34208444.00000000 21679706.00000000 54460216.00000000 14762.15625000  1403820.37500000 1115649.62500000 
0.10300    33795472.00000000 21427468.00000000 53814600.00000000 14464.35937500  1380349.75000000 1097147.87500000 
0.10400    33392700.00000000 21181260.00000000 53184140.00000000 14172.12988281  1357293.75000000 1078952.75000000 
0.10500    32998748.00000000 20940774.00000000 52568356.00000000 13885.03222656  1334610.12500000 1061051.00000000 
0.10600    32612760.00000000 20705440.00000000 51965300.00000000 13602.82128906  1312284.00000000 1043437.56250000 
0.10700    32234602.00000000 20474990.00000000 51374548.00000000 13325.51757812  1290301.12500000 1026078.31250000 
0.10800    31863388.00000000 20248964.00000000 50794832.00000000 13052.67382812  1268623.50000000 1008976.93750000 
0.10900    31498558.00000000 20026840.00000000 50225452.00000000 12784.48046875  1247233.75000000 992091.75000000 
0.11000    31139730.00000000 19808642.00000000 49665204.00000000 12520.57128906  1226146.00000000 975423.43750000 
0.11100    30786288.00000000 19593224.00000000 49113404.00000000 12261.00683594  1205300.00000000 958964.37500000 
0.11200    30437538.00000000 19381486.00000000 48569344.00000000 12005.57617188  1184728.37500000 942697.31250000 
0.11300    30093244.00000000 19172034.00000000 48032204.00000000 11754.09472656  1164380.37500000 926614.12500000 
0.11400    29753146.00000000 18965302.00000000 47501204.00000000 11506.72265625  1144266.75000000 910712.43750000 
0.11500    29416508.00000000 18760684.00000000 46976152.00000000 11263.19628906  1124373.25000000 894968.93750000 
0.11600    29083384.00000000 18557974.00000000 46455580.00000000 11023.66406250  1104688.62500000 879395.87500000 
0.11700    28753052.00000000 18356988.00000000 45939896.00000000 10787.87011719  1085204.00000000 863977.56250000 
0.11800    28425422.00000000 18157366.00000000 45428160.00000000 10555.83789062  1065925.25000000 848705.37500000 
0.11900    28100014.00000000 17959302.00000000 44919888.00000000 10327.67089844  1046842.00000000 833582.50000000 
0.12000    27776560.00000000 17762186.00000000 44415380.00000000 10103.14355469  1027933.50000000 818611.31250000 
0.12100    27455200.00000000 17566340.00000000 43912752.00000000 9882.40722656   1009227.12500000 803778.31250000 
0.12200    27135656.00000000 17371242.00000000 43412764.00000000 9665.24609375   990698.06250000 789082.12500000 
0.12300    26817286.00000000 17176762.00000000 42914880.00000000 9451.81835938   972355.25000000 774527.68750000 
0.12400    26500300.00000000 16982932.00000000 42418716.00000000 9241.93457031   954191.81250000 760116.18750000 
0.12500    26184442.00000000 16789698.00000000 41924432.00000000 9035.61914062   936212.62500000 745831.81250000 
0.12600    25870120.00000000 16596830.00000000 41432012.00000000 8833.17187500   918418.75000000 731700.56250000 
0.12700    25556364.00000000 16404419.00000000 40940152.00000000 8634.05371094   900808.87500000 717699.12500000 
0.12800    25243612.00000000 16212274.00000000 40449880.00000000 8438.60058594   883384.18750000 703845.06250000 
0.12900    24932012.00000000 16020509.00000000 39960184.00000000 8246.65429688   866139.37500000 690131.68750000 
0.13000    24620618.00000000 15828901.00000000 39471644.00000000 8058.34912109   849084.68750000 676555.68750000 
0.13100    24310314.00000000 15637626.00000000 38983840.00000000 7873.36914062   832214.56250000 663133.37500000 
0.13200    24000872.00000000 15446500.00000000 38497220.00000000 7691.95849609   815540.31250000 649859.62500000 
0.13300    23692054.00000000 15255607.00000000 38011468.00000000 7514.01220703   799056.50000000 636725.81250000 
0.13400    23384088.00000000 15064848.00000000 37526612.00000000 7339.49121094   782775.31250000 623752.75000000 
0.13500    23076736.00000000 14874422.00000000 37042332.00000000 7168.34326172   766684.62500000 610928.56250000 
0.13600    22770316.00000000 14684232.00000000 36559352.00000000 7000.50830078   750796.87500000 598256.93750000 
0.13700    22464590.00000000 14494303.00000000 36077252.00000000 6836.05468750   735110.37500000 585749.18750000 
0.13800    22160030.00000000 14304608.00000000 35596324.00000000 6674.86230469   719632.31250000 573399.93750000 
0.13900    21856248.00000000 14115338.00000000 35116472.00000000 6516.94775391   704359.18750000 561210.43750000 
0.14000    21553560.00000000 13926437.00000000 34638012.00000000 6362.21582031   689297.31250000 549191.25000000 
0.14100    21252012.00000000 13738077.00000000 34161396.00000000 6210.70410156   674446.37500000 537329.93750000 
0.14200    20951474.00000000 13549951.00000000 33685588.00000000 6062.32861328   659808.37500000 525642.25000000 
0.14300    20652204.00000000 13362556.00000000 33211908.00000000 5916.99902344   645387.62500000 514123.15625000 
0.14400    20354434.00000000 13175613.00000000 32739910.00000000 5774.66162109   631176.87500000 502777.75000000 
0.14500    20058068.00000000 12989498.00000000 32270022.00000000 5635.43554688   617187.75000000 491599.96875000 
0.14600    19763110.00000000 12803926.00000000 31802138.00000000 5499.11328125   603423.68750000 480598.43750000 
0.14700    19469882.00000000 12619367.00000000 31336410.00000000 5365.70507812   589880.50000000 469770.71875000 
0.14800    19178170.00000000 12435417.00000000 30873134.00000000 5235.15820312   576548.87500000 459116.96875000 
0.14900    18888444.00000000 12252451.00000000 30412706.00000000 5107.44726562   563447.25000000 448641.18750000 
0.15000    18600536.00000000 12070479.00000000 29954614.00000000 4982.48632812   550564.18750000 438343.46875000 
0.15100    18314462.00000000 11889479.00000000 29499620.00000000 4860.24316406   537908.68750000 428222.75000000 
0.15200    18030642.00000000 11709647.00000000 29047702.00000000 4740.74853516   525474.00000000 418282.37500000 
0.15300    17748828.00000000 11531021.00000000 28599002.00000000 4623.86669922   513269.59375000 408515.75000000 
0.15400    17469434.00000000 11353567.00000000 28153592.00000000 4509.62500000   501277.40625000 398930.90625000 
0.15500    17192208.00000000 11177301.00000000 27711416.00000000 4397.95751953   489516.31250000 389519.96875000 
0.15600    16917572.00000000 11002510.00000000 27272956.00000000 4288.80468750   477972.68750000 380289.28125000 
0.15700    16645595.00000000 10829108.00000000 26838806.00000000 4182.19335938   466656.78125000 371235.06250000 
0.15800    16375864.00000000 10657224.00000000 26408028.00000000 4078.02416992   455558.62500000 362357.06250000 
0.15900    16109004.00000000 10486842.00000000 25981556.00000000 3976.27246094   444682.34375000 353659.93750000 
0.16000    15844697.00000000 10318052.00000000 25558998.00000000 3876.96313477   434020.12500000 345129.75000000 
0.16100    15583364.00000000 10150952.00000000 25141176.00000000 3780.04101562   423585.56250000 336782.59375000 
0.16200    15324904.00000000 9985392.00000000 24727464.00000000 3685.46069336   413361.65625000 328601.25000000 
0.16300    15069274.00000000 9821741.00000000 24318554.00000000 3593.20971680   403352.43750000 320594.25000000 
0.16400    14816830.00000000 9659776.00000000 23914044.00000000 3503.24780273   393556.78125000 312759.43750000 
0.16500    14567479.00000000 9499645.00000000 23514402.00000000 3415.58276367   383976.34375000 305090.09375000 
0.16600    14321143.00000000 9341478.00000000 23119630.00000000 3330.16040039   374603.53125000 297593.28125000 
0.16700    14077943.00000000 9185110.00000000 22729616.00000000 3246.94287109   365438.31250000 290257.87500000 
0.16800    13838033.00000000 9030567.00000000 22344560.00000000 3165.95043945   356475.34375000 283085.28125000 
0.16900    13601456.00000000 8878200.00000000 21965018.00000000 3087.15722656   347722.53125000 276079.59375000 
0.17000    13368122.00000000 8727749.00000000 21590108.00000000 3010.51977539   339166.43750000 269231.84375000 
