# SAXS profile: number of points = 501, q_min = 0, q_max = 0.5, delta_q = 0.001
#    q    intensity 
0.00000    162232336.00000000 101202336.00000000 256270096.00000000 106932.64843750 8330334.00000000 6579294.00000000 
0.00100    162192832.00000000 101173848.00000000 256199088.00000000 106895.80468750 8327718.50000000 6577238.00000000 
0.00200    162062144.00000000 101090584.00000000 255987344.00000000 106787.41406250 8319997.50000000 6571142.50000000 
0.00300    161840992.00000000 100952280.00000000 255635584.00000000 106605.58593750 8307134.00000000 6561064.50000000 
0.00400    161524160.00000000 100758272.00000000 255141136.00000000 106352.51562500 8289193.00000000 6546942.00000000 
0.00500    161119360.00000000 100508928.00000000 254506336.00000000 106028.08593750 8266097.00000000 6528861.00000000 
0.00600    160627744.00000000 100205712.00000000 253734432.00000000 105633.88281250 8238069.50000000 6506781.00000000 
0.00700    160041696.00000000 99848952.00000000 252827312.00000000 105169.57812500 8205084.00000000 6480897.00000000 
0.00800    159378000.00000000 99440936.00000000 251785792.00000000 104636.96093750 8167138.50000000 6451134.50000000 
0.00900    158631952.00000000 98980312.00000000 250610896.00000000 104038.10156250 8124485.00000000 6417586.00000000 
0.01000    157802880.00000000 98468152.00000000 249305968.00000000 103373.10937500 8077170.00000000 6380383.00000000 
0.01100    156891536.00000000 97906200.00000000 247871280.00000000 102644.64843750 8025253.00000000 6339574.50000000 
0.01200    155895584.00000000 97293992.00000000 246316080.00000000 101853.68750000 7968820.00000000 6295245.50000000 
0.01300    154827408.00000000 96635248.00000000 244636608.00000000 101002.65625000 7908122.50000000 6247501.00000000 
0.01400    153685648.00000000 95929808.00000000 242839792.00000000 100094.57812500 7843185.00000000 6196463.50000000 
0.01500    152468528.00000000 95179872.00000000 240929872.00000000 99129.34375000  7774205.50000000 6142229.50000000 
0.01600    151180656.00000000 94385600.00000000 238908832.00000000 98111.37500000  7701297.00000000 6084870.00000000 
0.01700    149826384.00000000 93550072.00000000 236780816.00000000 97042.03125000  7624602.00000000 6024645.00000000 
0.01800    148406048.00000000 92674608.00000000 234550400.00000000 95923.62500000  7544405.50000000 5961556.00000000 
0.01900    146925168.00000000 91760200.00000000 232222848.00000000 94759.30468750  7460713.50000000 5895839.50000000 
0.02000    145382464.00000000 90809288.00000000 229800208.00000000 93551.55468750  7373835.00000000 5827479.00000000 
0.02100    143784496.00000000 89822808.00000000 227287744.00000000 92303.16406250  7283927.00000000 5756718.00000000 
0.02200    142132208.00000000 88803792.00000000 224693440.00000000 91016.91406250  7191080.50000000 5683765.50000000 
0.02300    140432096.00000000 87752384.00000000 222019600.00000000 89695.43750000  7095653.00000000 5608661.00000000 
0.02400    138683472.00000000 86671832.00000000 219269008.00000000 88341.49218750  6997619.50000000 5531576.50000000 
0.02500    136889040.00000000 85564008.00000000 216450240.00000000 86958.59375000  6897363.50000000 5452728.00000000 
0.02600    135055904.00000000 84430752.00000000 213567760.00000000 85548.60937500  6795024.50000000 5372178.00000000 
0.02700    133184784.00000000 83274504.00000000 210625760.00000000 84116.23437500  6690796.00000000 5290128.00000000 
0.02800    131279256.00000000 82096688.00000000 207630224.00000000 82661.88281250  6584835.50000000 5206762.00000000 
0.02900    129343672.00000000 80898960.00000000 204585584.00000000 81190.28125000  6477362.50000000 5122181.50000000 
0.03000    127380592.00000000 79684368.00000000 201497472.00000000 79704.18750000  6368582.00000000 5036590.50000000 
0.03100    125392520.00000000 78454624.00000000 198370576.00000000 78205.53125000  6258802.50000000 4950098.50000000 
0.03200    123384576.00000000 77212304.00000000 195210272.00000000 76697.94531250  6148009.00000000 4862915.00000000 
0.03300    121358776.00000000 75957944.00000000 192022096.00000000 75183.78125000  6036554.50000000 4775126.00000000 
0.03400    119318880.00000000 74694672.00000000 188808352.00000000 73666.03906250  5924555.00000000 4686900.50000000 
0.03500    117266392.00000000 73423832.00000000 185581040.00000000 72146.28906250  5812249.00000000 4598415.50000000 
0.03600    115207112.00000000 72146664.00000000 182338032.00000000 70628.07812500  5699625.50000000 4509722.50000000 
0.03700    113142872.00000000 70866624.00000000 179086976.00000000 69113.29687500  5587124.50000000 4421075.50000000 
0.03800    111076152.00000000 69585216.00000000 175831168.00000000 67604.85156250  5474773.00000000 4332528.00000000 
0.03900    109011216.00000000 68304496.00000000 172578240.00000000 66104.25000000  5362732.00000000 4244277.50000000 
0.04000    106949560.00000000 67024852.00000000 169328864.00000000 64614.00781250  5251241.50000000 4156337.75000000 
0.04100    104894760.00000000 65748660.00000000 166091024.00000000 63136.33203125  5140412.50000000 4068922.00000000 
0.04200    102849112.00000000 64478276.00000000 162865440.00000000 61673.26171875  5030323.50000000 3982137.00000000 
0.04300    100815768.00000000 63214652.00000000 159659792.00000000 60226.21093750  4921170.50000000 3896066.25000000 
0.04400    98795744.00000000 61959772.00000000 156474496.00000000 58797.03125000  4813105.00000000 3810812.00000000 
0.04500    96792928.00000000 60714212.00000000 153316192.00000000 57387.65625000  4706183.50000000 3726495.25000000 
0.04600    94808560.00000000 59480416.00000000 150186288.00000000 55999.01953125  4600638.50000000 3643193.00000000 
0.04700    92845416.00000000 58259348.00000000 147091120.00000000 54632.44921875  4496488.00000000 3560983.50000000 
0.04800    90904592.00000000 57051516.00000000 144029312.00000000 53289.75781250  4393849.50000000 3479978.00000000 
0.04900    88989800.00000000 55859168.00000000 141005232.00000000 51971.60546875  4292827.00000000 3400215.50000000 
0.05000    87101568.00000000 54683296.00000000 138026288.00000000 50678.81250000  4193445.50000000 3321779.25000000 
0.05100    85241304.00000000 53524332.00000000 135091152.00000000 49412.86718750  4095900.25000000 3244722.00000000 
0.05200    83410840.00000000 52383812.00000000 132201840.00000000 48174.03125000  4000148.50000000 3169095.50000000 
0.05300    81612424.00000000 51262524.00000000 129361072.00000000 46962.91015625  3906304.25000000 3094973.75000000 
0.05400    79846016.00000000 50160912.00000000 126571472.00000000 45780.60546875  3814429.75000000 3022376.25000000 
0.05500    78113816.00000000 49080124.00000000 123834792.00000000 44626.51171875  3724554.75000000 2951351.50000000 
0.05600    76415864.00000000 48020708.00000000 121152472.00000000 43501.76171875  3636701.25000000 2881914.50000000 
0.05700    74754048.00000000 46983656.00000000 118526560.00000000 42406.07421875  3550935.50000000 2814115.75000000 
0.05800    73128408.00000000 45968576.00000000 115956792.00000000 41340.25390625  3467250.75000000 2747984.50000000 
0.05900    71539848.00000000 44976368.00000000 113446216.00000000 40303.25000000  3385666.00000000 2683482.00000000 
0.06000    69988872.00000000 44007404.00000000 110994680.00000000 39295.50781250  3306215.00000000 2620643.25000000 
0.06100    68476048.00000000 43062300.00000000 108602832.00000000 38317.04296875  3228890.00000000 2559465.50000000 
0.06200    67002604.00000000 42140852.00000000 106271512.00000000 37367.38671875  3153696.00000000 2499986.50000000 
0.06300    65565852.00000000 41243328.00000000 104000952.00000000 36446.46484375  3080587.25000000 2442179.75000000 
0.06400    64169360.00000000 40369480.00000000 101791640.00000000 35553.21875000  3009573.00000000 2386002.25000000 
0.06500    62811116.00000000 39519872.00000000 99643008.00000000 34687.51171875  2940635.00000000 2331442.00000000 
0.06600    61491112.00000000 38694736.00000000 97555488.00000000 33849.21484375  2873766.00000000 2278535.00000000 
0.06700    60209736.00000000 37893068.00000000 95528720.00000000 33037.44921875  2808930.75000000 2227218.00000000 
0.06800    58966884.00000000 37115508.00000000 93563224.00000000 32251.33789062  2746073.25000000 2177483.50000000 
0.06900    57761700.00000000 36361460.00000000 91656064.00000000 31490.31835938  2685175.75000000 2129279.00000000 
0.07000    56593888.00000000 35630976.00000000 89809216.00000000 30754.16601562  2626209.00000000 2082603.25000000 
0.07100    55463128.00000000 34923956.00000000 88020840.00000000 30041.63867188  2569095.25000000 2037405.87500000 
0.07200    54368268.00000000 34239160.00000000 86289408.00000000 29352.13671875  2513790.50000000 1993644.25000000 
0.07300    53309756.00000000 33577200.00000000 84614160.00000000 28684.85546875  2460296.75000000 1951289.87500000 
0.07400    52285956.00000000 32937426.00000000 82995360.00000000 28039.05859375  2408520.50000000 1910320.87500000 
0.07500    51296132.00000000 32319274.00000000 81430808.00000000 27414.18164062  2358396.00000000 1870650.25000000 
0.07600    50340440.00000000 31722056.00000000 79919656.00000000 26808.92578125  2309908.25000000 1832261.37500000 
0.07700    49417760.00000000 31145350.00000000 78460320.00000000 26222.83203125  2262978.75000000 1795130.00000000 
0.07800    48526124.00000000 30588668.00000000 77051416.00000000 25654.77734375  2217565.25000000 1759190.25000000 
0.07900    47665764.00000000 30051776.00000000 75691544.00000000 25104.36132812  2173608.25000000 1724378.12500000 
0.08000    46835004.00000000 29533856.00000000 74380080.00000000 24570.42578125  2131011.50000000 1690690.75000000 
0.08100    46033332.00000000 29034254.00000000 73113720.00000000 24052.48632812  2089766.37500000 1658052.75000000 
0.08200    45260184.00000000 28552512.00000000 71892704.00000000 23549.73828125  2049777.75000000 1626424.25000000 
0.08300    44513364.00000000 28087904.00000000 70714856.00000000 23061.15820312  2011026.75000000 1595762.37500000 
0.08400    43792972.00000000 27640022.00000000 69578232.00000000 22586.41210938  1973436.37500000 1566038.00000000 
0.08500    43098092.00000000 27208114.00000000 68482960.00000000 22124.45898438  1936949.37500000 1537186.75000000 
0.08600    42426608.00000000 26791192.00000000 67424560.00000000 21674.98437500  1901521.00000000 1509172.62500000 
0.08700    41778780.00000000 26389164.00000000 66403804.00000000 21237.08789062  1867087.25000000 1481961.62500000 
0.08800    41152868.00000000 26001292.00000000 65418048.00000000 20810.17187500  1833600.00000000 1455494.62500000 
0.08900    40547960.00000000 25626740.00000000 64465664.00000000 20393.85937500  1801013.37500000 1429734.00000000 
0.09000    39962872.00000000 25265004.00000000 63545544.00000000 19987.47851562  1769281.50000000 1404656.25000000 
0.09100    39397028.00000000 24915610.00000000 62655772.00000000 19590.41015625  1738359.00000000 1380203.00000000 
0.09200    38849436.00000000 24577666.00000000 61795248.00000000 19202.17187500  1708167.00000000 1356363.00000000 
0.09300    38319048.00000000 24250754.00000000 60961988.00000000 18822.40429688  1678719.75000000 1333087.37500000 
0.09400    37804932.00000000 23934198.00000000 60155180.00000000 18450.71875000  1649935.25000000 1310349.87500000 
0.09500    37305856.00000000 23627736.00000000 59372316.00000000 18086.67382812  1621770.37500000 1288123.75000000 
0.09600    36821796.00000000 23330170.00000000 58613284.00000000 17729.66015625  1594222.00000000 1266351.37500000 
0.09700    36351184.00000000 23041620.00000000 57875256.00000000 17379.85156250  1567233.00000000 1245032.37500000 
0.09800    35893072.00000000 22760970.00000000 57158760.00000000 17036.46875000  1540782.25000000 1224136.12500000 
0.09900    35447636.00000000 22488242.00000000 56460804.00000000 16699.45117188  1514811.50000000 1203632.37500000 
0.10000    35012992.00000000 22222740.00000000 55781176.00000000 16368.50292969  1489322.00000000 1183509.12500000 
0.10100    34588968.00000000 21963788.00000000 55117996.00000000 16043.25878906  1464269.62500000 1163707.37500000 
0.10200    34174736.00000000 21710854.00000000 54470772.00000000 15723.82617188  1439657.25000000 1144264.37500000 
0.10300    33770032.00000000 21463828.00000000 53838032.00000000 15409.79492188  1415430.37500000 1125119.00000000 
0.10400    33373670.00000000 21222222.00000000 53218748.00000000 15100.91992188  1391576.75000000 1106268.25000000 
0.10500    32985008.00000000 20985788.00000000 52611956.00000000 14797.38378906  1368078.25000000 1087707.25000000 
0.10600    32603824.00000000 20753716.00000000 52016580.00000000 14498.81542969  1344908.50000000 1069397.37500000 
0.10700    32229552.00000000 20525598.00000000 51431900.00000000 14205.01269531  1322076.37500000 1051344.62500000 
0.10800    31861072.00000000 20301726.00000000 50857104.00000000 13915.97363281  1299565.62500000 1033533.31250000 
0.10900    31498828.00000000 20081286.00000000 50291288.00000000 13631.74121094  1277313.25000000 1015948.31250000 
0.11000    31141610.00000000 19863906.00000000 49733820.00000000 13352.14843750  1255385.37500000 998576.18750000 
0.11100    30789358.00000000 19649666.00000000 49183904.00000000 13077.12304688  1233709.50000000 981433.06250000 
0.11200    30441256.00000000 19437822.00000000 48640872.00000000 12806.46484375  1212303.50000000 964491.43750000 
0.11300    30097388.00000000 19228500.00000000 48103800.00000000 12540.37890625  1191161.75000000 947747.25000000 
0.11400    29757310.00000000 19021416.00000000 47572776.00000000 12278.66210938  1170275.87500000 931197.93750000 
0.11500    29420650.00000000 18816206.00000000 47046336.00000000 12021.51660156  1149635.12500000 914841.43750000 
0.11600    29087136.00000000 18612696.00000000 46525056.00000000 11768.49316406  1129233.87500000 898669.87500000 
0.11700    28756598.00000000 18410806.00000000 46008068.00000000 11519.80078125  1109064.75000000 882678.87500000 
0.11800    28427976.00000000 18210180.00000000 45494536.00000000 11275.40917969  1089130.25000000 866863.50000000 
0.11900    28102240.00000000 18010810.00000000 44984004.00000000 11035.30078125  1069445.25000000 851232.81250000 
0.12000    27778428.00000000 17812416.00000000 44477568.00000000 10799.33496094  1049958.87500000 835773.93750000 
0.12100    27456762.00000000 17615116.00000000 43972624.00000000 10567.55761719  1030729.50000000 820493.18750000 
0.12200    27136792.00000000 17418470.00000000 43470892.00000000 10340.01562500  1011710.93750000 805384.31250000 
0.12300    26818280.00000000 17222996.00000000 42971104.00000000 10116.48242188  992926.12500000 790450.87500000 
0.12400    26501374.00000000 17027538.00000000 42473400.00000000 9897.06152344   974354.43750000 775689.81250000 
0.12500    26185900.00000000 16832822.00000000 41977640.00000000 9681.69042969   956011.43750000 761096.75000000 
0.12600    25871568.00000000 16638843.00000000 41483420.00000000 9470.27539062   937903.12500000 746682.62500000 
0.12700    25558404.00000000 16445116.00000000 40991040.00000000 9262.74121094   920006.81250000 732439.12500000 
0.12800    25246338.00000000 16251653.00000000 40499416.00000000 9059.12695312   902339.75000000 718364.56250000 
0.12900    24935478.00000000 16058763.00000000 40009292.00000000 8859.38183594   884891.56250000 704472.93750000 
0.13000    24625480.00000000 15866066.00000000 39520228.00000000 8663.45703125   867668.56250000 690745.56250000 
0.13100    24316172.00000000 15673637.00000000 39032224.00000000 8471.08007812   850666.93750000 677185.81250000 
0.13200    24008182.00000000 15481517.00000000 38545020.00000000 8282.48144531   833880.06250000 663806.31250000 
0.13300    23700930.00000000 15289529.00000000 38059636.00000000 8097.43554688   817321.37500000 650598.62500000 
0.13400    23394726.00000000 15097870.00000000 37575188.00000000 7915.98046875   800980.37500000 637567.81250000 
0.13500    23089228.00000000 14906515.00000000 37091144.00000000 7737.96777344   784857.87500000 624706.62500000 
0.13600    22784878.00000000 14715243.00000000 36608332.00000000 7563.25683594   768962.62500000 612011.50000000 
0.13700    22481106.00000000 14524421.00000000 36126956.00000000 7392.00195312   753282.50000000 599494.81250000 
0.13800    22178330.00000000 14333869.00000000 35646404.00000000 7223.88574219   737814.75000000 587145.62500000 
0.13900    21876648.00000000 14143617.00000000 35167412.00000000 7059.02197266   722567.62500000 574961.75000000 
0.14000    21575830.00000000 13953771.00000000 34689120.00000000 6897.22412109   707533.50000000 562962.56250000 
0.14100    21276064.00000000 13764227.00000000 34212520.00000000 6738.47314453   692716.37500000 551121.31250000 
0.14200    20977282.00000000 13575055.00000000 33736888.00000000 6582.74218750   678106.68750000 539449.43750000 
0.14300    20679810.00000000 13386492.00000000 33263016.00000000 6429.90478516   663713.87500000 527950.37500000 
0.14400    20383246.00000000 13198257.00000000 32790490.00000000 6279.87109375   649528.12500000 516612.75000000 
0.14500    20087866.00000000 13010668.00000000 32319842.00000000 6132.65527344   635543.68750000 505442.03125000 
0.14600    19793802.00000000 12823687.00000000 31850648.00000000 5988.16455078   621771.93750000 494432.93750000 
0.14700    19501264.00000000 12637265.00000000 31383628.00000000 5846.36621094   608200.06250000 483587.87500000 
0.14800    19209734.00000000 12451468.00000000 30918164.00000000 5707.10546875   594831.43750000 472904.56250000 
0.14900    18919816.00000000 12266437.00000000 30454966.00000000 5570.43261719   581657.06250000 462382.65625000 
0.15000    18631224.00000000 12082155.00000000 29994054.00000000 5436.22119141   568688.62500000 452012.21875000 
0.15100    18344506.00000000 11898881.00000000 29535394.00000000 5304.50292969   555919.75000000 441804.50000000 
0.15200    18059240.00000000 11716344.00000000 29079124.00000000 5175.26025391   543342.37500000 431753.71875000 
0.15300    17775594.00000000 11534771.00000000 28625236.00000000 5048.39550781   530952.81250000 421854.65625000 
0.15400    17493802.00000000 11354191.00000000 28174044.00000000 4923.82421875   518752.37500000 412110.25000000 
0.15500    17213990.00000000 11174634.00000000 27725748.00000000 4801.58056641   506751.56250000 402517.31250000 
0.15600    16935904.00000000 10996220.00000000 27280248.00000000 4681.58837891   494929.06250000 393072.40625000 
0.15700    16659941.00000000 10818973.00000000 26837964.00000000 4564.00048828   483300.34375000 383786.00000000 
0.15800    16385862.00000000 10642982.00000000 26398794.00000000 4448.50439453   471852.65625000 374636.50000000 
0.15900    16114062.00000000 10468270.00000000 25962948.00000000 4335.28027344   460590.03125000 365644.50000000 
0.16000    15844267.00000000 10294749.00000000 25530264.00000000 4224.26953125   449508.25000000 356791.21875000 
0.16100    15576958.00000000 10122725.00000000 25101494.00000000 4115.52587891   438607.15625000 348087.65625000 
0.16200    15311912.00000000 9952118.00000000 24676166.00000000 4008.88916016   427892.90625000 339529.65625000 
0.16300    15049313.00000000 9783015.00000000 24254878.00000000 3904.45288086   417347.59375000 331110.43750000 
0.16400    14789134.00000000 9615363.00000000 23837346.00000000 3802.22583008   406987.00000000 322834.68750000 
0.16500    14531625.00000000 9449478.00000000 23423932.00000000 3702.14355469   396802.28125000 314702.93750000 
0.16600    14276745.00000000 9285142.00000000 23014614.00000000 3604.24218750   386793.21875000 306709.46875000 
0.16700    14024440.00000000 9122438.00000000 22609450.00000000 3508.47460938   376955.71875000 298859.25000000 
0.16800    13774923.00000000 8961463.00000000 22208860.00000000 3414.88061523   367296.75000000 291145.21875000 
0.16900    13528320.00000000 8802426.00000000 21812460.00000000 3323.49853516   357813.06250000 283574.34375000 
0.17000    13284630.00000000 8645099.00000000 21421068.00000000 3234.25781250   348500.34375000 276137.81250000 
