# SAXS profile: number of points = 501, q_min = 0, q_max = 0.5, delta_q = 0.001
#    q    intensity 
0.00000    162236272.00000000 101202048.00000000 256271792.00000000 115589.21093750 8660935.00000000 6840422.50000000 
0.00100    162199024.00000000 101177128.00000000 256208688.00000000 115553.48437500 8658539.00000000 6838540.50000000 
0.00200    162082352.00000000 101104480.00000000 256023008.00000000 115448.07031250 8651443.00000000 6832902.00000000 
0.00300    161888000.00000000 100982608.00000000 255713280.00000000 115272.34375000 8639415.00000000 6823537.50000000 
0.00400    161611728.00000000 100813104.00000000 255280640.00000000 115025.85937500 8622772.00000000 6810402.50000000 
0.00500    161257904.00000000 100594624.00000000 254725760.00000000 114710.57031250 8601356.00000000 6793610.00000000 
0.00600    160823840.00000000 100327696.00000000 254045920.00000000 114326.57812500 8575294.00000000 6773062.00000000 
0.00700    160315952.00000000 100014696.00000000 253249904.00000000 113873.88281250 8544584.00000000 6748942.00000000 
0.00800    159727680.00000000 99654520.00000000 252332464.00000000 113354.75000000 8509251.00000000 6721205.00000000 
0.00900    159069024.00000000 99249392.00000000 251298352.00000000 112769.92187500 8469512.00000000 6689955.00000000 
0.01000    158337200.00000000 98798064.00000000 250146688.00000000 112119.81250000 8425330.00000000 6655192.50000000 
0.01100    157533808.00000000 98302472.00000000 248882544.00000000 111405.27343750 8376724.50000000 6617010.50000000 
0.01200    156657488.00000000 97761496.00000000 247505344.00000000 110629.64062500 8323913.00000000 6575503.50000000 
0.01300    155709936.00000000 97178000.00000000 246020224.00000000 109793.20312500 8266903.50000000 6530701.50000000 
0.01400    154694512.00000000 96551960.00000000 244426528.00000000 108897.72656250 8205859.50000000 6482734.50000000 
0.01500    153612816.00000000 95885176.00000000 242728736.00000000 107945.35156250 8140854.50000000 6431635.00000000 
0.01600    152468048.00000000 95178640.00000000 240928704.00000000 106937.59375000 8072000.00000000 6377500.00000000 
0.01700    151257648.00000000 94433344.00000000 239030064.00000000 105876.71093750 7999462.50000000 6320462.50000000 
0.01800    149988032.00000000 93650376.00000000 237035024.00000000 104763.65625000 7923321.50000000 6260619.50000000 
0.01900    148659504.00000000 92830792.00000000 234948160.00000000 103602.17968750 7843758.00000000 6198007.00000000 
0.02000    147273568.00000000 91976072.00000000 232770816.00000000 102394.04687500 7760854.50000000 6132839.50000000 
0.02100    145833296.00000000 91087744.00000000 230510240.00000000 101140.43750000 7674782.00000000 6065204.00000000 
0.02200    144340464.00000000 90166872.00000000 228165152.00000000 99844.66406250  7585702.50000000 5995197.50000000 
0.02300    142797040.00000000 89215112.00000000 225740128.00000000 98509.25000000  7493765.50000000 5922861.00000000 
0.02400    141208256.00000000 88233456.00000000 223241328.00000000 97136.31250000  7399146.50000000 5848429.50000000 
0.02500    139571296.00000000 87224176.00000000 220671360.00000000 95728.13281250  7301934.50000000 5771977.00000000 
0.02600    137892640.00000000 86188216.00000000 218033152.00000000 94288.33593750  7202358.50000000 5693693.00000000 
0.02700    136174096.00000000 85127456.00000000 215334656.00000000 92817.42187500  7100544.50000000 5613600.00000000 
0.02800    134418064.00000000 84043168.00000000 212574080.00000000 91319.57031250  6996685.50000000 5531887.50000000 
0.02900    132626968.00000000 82936744.00000000 209758752.00000000 89797.39843750  6890936.00000000 5448700.50000000 
0.03000    130803112.00000000 81810544.00000000 206892496.00000000 88252.47656250  6783438.00000000 5364091.00000000 
0.03100    128949992.00000000 80666072.00000000 203978432.00000000 86688.13281250  6674404.50000000 5278354.50000000 
0.03200    127069488.00000000 79504944.00000000 201023872.00000000 85106.50000000  6563973.00000000 5191471.00000000 
0.03300    125164336.00000000 78328072.00000000 198028752.00000000 83511.21875000  6452369.50000000 5103614.50000000 
0.03400    123237960.00000000 77137384.00000000 195000208.00000000 81902.82031250  6339663.00000000 5014904.00000000 
0.03500    121292496.00000000 75934448.00000000 191940528.00000000 80285.65625000  6226085.00000000 4925509.50000000 
0.03600    119330208.00000000 74721568.00000000 188853824.00000000 78661.38281250  6111806.50000000 4835554.50000000 
0.03700    117353680.00000000 73500056.00000000 185747888.00000000 77032.93750000  5996953.00000000 4745147.50000000 
0.03800    115367152.00000000 72271592.00000000 182621664.00000000 75402.62500000  5881652.50000000 4654399.00000000 
0.03900    113370968.00000000 71037360.00000000 179482720.00000000 73772.46093750  5766186.50000000 4563458.00000000 
0.04000    111367992.00000000 69798632.00000000 176330896.00000000 72144.13281250  5650552.00000000 4472417.50000000 
0.04100    109362296.00000000 68556672.00000000 173176016.00000000 70520.49218750  5535039.00000000 4381440.50000000 
0.04200    107354768.00000000 67314240.00000000 170017232.00000000 68904.21875000  5419764.00000000 4290604.00000000 
0.04300    105349496.00000000 66072320.00000000 166859648.00000000 67296.37500000  5304810.00000000 4200029.50000000 
0.04400    103346760.00000000 64831988.00000000 163707856.00000000 65699.28906250  5190321.00000000 4109850.75000000 
0.04500    101349944.00000000 63595700.00000000 160564704.00000000 64115.69531250  5076514.00000000 4020158.75000000 
0.04600    99360632.00000000 62363264.00000000 157433408.00000000 62545.76953125  4963426.50000000 3931044.50000000 
0.04700    97382144.00000000 61137328.00000000 154318016.00000000 60992.83203125  4851225.50000000 3842606.75000000 
0.04800    95415952.00000000 59918040.00000000 151222112.00000000 59457.41015625  4740021.00000000 3754954.25000000 
0.04900    93463664.00000000 58708060.00000000 148146720.00000000 57941.74218750  4629932.50000000 3668156.50000000 
0.05000    91528056.00000000 57507228.00000000 145097760.00000000 56447.05468750  4521053.50000000 3582340.00000000 
0.05100    89609688.00000000 56317280.00000000 142077136.00000000 54974.84375000  4413508.00000000 3497538.25000000 
0.05200    87710936.00000000 55139544.00000000 139084976.00000000 53525.57031250  4307386.50000000 3413827.50000000 
0.05300    85833984.00000000 53974296.00000000 136127808.00000000 52101.44921875  4202795.00000000 3331326.75000000 
0.05400    83980864.00000000 52823668.00000000 133207176.00000000 50703.25000000  4099789.50000000 3250051.50000000 
0.05500    82151248.00000000 51687324.00000000 130324192.00000000 49331.74609375  3998451.25000000 3170085.75000000 
0.05600    80347640.00000000 50567168.00000000 127480944.00000000 47988.12890625  3898853.00000000 3091505.75000000 
0.05700    78571784.00000000 49463268.00000000 124680752.00000000 46672.79687500  3801112.75000000 3014312.00000000 
0.05800    76824360.00000000 48377156.00000000 121925344.00000000 45386.65625000  3705210.00000000 2938613.75000000 
0.05900    75106016.00000000 47309096.00000000 119215936.00000000 44129.94140625  3611229.75000000 2864419.50000000 
0.06000    73419384.00000000 46259804.00000000 116553864.00000000 42903.23437500  3519225.25000000 2791754.00000000 
0.06100    71763848.00000000 45230120.00000000 113942832.00000000 41707.44531250  3429243.75000000 2720685.00000000 
0.06200    70141112.00000000 44220160.00000000 111382304.00000000 40542.54687500  3341322.00000000 2651226.50000000 
0.06300    68551224.00000000 43230648.00000000 108874144.00000000 39408.80468750  3255478.25000000 2583413.75000000 
0.06400    66996400.00000000 42261860.00000000 106419552.00000000 38305.96093750  3171725.75000000 2517215.00000000 
0.06500    65475424.00000000 41314696.00000000 104019360.00000000 37234.24609375  3090113.50000000 2452696.75000000 
0.06600    63989880.00000000 40388976.00000000 101673544.00000000 36194.00000000  3010642.00000000 2389884.25000000 
0.06700    62540024.00000000 39485376.00000000 99383304.00000000 35184.59375000  2933318.25000000 2328729.50000000 
0.06800    61126100.00000000 38603456.00000000 97149800.00000000 34206.30859375  2858131.75000000 2269268.50000000 
0.06900    59747600.00000000 37743952.00000000 94973440.00000000 33258.95703125  2785094.50000000 2211486.00000000 
0.07000    58406040.00000000 36906712.00000000 92853592.00000000 32341.53906250  2714180.25000000 2155402.00000000 
0.07100    57100732.00000000 36091504.00000000 90791032.00000000 31454.30468750  2645386.75000000 2100960.25000000 
0.07200    55831924.00000000 35299188.00000000 88785240.00000000 30596.60546875  2578712.75000000 2048191.75000000 
0.07300    54599268.00000000 34529600.00000000 86836696.00000000 29767.86718750  2514115.50000000 1997059.87500000 
0.07400    53402740.00000000 33781940.00000000 84944816.00000000 28967.53320312  2451596.25000000 1947542.87500000 
0.07500    52242344.00000000 33056722.00000000 83110496.00000000 28195.19140625  2391097.75000000 1899638.25000000 
0.07600    51117268.00000000 32353308.00000000 81331512.00000000 27450.06835938  2332578.00000000 1853287.00000000 
0.07700    50027756.00000000 31672160.00000000 79607792.00000000 26731.70507812  2276057.00000000 1808502.75000000 
0.07800    48973228.00000000 31012484.00000000 77939976.00000000 26039.07812500  2221441.75000000 1765228.50000000 
0.07900    47953360.00000000 30374330.00000000 76326000.00000000 25371.66601562  2168718.75000000 1723437.00000000 
0.08000    46967216.00000000 29757174.00000000 74765000.00000000 24728.87109375  2117845.50000000 1683102.25000000 
0.08100    46014580.00000000 29160624.00000000 73257784.00000000 24109.29296875  2068746.37500000 1644190.00000000 
0.08200    45094784.00000000 28584618.00000000 71801480.00000000 23513.09960938  2021382.25000000 1606648.00000000 
0.08300    44206896.00000000 28028386.00000000 70396232.00000000 22938.51953125  1975722.25000000 1570442.00000000 
0.08400    43350396.00000000 27491858.00000000 69040304.00000000 22385.32226562  1931717.62500000 1535521.25000000 
0.08500    42524560.00000000 26974524.00000000 67732616.00000000 21852.34960938  1889308.62500000 1501869.00000000 
0.08600    41728832.00000000 26475662.00000000 66472572.00000000 21339.15039062  1848408.12500000 1469428.62500000 
0.08700    40961908.00000000 25995086.00000000 65258328.00000000 20844.68750000  1809002.25000000 1438155.62500000 
0.08800    40223444.00000000 25532112.00000000 64088544.00000000 20368.02734375  1771016.37500000 1408017.62500000 
0.08900    39512476.00000000 25086188.00000000 62962068.00000000 19908.43554688  1734406.00000000 1378942.12500000 
0.09000    38827880.00000000 24657102.00000000 61877660.00000000 19465.10351562  1699105.12500000 1350926.37500000 
0.09100    38169000.00000000 24243814.00000000 60834176.00000000 19037.23046875  1665054.75000000 1323897.87500000 
0.09200    37534620.00000000 23845992.00000000 59829668.00000000 18624.24804688  1632202.62500000 1297811.62500000 
0.09300    36923956.00000000 23463274.00000000 58862988.00000000 18225.03710938  1600482.37500000 1272638.50000000 
0.09400    36336260.00000000 23094980.00000000 57932008.00000000 17838.98828125  1569872.62500000 1248324.50000000 
0.09500    35770748.00000000 22740476.00000000 57036280.00000000 17465.35351562  1540283.62500000 1224827.12500000 
0.09600    35226128.00000000 22398918.00000000 56173552.00000000 17103.60351562  1511667.12500000 1202107.75000000 
0.09700    34701332.00000000 22070226.00000000 55343308.00000000 16752.77148438  1483986.62500000 1180121.62500000 
0.09800    34196192.00000000 21753710.00000000 54543004.00000000 16412.29296875  1457184.12500000 1158829.62500000 
0.09900    33709168.00000000 21448518.00000000 53771960.00000000 16081.70507812  1431190.37500000 1138198.62500000 
0.10000    33239328.00000000 21154368.00000000 53028176.00000000 15760.18164062  1405975.12500000 1118179.50000000 
0.10100    32786074.00000000 20870724.00000000 52310776.00000000 15447.24218750  1381486.87500000 1098725.87500000 
0.10200    32348158.00000000 20596654.00000000 51617848.00000000 15142.34570312  1357686.75000000 1079826.00000000 
0.10300    31925144.00000000 20331948.00000000 50948596.00000000 14844.96191406  1334507.50000000 1061422.50000000 
0.10400    31515566.00000000 20076022.00000000 50301144.00000000 14554.59277344  1311926.50000000 1043496.18750000 
0.10500    31119448.00000000 19828530.00000000 49674404.00000000 14270.75976562  1289908.25000000 1026015.12500000 
0.10600    30735166.00000000 19588580.00000000 49067200.00000000 13993.12988281  1268388.62500000 1008937.25000000 
0.10700    30362222.00000000 19355758.00000000 48477800.00000000 13721.16113281  1247369.75000000 992236.06250000 
0.10800    29999980.00000000 19129940.00000000 47905496.00000000 13454.48632812  1226773.00000000 975887.06250000 
0.10900    29647680.00000000 18910272.00000000 47348828.00000000 13192.87792969  1206592.62500000 959861.18750000 
0.11000    29304158.00000000 18696220.00000000 46806700.00000000 12935.92968750  1186772.87500000 944139.68750000 
0.11100    28969454.00000000 18487810.00000000 46278364.00000000 12683.52929688  1167311.25000000 928699.12500000 
0.11200    28642212.00000000 18284328.00000000 45761856.00000000 12435.04785156  1148173.25000000 913501.56250000 
0.11300    28322222.00000000 18085322.00000000 45257260.00000000 12190.54394531  1129310.00000000 898542.87500000 
0.11400    28008710.00000000 17890554.00000000 44762632.00000000 11949.66113281  1110747.00000000 883803.18750000 
0.11500    27701082.00000000 17699436.00000000 44277352.00000000 11712.32714844  1092414.00000000 869257.50000000 
0.11600    27398922.00000000 17511966.00000000 43801256.00000000 11478.41210938  1074319.12500000 854898.68750000 
0.11700    27101484.00000000 17327392.00000000 43332600.00000000 11247.60839844  1056427.37500000 840706.25000000 
0.11800    26808416.00000000 17145802.00000000 42870688.00000000 11019.86914062  1038733.68750000 826657.25000000 
0.11900    26519284.00000000 16966452.00000000 42415472.00000000 10795.12207031  1021220.25000000 812759.56250000 
0.12000    26233460.00000000 16789412.00000000 41965296.00000000 10573.17578125  1003875.68750000 798991.00000000 
0.12100    25950924.00000000 16614369.00000000 41520528.00000000 10354.05468750  986689.68750000 785352.56250000 
0.12200    25670840.00000000 16440980.00000000 41079608.00000000 10137.73437500  969647.93750000 771826.37500000 
0.12300    25393218.00000000 16269093.00000000 40642440.00000000 9924.05859375   952752.50000000 758411.75000000 
0.12400    25117366.00000000 16098392.00000000 40208308.00000000 9713.03808594   935978.43750000 745093.75000000 
0.12500    24843514.00000000 15928839.00000000 39777252.00000000 9504.71484375   919339.62500000 731880.87500000 
0.12600    24570834.00000000 15760050.00000000 39348460.00000000 9299.11132812   902822.43750000 718767.68750000 
0.12700    24299520.00000000 15592204.00000000 38921560.00000000 9096.05957031   886416.68750000 705738.37500000 
0.12800    24029164.00000000 15424949.00000000 38495756.00000000 8895.69433594   870139.56250000 692802.75000000 
0.12900    23759760.00000000 15258002.00000000 38071220.00000000 8698.04589844   853976.25000000 679960.68750000 
0.13000    23490720.00000000 15091496.00000000 37647588.00000000 8503.02832031   837928.68750000 667210.37500000 
0.13100    23222364.00000000 14925113.00000000 37225116.00000000 8310.79687500   821996.43750000 654536.12500000 
0.13200    22954188.00000000 14759019.00000000 36802784.00000000 8121.32226562   806179.56250000 641963.81250000 
0.13300    22686640.00000000 14593040.00000000 36381124.00000000 7934.64599609   790493.87500000 629486.81250000 
0.13400    22418922.00000000 14427007.00000000 35959224.00000000 7750.78417969   774922.12500000 617101.37500000 
0.13500    22151568.00000000 14261032.00000000 35537808.00000000 7569.78662109   759483.12500000 604814.81250000 
0.13600    21884142.00000000 14094892.00000000 35116120.00000000 7391.72900391   744173.06250000 592627.62500000 
0.13700    21616794.00000000 13928851.00000000 34694476.00000000 7216.54003906   729001.31250000 580545.75000000 
0.13800    21349702.00000000 13762644.00000000 34272708.00000000 7044.35937500   713960.37500000 568573.31250000 
0.13900    21082368.00000000 13596377.00000000 33851108.00000000 6875.12255859   699070.37500000 556711.56250000 
0.14000    20815278.00000000 13429968.00000000 33429308.00000000 6708.96337891   684329.31250000 544960.18750000 
0.14100    20548260.00000000 13263553.00000000 33007656.00000000 6545.86474609   669743.00000000 533334.68750000 
0.14200    20281196.00000000 13096998.00000000 32585792.00000000 6385.78906250   655312.81250000 521830.37500000 
0.14300    20014640.00000000 12930499.00000000 32164212.00000000 6228.82714844   641052.81250000 510452.59375000 
0.14400    19748056.00000000 12763916.00000000 31742680.00000000 6074.99707031   626955.06250000 499205.03125000 
0.14500    19481918.00000000 12597520.00000000 31321574.00000000 5924.23046875   613035.31250000 488095.43750000 
0.14600    19216328.00000000 12431131.00000000 30901028.00000000 5776.63330078   599285.87500000 477126.62500000 
0.14700    18951106.00000000 12264879.00000000 30481070.00000000 5632.12451172   585733.18750000 466302.31250000 
0.14800    18686344.00000000 12098858.00000000 30061358.00000000 5490.76513672   572363.43750000 455621.53125000 
0.14900    18422252.00000000 11933079.00000000 29642924.00000000 5352.46972656   559183.50000000 445093.71875000 
0.15000    18158836.00000000 11767538.00000000 29225076.00000000 5217.30224609   546198.75000000 434715.56250000 
0.15100    17896290.00000000 11602409.00000000 28808694.00000000 5085.20605469   533420.56250000 424497.68750000 
0.15200    17634968.00000000 11437739.00000000 28393740.00000000 4956.18164062   520839.50000000 414440.78125000 
0.15300    17374496.00000000 11273639.00000000 27979908.00000000 4830.22656250   508473.96875000 404542.75000000 
0.15400    17115010.00000000 11109926.00000000 27567804.00000000 4707.21093750   496304.65625000 394814.03125000 
0.15500    16857040.00000000 10946911.00000000 27157572.00000000 4587.18505859   484353.00000000 385247.06250000 
0.15600    16600346.00000000 10784690.00000000 26749158.00000000 4470.09375000   472609.34375000 375848.09375000 
0.15700    16345251.00000000 10623173.00000000 26343032.00000000 4355.95996094   461089.43750000 366624.31250000 
0.15800    16091503.00000000 10462423.00000000 25939148.00000000 4244.57861328   449775.12500000 357563.90625000 
0.15900    15839532.00000000 10302709.00000000 25537808.00000000 4136.05273438   438682.59375000 348681.15625000 
0.16000    15589128.00000000 10143743.00000000 25138894.00000000 4030.30151367   427802.59375000 339968.65625000 
0.16100    15340959.00000000 9985981.00000000 24743020.00000000 3927.28125000   417147.12500000 331427.03125000 
0.16200    15094530.00000000 9829210.00000000 24349906.00000000 3826.90527344   406703.84375000 323062.15625000 
0.16300    14850202.00000000 9673647.00000000 23959852.00000000 3729.09277344   396475.25000000 314865.34375000 
0.16400    14607979.00000000 9519283.00000000 23572948.00000000 3633.87963867   386464.87500000 306842.53125000 
0.16500    14367898.00000000 9366144.00000000 23189390.00000000 3541.17333984   376666.81250000 298989.62500000 
0.16600    14130191.00000000 9214351.00000000 22809598.00000000 3450.90502930   367081.84375000 291306.84375000 
0.16700    13894687.00000000 9063833.00000000 22432930.00000000 3363.02465820   357704.53125000 283792.21875000 
0.16800    13661650.00000000 8914746.00000000 22060102.00000000 3277.46435547   348538.46875000 276443.59375000 
0.16900    13431136.00000000 8767121.00000000 21691168.00000000 3194.21142578   339577.06250000 269260.40625000 
0.17000    13203232.00000000 8621058.00000000 21326182.00000000 3113.18383789   330819.78125000 262241.03125000 
