# SAXS profile: number of points = 501, q_min = 0, q_max = 0.5, delta_q = 0.001
#    q    intensity 
0.00000    162235488.00000000 101202328.00000000 256270336.00000000 112729.26562500 8553145.00000000 6755226.00000000 
0.00100    162194432.00000000 101175152.00000000 256203888.00000000 112692.70312500 8550626.00000000 6753248.50000000 
0.00200    162068448.00000000 101096248.00000000 256002368.00000000 112583.18750000 8543051.00000000 6747315.50000000 
0.00300    161856384.00000000 100964296.00000000 255664736.00000000 112402.38281250 8530384.00000000 6737370.00000000 
0.00400    161556656.00000000 100779656.00000000 255195664.00000000 112149.75000000 8512720.00000000 6723517.00000000 
0.00500    161172240.00000000 100542704.00000000 254593440.00000000 111824.75000000 8490135.00000000 6705743.00000000 
0.00600    160701776.00000000 100253224.00000000 253854544.00000000 111429.10156250 8462524.00000000 6684066.00000000 
0.00700    160149424.00000000 99913848.00000000 252989952.00000000 110963.95312500 8430107.00000000 6658606.50000000 
0.00800    159511312.00000000 99523720.00000000 251995792.00000000 110430.59375000 8392827.00000000 6629358.50000000 
0.00900    158794576.00000000 99084288.00000000 250872320.00000000 109828.57812500 8350813.00000000 6596323.00000000 
0.01000    158001696.00000000 98595456.00000000 249625488.00000000 109160.03906250 8304145.00000000 6559614.00000000 
0.01100    157129504.00000000 98057688.00000000 248254880.00000000 108426.32812500 8252891.50000000 6519368.50000000 
0.01200    156179952.00000000 97472664.00000000 246762816.00000000 107628.96093750 8197166.50000000 6475562.50000000 
0.01300    155152400.00000000 96840880.00000000 245153328.00000000 106770.21875000 8137060.50000000 6428341.50000000 
0.01400    154053376.00000000 96163368.00000000 243429136.00000000 105851.00000000 8072699.50000000 6377781.00000000 
0.01500    152882448.00000000 95442936.00000000 241591712.00000000 104873.85156250 8004234.00000000 6323995.50000000 
0.01600    151643600.00000000 94680072.00000000 239645792.00000000 103839.25000000 7931710.50000000 6267026.50000000 
0.01700    150336288.00000000 93874920.00000000 237593472.00000000 102751.42187500 7855350.50000000 6207034.50000000 
0.01800    148963216.00000000 93030040.00000000 235439616.00000000 101610.54687500 7775283.50000000 6144095.00000000 
0.01900    147527696.00000000 92146464.00000000 233188160.00000000 100420.07812500 7691587.50000000 6078316.00000000 
0.02000    146033104.00000000 91225144.00000000 230839920.00000000 99182.17968750  7604518.50000000 6009873.50000000 
0.02100    144478832.00000000 90268520.00000000 228402304.00000000 97899.85937500  7514196.50000000 5938895.00000000 
0.02200    142871936.00000000 89278416.00000000 225878896.00000000 96574.17968750  7420734.50000000 5865441.00000000 
0.02300    141211616.00000000 88255360.00000000 223270800.00000000 95208.87500000  7324372.50000000 5789695.00000000 
0.02400    139500992.00000000 87201280.00000000 220585104.00000000 93806.02343750  7225270.00000000 5711780.00000000 
0.02500    137744272.00000000 86118552.00000000 217826656.00000000 92368.39062500  7123555.00000000 5631799.50000000 
0.02600    135942352.00000000 85007648.00000000 214999648.00000000 90898.61718750  7019442.00000000 5549938.00000000 
0.02700    134101440.00000000 83872224.00000000 212106784.00000000 89400.04687500  6913109.50000000 5466321.50000000 
0.02800    132221048.00000000 82712416.00000000 209152976.00000000 87873.87500000  6804741.00000000 5381113.00000000 
0.02900    130306048.00000000 81530928.00000000 206144208.00000000 86324.85937500  6694495.00000000 5294436.00000000 
0.03000    128357920.00000000 80329808.00000000 203084960.00000000 84753.58593750  6582638.00000000 5206376.00000000 
0.03100    126381392.00000000 79110448.00000000 199979168.00000000 83164.25781250  6469237.50000000 5117225.00000000 
0.03200    124379216.00000000 77873744.00000000 196833168.00000000 81559.20312500  6354497.50000000 5026986.50000000 
0.03300    122353184.00000000 76622920.00000000 193650208.00000000 79941.10156250  6238695.00000000 4935867.00000000 
0.03400    120307608.00000000 75359352.00000000 190433680.00000000 78312.56250000  6121977.00000000 4843981.50000000 
0.03500    118243672.00000000 74085424.00000000 187190864.00000000 76676.26562500  6004440.00000000 4751547.00000000 
0.03600    116167288.00000000 72802992.00000000 183926160.00000000 75034.50781250  5886341.50000000 4658595.00000000 
0.03700    114078936.00000000 71513472.00000000 180643456.00000000 73390.64843750  5767846.00000000 4565344.00000000 
0.03800    111982592.00000000 70217912.00000000 177346512.00000000 71746.63281250  5649122.00000000 4471885.50000000 
0.03900    109880912.00000000 68918248.00000000 174041328.00000000 70103.89843750  5530359.50000000 4378381.50000000 
0.04000    107775832.00000000 67616592.00000000 170731344.00000000 68466.69531250  5411656.00000000 4284931.00000000 
0.04100    105672200.00000000 66315004.00000000 167421152.00000000 66836.71875000  5293238.50000000 4191676.00000000 
0.04200    103571008.00000000 65015364.00000000 164115120.00000000 65215.37890625  5175271.00000000 4098774.75000000 
0.04300    101474872.00000000 63717932.00000000 160818144.00000000 63605.89062500  5057838.00000000 4006274.25000000 
0.04400    99387584.00000000 62425708.00000000 157533888.00000000 62009.42968750  4941144.00000000 3914367.75000000 
0.04500    97311864.00000000 61140124.00000000 154267104.00000000 60427.76953125  4825382.50000000 3823135.75000000 
0.04600    95248768.00000000 59861948.00000000 151018624.00000000 58864.19531250  4710575.50000000 3732657.25000000 
0.04700    93201024.00000000 58593380.00000000 147795168.00000000 57319.33593750  4596932.00000000 3643079.00000000 
0.04800    91171128.00000000 57335000.00000000 144596240.00000000 55795.20312500  4484498.00000000 3554499.00000000 
0.04900    89161504.00000000 56089048.00000000 141432208.00000000 54293.23046875  4373518.50000000 3466989.25000000 
0.05000    87173704.00000000 54856324.00000000 138301920.00000000 52814.94531250  4264005.00000000 3380644.50000000 
0.05100    85210016.00000000 53638116.00000000 135208576.00000000 51361.78906250  4156093.50000000 3295560.25000000 
0.05200    83272328.00000000 52435312.00000000 132156320.00000000 49935.16796875  4049876.75000000 3211783.50000000 
0.05300    81362384.00000000 51249704.00000000 129146288.00000000 48536.08203125  3945475.50000000 3129402.75000000 
0.05400    79482584.00000000 50081552.00000000 126181848.00000000 47165.35156250  3842921.50000000 3048506.75000000 
0.05500    77632520.00000000 48932564.00000000 123266440.00000000 45824.32421875  3742343.50000000 2969159.50000000 
0.05600    75816024.00000000 47803268.00000000 120401336.00000000 44513.28125000  3643800.25000000 2891371.50000000 
0.05700    74033360.00000000 46694748.00000000 117589272.00000000 43233.40625000  3547331.50000000 2815224.25000000 
0.05800    72285336.00000000 45607444.00000000 114832272.00000000 41985.35937500  3453030.00000000 2740761.50000000 
0.05900    70573440.00000000 44542224.00000000 112131568.00000000 40769.60546875  3360921.00000000 2668029.25000000 
0.06000    68899000.00000000 43499928.00000000 109489320.00000000 39586.13671875  3271061.50000000 2597040.75000000 
0.06100    67261976.00000000 42481508.00000000 106907184.00000000 38435.89062500  3183477.00000000 2527847.00000000 
0.06200    65665820.00000000 41486368.00000000 104385664.00000000 37318.90234375  3098222.50000000 2460478.25000000 
0.06300    64108576.00000000 40515272.00000000 101926432.00000000 36235.17578125  3015272.50000000 2394937.75000000 
0.06400    62591508.00000000 39569692.00000000 99530112.00000000 35184.47265625  2934707.00000000 2331231.00000000 
0.06500    61114980.00000000 38648552.00000000 97197840.00000000 34167.07031250  2856465.25000000 2269376.25000000 
0.06600    59679940.00000000 37753040.00000000 94931136.00000000 33183.05859375  2780626.50000000 2209388.50000000 
0.06700    58286312.00000000 36883000.00000000 92728280.00000000 32231.46875000  2707126.00000000 2151270.00000000 
0.06800    56934112.00000000 36038464.00000000 90590312.00000000 31312.78710938  2635990.00000000 2095003.75000000 
0.06900    55623636.00000000 35219852.00000000 88519112.00000000 30426.72265625  2567236.00000000 2040552.87500000 
0.07000    54355064.00000000 34426868.00000000 86513016.00000000 29571.96875000  2500765.25000000 1987957.12500000 
0.07100    53127860.00000000 33659104.00000000 84571968.00000000 28748.75390625  2436600.25000000 1937162.75000000 
0.07200    51942088.00000000 32917050.00000000 82695768.00000000 27956.28125000  2374741.75000000 1888150.87500000 
0.07300    50797376.00000000 32200658.00000000 80883992.00000000 27193.82031250  2315102.00000000 1840945.25000000 
0.07400    49693648.00000000 31509282.00000000 79137816.00000000 26460.76562500  2257695.25000000 1795456.87500000 
0.07500    48629720.00000000 30842812.00000000 77453792.00000000 25756.56054688  2202424.25000000 1751665.37500000 
0.07600    47605768.00000000 30201252.00000000 75832248.00000000 25080.45117188  2149303.50000000 1709547.37500000 
0.07700    46621164.00000000 29583686.00000000 74272696.00000000 24431.45312500  2098250.00000000 1669081.25000000 
0.07800    45674796.00000000 28990296.00000000 72773472.00000000 23808.80664062  2049226.12500000 1630201.25000000 
0.07900    44766184.00000000 28420190.00000000 71334136.00000000 23211.55078125  2002144.62500000 1592872.12500000 
0.08000    43894824.00000000 27873124.00000000 69952888.00000000 22638.93164062  1957013.12500000 1557057.37500000 
0.08100    43059284.00000000 27348894.00000000 68628920.00000000 22090.08007812  1913734.25000000 1522715.12500000 
0.08200    42258972.00000000 26846412.00000000 67360712.00000000 21564.10546875  1872226.12500000 1489775.00000000 
0.08300    41493656.00000000 26365160.00000000 66146368.00000000 21059.89257812  1832478.87500000 1458225.37500000 
0.08400    40760976.00000000 25904682.00000000 64984932.00000000 20576.54492188  1794383.87500000 1427976.75000000 
0.08500    40060740.00000000 25464424.00000000 63874452.00000000 20113.32031250  1757893.62500000 1398997.62500000 
0.08600    39391720.00000000 25043914.00000000 62813692.00000000 19668.98437500  1722938.50000000 1371240.50000000 
0.08700    38753288.00000000 24642052.00000000 61800432.00000000 19242.84960938  1689467.75000000 1344659.25000000 
0.08800    38143340.00000000 24258432.00000000 60833224.00000000 18833.75585938  1657389.00000000 1319161.50000000 
0.08900    37561512.00000000 23892578.00000000 59910500.00000000 18441.04296875  1626656.87500000 1294740.37500000 
0.09000    37006512.00000000 23543524.00000000 59029516.00000000 18063.78125000  1597185.25000000 1271323.62500000 
0.09100    36476968.00000000 23210442.00000000 58189572.00000000 17700.88085938  1568932.87500000 1248862.62500000 
0.09200    35971944.00000000 22892932.00000000 57388744.00000000 17351.60742188  1541798.50000000 1227304.00000000 
0.09300    35490384.00000000 22589940.00000000 56624580.00000000 17015.28710938  1515753.50000000 1206594.12500000 
0.09400    35030820.00000000 22300822.00000000 55895388.00000000 16690.59960938  1490708.62500000 1186677.87500000 
0.09500    34591844.00000000 22025084.00000000 55199396.00000000 16377.04199219  1466607.25000000 1167525.75000000 
0.09600    34172832.00000000 21761630.00000000 54535020.00000000 16074.02636719  1443398.87500000 1149071.12500000 
0.09700    33772696.00000000 21510186.00000000 53900104.00000000 15780.53027344  1421010.75000000 1131260.87500000 
0.09800    33389642.00000000 21269642.00000000 53293132.00000000 15496.10937500  1399376.87500000 1114065.37500000 
0.09900    33023164.00000000 21039596.00000000 52712592.00000000 15219.86230469  1378441.00000000 1097432.12500000 
0.10000    32671540.00000000 20819246.00000000 52155332.00000000 14951.21484375  1358189.12500000 1081305.37500000 
0.10100    32334100.00000000 20607810.00000000 51621108.00000000 14689.55761719  1338511.50000000 1065674.62500000 
0.10200    32009894.00000000 20404656.00000000 51107916.00000000 14434.27343750  1319385.37500000 1050473.25000000 
0.10300    31697272.00000000 20209166.00000000 50613752.00000000 14184.98632812  1300758.62500000 1035671.50000000 
0.10400    31395954.00000000 20020766.00000000 50136384.00000000 13940.99121094  1282577.62500000 1021219.12500000 
0.10500    31104502.00000000 19838814.00000000 49675852.00000000 13701.97656250  1264819.62500000 1007102.93750000 
0.10600    30821538.00000000 19662562.00000000 49229308.00000000 13467.34472656  1247405.62500000 993264.81250000 
0.10700    30547188.00000000 19491428.00000000 48795708.00000000 13236.85742188  1230324.12500000 979697.87500000 
0.10800    30279826.00000000 19325028.00000000 48373736.00000000 13010.02050781  1213532.00000000 966352.62500000 
0.10900    30018714.00000000 19162824.00000000 47962180.00000000 12786.52441406  1196996.50000000 953214.12500000 
0.11000    29763072.00000000 19004138.00000000 47558744.00000000 12566.15429688  1180670.75000000 940247.56250000 
0.11100    29512180.00000000 18848400.00000000 47163476.00000000 12348.54492188  1164529.75000000 927441.25000000 
0.11200    29265076.00000000 18695272.00000000 46774584.00000000 12133.51855469  1148562.87500000 914758.37500000 
0.11300    29021342.00000000 18544442.00000000 46390520.00000000 11920.72460938  1132738.37500000 902179.43750000 
0.11400    28780046.00000000 18395174.00000000 46011068.00000000 11710.21386719  1117020.50000000 889697.62500000 
0.11500    28540772.00000000 18247302.00000000 45634900.00000000 11501.68750000  1101391.25000000 877293.56250000 
0.11600    28302880.00000000 18100436.00000000 45260892.00000000 11294.99023438  1085838.87500000 864943.06250000 
0.11700    28065920.00000000 17954182.00000000 44888388.00000000 11090.16113281  1070341.37500000 852644.31250000 
0.11800    27829162.00000000 17808116.00000000 44516364.00000000 10886.92187500  1054886.75000000 840373.43750000 
0.11900    27592012.00000000 17661914.00000000 44143748.00000000 10685.38867188  1039467.37500000 828128.93750000 
0.12000    27354452.00000000 17515524.00000000 43770572.00000000 10485.26074219  1024069.00000000 815901.87500000 
0.12100    27116030.00000000 17368580.00000000 43396020.00000000 10286.98242188  1008688.50000000 803689.37500000 
0.12200    26876194.00000000 17220848.00000000 43019328.00000000 10090.03906250  993312.56250000 791473.06250000 
0.12300    26634812.00000000 17071902.00000000 42640520.00000000 9894.75781250   977937.50000000 779262.75000000 
0.12400    26391468.00000000 16922078.00000000 42258188.00000000 9701.00585938   962562.93750000 767054.37500000 
0.12500    26146050.00000000 16770782.00000000 41872496.00000000 9508.92382812   947177.56250000 754830.62500000 
0.12600    25898352.00000000 16618028.00000000 41483400.00000000 9318.53417969   931796.06250000 742611.00000000 
0.12700    25648154.00000000 16463583.00000000 41089808.00000000 9129.79785156   916416.37500000 730386.75000000 
0.12800    25395098.00000000 16307502.00000000 40692388.00000000 8942.88671875   901032.62500000 718158.68750000 
0.12900    25139508.00000000 16149657.00000000 40290512.00000000 8757.81347656   885659.12500000 705929.93750000 
0.13000    24881154.00000000 15989991.00000000 39884420.00000000 8574.65527344   870288.87500000 693709.25000000 
0.13100    24619868.00000000 15828430.00000000 39473172.00000000 8393.51953125   854928.87500000 681494.12500000 
0.13200    24355766.00000000 15664906.00000000 39057328.00000000 8214.46386719   839596.93750000 669289.93750000 
0.13300    24088888.00000000 15499517.00000000 38637140.00000000 8037.63427734   824292.81250000 657110.56250000 
0.13400    23818966.00000000 15332415.00000000 38212052.00000000 7862.95019531   809019.06250000 644958.75000000 
0.13500    23546558.00000000 15163367.00000000 37782984.00000000 7690.54785156   793786.18750000 632825.12500000 
0.13600    23271284.00000000 14992420.00000000 37348836.00000000 7520.58154297   778607.12500000 620741.81250000 
0.13700    22993550.00000000 14819856.00000000 36910836.00000000 7353.13720703   763494.50000000 608695.56250000 
0.13800    22713386.00000000 14645443.00000000 36468412.00000000 7188.18066406   748442.25000000 596702.81250000 
0.13900    22430888.00000000 14469453.00000000 36022620.00000000 7025.87988281   733475.25000000 584770.37500000 
0.14000    22146204.00000000 14292061.00000000 35572868.00000000 6866.24560547   718596.75000000 572911.50000000 
0.14100    21859600.00000000 14113121.00000000 35119852.00000000 6709.34960938   703818.12500000 561119.18750000 
0.14200    21571218.00000000 13932908.00000000 34663744.00000000 6555.21777344   689145.68750000 549411.00000000 
0.14300    21281206.00000000 13751530.00000000 34204780.00000000 6403.93847656   674595.12500000 537793.50000000 
0.14400    20989590.00000000 13568990.00000000 33743636.00000000 6255.49267578   660164.00000000 526273.68750000 
0.14500    20696948.00000000 13385452.00000000 33279946.00000000 6110.02734375   645874.31250000 514860.06250000 
0.14600    20403434.00000000 13201300.00000000 32814562.00000000 5967.45751953   631725.43750000 503556.28125000 
0.14700    20108862.00000000 13016296.00000000 32347782.00000000 5827.88525391   617732.12500000 492378.75000000 
0.14800    19813850.00000000 12830804.00000000 31879720.00000000 5691.23144531   603908.37500000 481320.06250000 
0.14900    19518414.00000000 12644850.00000000 31410916.00000000 5557.55566406   590243.31250000 470397.34375000 
0.15000    19223132.00000000 12458551.00000000 30941730.00000000 5426.92431641   576759.87500000 459609.46875000 
0.15100    18927798.00000000 12272239.00000000 30472424.00000000 5299.18603516   563463.50000000 448967.50000000 
0.15200    18632998.00000000 12085947.00000000 30003526.00000000 5174.47656250   550356.75000000 438476.18750000 
0.15300    18338580.00000000 11899917.00000000 29535522.00000000 5052.68359375   537448.75000000 428138.18750000 
0.15400    18045132.00000000 11714048.00000000 29068336.00000000 4933.81933594   524737.37500000 417959.75000000 
0.15500    17752612.00000000 11528688.00000000 28602614.00000000 4817.85351562   512239.03125000 407947.53125000 
0.15600    17461440.00000000 11343904.00000000 28138698.00000000 4704.70947266   499947.06250000 398096.62500000 
0.15700    17171808.00000000 11159889.00000000 27676854.00000000 4594.40380859   487874.75000000 388420.65625000 
0.15800    16883898.00000000 10976747.00000000 27217266.00000000 4486.84277344   476021.56250000 378913.06250000 
0.15900    16597762.00000000 10794525.00000000 26760718.00000000 4382.05908203   464390.31250000 369586.28125000 
0.16000    16313733.00000000 10613583.00000000 26307272.00000000 4279.89941406   452986.53125000 360432.09375000 
0.16100    16032067.00000000 10433826.00000000 25857026.00000000 4180.37060547   441807.25000000 351461.93750000 
0.16200    15752751.00000000 10255409.00000000 25410618.00000000 4083.42529297   430854.21875000 342669.28125000 
0.16300    15476139.00000000 10078559.00000000 24968060.00000000 3988.95166016   420132.00000000 334058.03125000 
0.16400    15202272.00000000 9903238.00000000 24529916.00000000 3896.92675781   409641.18750000 325632.12500000 
0.16500    14931452.00000000 9729681.00000000 24095904.00000000 3807.25878906   399375.56250000 317386.59375000 
0.16600    14663530.00000000 9557803.00000000 23666792.00000000 3719.92602539   389342.84375000 309322.31250000 
0.16700    14398907.00000000 9387794.00000000 23242798.00000000 3634.82690430   379529.21875000 301438.34375000 
0.16800    14137578.00000000 9219824.00000000 22823632.00000000 3551.90405273   369946.75000000 293732.75000000 
0.16900    13879771.00000000 9053992.00000000 22410024.00000000 3471.09545898   360590.84375000 286209.25000000 
0.17000    13625596.00000000 8890147.00000000 22001682.00000000 3392.35742188   351451.68750000 278862.62500000 
