# SAXS profile: number of points = 501, q_min = 0, q_max = 0.5, delta_q = 0.001
#    q    intensity 
0.00000    162236880.00000000 101201512.00000000 256271200.00000000 116469.60156250 8693874.00000000 6866392.50000000 
0.00100    162199648.00000000 101178224.00000000 256211248.00000000 116435.20312500 8691552.00000000 6864597.00000000 
0.00200    162087408.00000000 101107728.00000000 256033712.00000000 116331.67187500 8684585.00000000 6859109.50000000 
0.00300    161899040.00000000 100991432.00000000 255735344.00000000 116159.27343750 8672958.00000000 6849987.50000000 
0.00400    161632928.00000000 100828560.00000000 255319200.00000000 115918.49218750 8656759.00000000 6837239.50000000 
0.00500    161291936.00000000 100618504.00000000 254784512.00000000 115610.14062500 8635924.00000000 6820934.50000000 
0.00600    160875120.00000000 100363416.00000000 254130832.00000000 115234.19531250 8610539.00000000 6800987.00000000 
0.00700    160384320.00000000 100061720.00000000 253363072.00000000 114791.39843750 8580624.00000000 6777528.00000000 
0.00800    159821136.00000000 99715392.00000000 252480528.00000000 114282.46875000 8546275.00000000 6750559.50000000 
0.00900    159182432.00000000 99325232.00000000 251485280.00000000 113708.88281250 8507452.00000000 6720157.00000000 
0.01000    158475536.00000000 98890736.00000000 250375264.00000000 113071.24218750 8464392.00000000 6686293.50000000 
0.01100    157697696.00000000 98413896.00000000 249154976.00000000 112370.98437500 8417015.00000000 6649120.50000000 
0.01200    156851408.00000000 97893680.00000000 247827936.00000000 111609.28125000 8365449.00000000 6608642.50000000 
0.01300    155937664.00000000 97331088.00000000 246393504.00000000 110786.99218750 8309779.00000000 6564958.50000000 
0.01400    154954688.00000000 96728072.00000000 244853936.00000000 109906.63281250 8250100.00000000 6518114.50000000 
0.01500    153908032.00000000 96084392.00000000 243213472.00000000 108968.53125000 8186523.00000000 6468188.50000000 
0.01600    152797648.00000000 95401960.00000000 241472736.00000000 107975.42968750 8119117.50000000 6415300.50000000 
0.01700    151624480.00000000 94682168.00000000 239634272.00000000 106928.46875000 8048019.00000000 6359492.50000000 
0.01800    150393280.00000000 93924848.00000000 237702400.00000000 105829.87500000 7973366.00000000 6300883.00000000 
0.01900    149102288.00000000 93131736.00000000 235678880.00000000 104681.39843750 7895201.50000000 6239512.00000000 
0.02000    147754912.00000000 92303568.00000000 233566048.00000000 103484.60156250 7813750.50000000 6175524.50000000 
0.02100    146353600.00000000 91442112.00000000 231368160.00000000 102242.33593750 7729060.50000000 6109040.50000000 
0.02200    144900496.00000000 90547784.00000000 229089216.00000000 100956.39062500 7641341.50000000 6040151.50000000 
0.02300    143396528.00000000 89623280.00000000 226729568.00000000 99629.39843750  7550631.50000000 5968904.00000000 
0.02400    141844912.00000000 88669128.00000000 224296528.00000000 98262.83593750  7457196.50000000 5895545.00000000 
0.02500    140245968.00000000 87686280.00000000 221790000.00000000 96859.43750000  7361074.00000000 5820072.50000000 
0.02600    138604432.00000000 86676000.00000000 219212768.00000000 95421.62500000  7262478.00000000 5742591.00000000 
0.02700    136921008.00000000 85640632.00000000 216573792.00000000 93951.00781250  7161550.50000000 5663323.50000000 
0.02800    135200144.00000000 84580872.00000000 213872656.00000000 92450.95312500  7058425.00000000 5582274.50000000 
0.02900    133442096.00000000 83498512.00000000 211112176.00000000 90923.69531250  6953247.00000000 5499638.00000000 
0.03000    131650024.00000000 82395280.00000000 208299792.00000000 89371.28906250  6846231.00000000 5415539.00000000 
0.03100    129826040.00000000 81271880.00000000 205438384.00000000 87796.32031250  6737489.00000000 5330070.00000000 
0.03200    127973744.00000000 80130336.00000000 202528368.00000000 86201.68750000  6627175.50000000 5243380.00000000 
0.03300    126093552.00000000 78972512.00000000 199578208.00000000 84589.30468750  6515455.50000000 5155557.00000000 
0.03400    124190040.00000000 77799176.00000000 196588624.00000000 82961.39843750  6402476.00000000 5066762.50000000 
0.03500    122264192.00000000 76612024.00000000 193564784.00000000 81321.36718750  6288472.00000000 4977073.50000000 
0.03600    120319072.00000000 75413704.00000000 190511072.00000000 79671.00000000  6173529.50000000 4886678.00000000 
0.03700    118358192.00000000 74203664.00000000 187431040.00000000 78012.82812500  6057736.50000000 4795671.50000000 
0.03800    116382136.00000000 72985016.00000000 184326048.00000000 76348.67968750  5941437.00000000 4704164.50000000 
0.03900    114394344.00000000 71758664.00000000 181203712.00000000 74682.21875000  5824647.50000000 4612272.00000000 
0.04000    112397896.00000000 70526720.00000000 178067344.00000000 73014.14843750  5707529.50000000 4520157.50000000 
0.04100    110393888.00000000 69289592.00000000 174918784.00000000 71348.03906250  5590313.00000000 4427910.00000000 
0.04200    108385544.00000000 68050392.00000000 171761920.00000000 69685.27343750  5473055.50000000 4335627.00000000 
0.04300    106375008.00000000 66807480.00000000 168601248.00000000 68028.66406250  5355906.00000000 4243427.50000000 
0.04400    104365032.00000000 65565168.00000000 165439680.00000000 66378.70312500  5239081.00000000 4151442.50000000 
0.04500    102356952.00000000 64324104.00000000 162282368.00000000 64739.35156250  5122648.00000000 4059787.50000000 
0.04600    100353392.00000000 63085304.00000000 159130560.00000000 63111.73046875  5006796.00000000 3968537.75000000 
0.04700    98356640.00000000 61850512.00000000 155990384.00000000 61497.83203125  4891599.50000000 3877817.50000000 
0.04800    96368776.00000000 60620516.00000000 152864064.00000000 59899.42578125  4777221.50000000 3787701.25000000 
0.04900    94392056.00000000 59396924.00000000 149752720.00000000 58318.15234375  4663756.00000000 3698316.00000000 
0.05000    92427864.00000000 58180660.00000000 146661136.00000000 56755.93359375  4551385.50000000 3609744.75000000 
0.05100    90478528.00000000 56973500.00000000 143593808.00000000 55213.86328125  4440155.00000000 3522047.50000000 
0.05200    88546440.00000000 55775920.00000000 140551504.00000000 53693.90625000  4330156.00000000 3435370.00000000 
0.05300    86632688.00000000 54589716.00000000 137536960.00000000 52197.36718750  4221549.50000000 3349716.00000000 
0.05400    84739064.00000000 53415208.00000000 134552912.00000000 50725.63671875  4114447.00000000 3265227.00000000 
0.05500    82866944.00000000 52254164.00000000 131606264.00000000 49279.52734375  4008853.75000000 3181936.75000000 
0.05600    81018472.00000000 51107196.00000000 128693912.00000000 47860.52343750  3904925.50000000 3099920.25000000 
0.05700    79195464.00000000 49975064.00000000 125820248.00000000 46469.77343750  3802723.00000000 3019252.75000000 
0.05800    77398048.00000000 48858808.00000000 122987392.00000000 45107.85156250  3702323.00000000 2940007.50000000 
0.05900    75628568.00000000 47758812.00000000 120196400.00000000 43775.64843750  3603785.25000000 2862204.25000000 
0.06000    73887952.00000000 46676780.00000000 117452064.00000000 42474.19531250  3507202.00000000 2785909.00000000 
0.06100    72177440.00000000 45612848.00000000 114753984.00000000 41204.24218750  3412607.50000000 2711174.50000000 
0.06200    70498672.00000000 44567648.00000000 112103952.00000000 39966.07031250  3320034.00000000 2638050.75000000 
0.06300    68850720.00000000 43542016.00000000 109504176.00000000 38760.48437500  3229587.00000000 2566531.00000000 
0.06400    67236792.00000000 42536340.00000000 106955688.00000000 37587.62890625  3141242.00000000 2496706.25000000 
0.06500    65656600.00000000 41551336.00000000 104459816.00000000 36447.83593750  3055106.75000000 2428558.00000000 
0.06600    64110704.00000000 40587656.00000000 102018688.00000000 35341.40625000  2971144.50000000 2362128.00000000 
0.06700    62600580.00000000 39645260.00000000 99632416.00000000 34268.44921875  2889413.00000000 2297445.25000000 
0.06800    61125248.00000000 38724668.00000000 97302040.00000000 33229.37500000  2809921.50000000 2234535.50000000 
0.06900    59687548.00000000 37826252.00000000 95027688.00000000 32223.70507812  2732693.50000000 2173389.50000000 
0.07000    58285504.00000000 36950256.00000000 92812016.00000000 31251.72460938  2657720.50000000 2113989.75000000 
0.07100    56920776.00000000 36096856.00000000 90652728.00000000 30312.85156250  2585021.25000000 2056389.75000000 
0.07200    55593560.00000000 35266052.00000000 88552472.00000000 29407.00000000  2514553.50000000 2000559.50000000 
0.07300    54303176.00000000 34458252.00000000 86510888.00000000 28534.06250000  2446401.25000000 1946499.75000000 
0.07400    53050528.00000000 33673212.00000000 84528152.00000000 27693.64453125  2380470.75000000 1894206.50000000 
0.07500    51835600.00000000 32911754.00000000 82603416.00000000 26884.97265625  2316766.25000000 1843686.00000000 
0.07600    50657816.00000000 32172834.00000000 80737576.00000000 26107.87109375  2255293.00000000 1794867.00000000 
0.07700    49517036.00000000 31456874.00000000 78930296.00000000 25361.75195312  2195992.50000000 1747780.37500000 
0.07800    48413884.00000000 30763840.00000000 77180768.00000000 24646.01171875  2138845.00000000 1702401.87500000 
0.07900    47346892.00000000 30093406.00000000 75489264.00000000 23959.86132812  2083846.50000000 1658684.75000000 
0.08000    46316380.00000000 29445152.00000000 73855120.00000000 23302.51171875  2030929.12500000 1616619.00000000 
0.08100    45322448.00000000 28819634.00000000 72277008.00000000 22673.65039062  1980054.25000000 1576165.62500000 
0.08200    44363512.00000000 28215650.00000000 70754960.00000000 22072.12500000  1931203.50000000 1537297.12500000 
0.08300    43439596.00000000 27633490.00000000 69288360.00000000 21497.21093750  1884322.37500000 1499978.75000000 
0.08400    42550064.00000000 27072792.00000000 67875728.00000000 20948.11328125  1839333.87500000 1464166.12500000 
0.08500    41694792.00000000 26532952.00000000 66515916.00000000 20424.05078125  1796233.87500000 1429833.00000000 
0.08600    40872376.00000000 26013444.00000000 65208772.00000000 19923.95117188  1754964.75000000 1396934.12500000 
0.08700    40082448.00000000 25514318.00000000 63952896.00000000 19447.08789062  1715433.25000000 1365435.12500000 
0.08800    39324352.00000000 25034788.00000000 62746608.00000000 18992.17578125  1677608.62500000 1335264.75000000 
0.08900    38597088.00000000 24574638.00000000 61589492.00000000 18558.77343750  1641427.25000000 1306403.75000000 
0.09000    37899756.00000000 24133134.00000000 60479836.00000000 18145.48046875  1606842.25000000 1278799.12500000 
0.09100    37231728.00000000 23709914.00000000 59415572.00000000 17751.59179688  1573780.50000000 1252406.00000000 
0.09200    36591780.00000000 23304058.00000000 58396648.00000000 17376.14062500  1542178.25000000 1227163.62500000 
0.09300    35979152.00000000 22915656.00000000 57421444.00000000 17018.35351562  1511993.62500000 1203034.62500000 
0.09400    35393364.00000000 22543694.00000000 56487132.00000000 16676.49609375  1483138.50000000 1179977.00000000 
0.09500    34832724.00000000 22187752.00000000 55593980.00000000 16350.59375000  1455567.87500000 1157930.00000000 
0.09600    34296708.00000000 21847154.00000000 54739064.00000000 16039.26464844  1429207.87500000 1136847.50000000 
0.09700    33784400.00000000 21521320.00000000 53922020.00000000 15741.56250000  1404004.12500000 1116690.62500000 
0.09800    33294340.00000000 21209940.00000000 53140536.00000000 15456.63281250  1379891.62500000 1097386.50000000 
0.09900    32825914.00000000 20911838.00000000 52393272.00000000 15183.60058594  1356799.37500000 1078916.00000000 
0.10000    32378020.00000000 20626866.00000000 51678168.00000000 14921.64648438  1334677.00000000 1061210.75000000 
0.10100    31949638.00000000 20354192.00000000 50995160.00000000 14669.90429688  1313458.50000000 1044227.50000000 
0.10200    31539790.00000000 20093496.00000000 50340868.00000000 14427.54882812  1293083.62500000 1027911.18750000 
0.10300    31147390.00000000 19843656.00000000 49714568.00000000 14193.64160156  1273491.75000000 1012236.43750000 
0.10400    30771588.00000000 19604532.00000000 49114928.00000000 13967.53710938  1254638.50000000 997140.31250000 
0.10500    30411642.00000000 19375392.00000000 48539976.00000000 13748.71289062  1236459.87500000 982591.25000000 
0.10600    30065638.00000000 19155260.00000000 47988348.00000000 13536.16113281  1218885.75000000 968531.06250000 
0.10700    29733472.00000000 18943990.00000000 47458320.00000000 13329.35351562  1201892.37500000 954932.18750000 
0.10800    29413908.00000000 18740784.00000000 46948868.00000000 13127.56152344  1185404.75000000 941749.56250000 
0.10900    29106048.00000000 18545324.00000000 46458240.00000000 12930.21289062  1169387.00000000 928942.12500000 
0.11000    28809124.00000000 18356858.00000000 45984400.00000000 12736.77148438  1153781.37500000 916473.68750000 
0.11100    28522018.00000000 18174746.00000000 45527160.00000000 12546.65527344  1138557.25000000 904305.68750000 
0.11200    28243956.00000000 17998480.00000000 45084444.00000000 12359.49023438  1123652.25000000 892410.75000000 
0.11300    27974148.00000000 17827778.00000000 44655180.00000000 12174.58691406  1109036.37500000 880748.37500000 
0.11400    27711706.00000000 17661852.00000000 44237972.00000000 11991.70312500  1094671.25000000 869293.00000000 
0.11500    27455964.00000000 17500518.00000000 43831468.00000000 11810.29980469  1080520.75000000 858015.18750000 
0.11600    27205984.00000000 17342924.00000000 43434548.00000000 11630.16894531  1066544.37500000 846879.62500000 
0.11700    26961450.00000000 17188886.00000000 43046372.00000000 11450.90820312  1052708.50000000 835876.56250000 
0.11800    26720910.00000000 17037800.00000000 42665100.00000000 11272.20996094  1038988.93750000 824961.12500000 
0.11900    26484358.00000000 16889390.00000000 42290156.00000000 11093.83886719  1025347.00000000 814118.56250000 
0.12000    26251244.00000000 16743246.00000000 41920760.00000000 10915.53808594  1011774.62500000 803334.06250000 
0.12100    26020330.00000000 16598935.00000000 41555788.00000000 10737.17871094  998236.93750000 792586.25000000 
0.12200    25791580.00000000 16455941.00000000 41194392.00000000 10558.56835938  984715.00000000 781858.68750000 
0.12300    25564320.00000000 16314250.00000000 40835276.00000000 10379.60546875  971188.68750000 771132.31250000 
0.12400    25338020.00000000 16173280.00000000 40478156.00000000 10200.10546875  957638.31250000 760396.50000000 
0.12500    25112120.00000000 16032830.00000000 40121644.00000000 10020.12304688  944053.25000000 749635.31250000 
0.12600    24886450.00000000 15892739.00000000 39766356.00000000 9839.51269531   930425.87500000 738842.93750000 
0.12700    24660482.00000000 15752665.00000000 39410020.00000000 9658.31054688   916736.25000000 728010.43750000 
0.12800    24433774.00000000 15612224.00000000 39053388.00000000 9476.45019531   902974.68750000 717126.12500000 
0.12900    24206162.00000000 15471363.00000000 38695292.00000000 9293.99511719   889147.25000000 706188.18750000 
0.13000    23977224.00000000 15329859.00000000 38334964.00000000 9111.04394531   875237.00000000 695191.06250000 
0.13100    23746872.00000000 15187409.00000000 37972940.00000000 8927.58496094   861243.18750000 684124.31250000 
0.13200    23514496.00000000 15044071.00000000 37608016.00000000 8743.73437500   847168.25000000 672998.75000000 
0.13300    23280440.00000000 14899678.00000000 37240028.00000000 8559.64062500   833009.12500000 661808.12500000 
0.13400    23043900.00000000 14753938.00000000 36868724.00000000 8375.33691406   818765.87500000 650560.12500000 
0.13500    22805482.00000000 14606823.00000000 36494012.00000000 8190.94433594   804443.37500000 639240.06250000 
0.13600    22564520.00000000 14458333.00000000 36115728.00000000 8006.73486328   790044.31250000 627866.62500000 
0.13700    22321102.00000000 14308335.00000000 35733412.00000000 7822.76171875   775577.81250000 616436.93750000 
0.13800    22074954.00000000 14156732.00000000 35347200.00000000 7639.09960938   761052.31250000 604957.56250000 
0.13900    21826698.00000000 14003667.00000000 34956980.00000000 7456.13085938   746468.37500000 593431.75000000 
0.14000    21575432.00000000 13848944.00000000 34562912.00000000 7273.86425781   731836.81250000 581873.75000000 
0.14100    21321974.00000000 13692633.00000000 34164504.00000000 7092.58593750   717172.43750000 570283.75000000 
0.14200    21065998.00000000 13534708.00000000 33762588.00000000 6912.37548828   702482.12500000 558670.87500000 
0.14300    20807320.00000000 13375223.00000000 33356332.00000000 6733.46484375   687775.18750000 547044.37500000 
0.14400    20546584.00000000 13214246.00000000 32946450.00000000 6556.01025391   673069.31250000 535410.75000000 
0.14500    20283470.00000000 13051853.00000000 32532878.00000000 6380.27490234   658366.43750000 523782.84375000 
0.14600    20018304.00000000 12887978.00000000 32115900.00000000 6206.35937500   643691.81250000 512173.93750000 
0.14700    19751206.00000000 12722812.00000000 31695826.00000000 6034.48974609   629050.56250000 500585.37500000 
0.14800    19482076.00000000 12556360.00000000 31272452.00000000 5864.81298828   614452.06250000 489029.46875000 
0.14900    19211476.00000000 12388728.00000000 30846356.00000000 5697.42382812   599923.75000000 477521.96875000 
0.15000    18939236.00000000 12220043.00000000 30417658.00000000 5532.67089844   585462.37500000 466067.71875000 
0.15100    18665630.00000000 12050338.00000000 29986726.00000000 5370.58105469   571097.56250000 454675.93750000 
0.15200    18391004.00000000 11879929.00000000 29554002.00000000 5211.34326172   556828.75000000 443368.59375000 
0.15300    18115398.00000000 11708708.00000000 29119456.00000000 5055.08447266   542680.81250000 432143.96875000 
0.15400    17838968.00000000 11536776.00000000 28683398.00000000 4901.92333984   528658.62500000 421012.96875000 
0.15500    17562286.00000000 11364448.00000000 28246390.00000000 4752.00000000   514770.96875000 409992.81250000 
0.15600    17285044.00000000 11191695.00000000 27808792.00000000 4605.44140625   501042.28125000 399086.03125000 
0.15700    17007904.00000000 11018760.00000000 27370972.00000000 4462.33593750   487482.21875000 388311.03125000 
0.15800    16730697.00000000 10845686.00000000 26932658.00000000 4322.76367188   474094.65625000 377666.09375000 
0.15900    16453980.00000000 10672655.00000000 26495102.00000000 4186.82568359   460901.62500000 367169.93750000 
0.16000    16177903.00000000 10499833.00000000 26058164.00000000 4054.58789062   447901.62500000 356821.81250000 
0.16100    15902604.00000000 10327363.00000000 25622148.00000000 3926.15161133   435115.28125000 346636.87500000 
0.16200    15628439.00000000 10155220.00000000 25187614.00000000 3801.51416016   422544.34375000 336622.87500000 
0.16300    15355388.00000000 9983796.00000000 24754850.00000000 3680.69238281   410202.06250000 326781.12500000 
0.16400    15083911.00000000 9813008.00000000 24323884.00000000 3563.79418945   398098.03125000 317124.78125000 
0.16500    14814049.00000000 9643085.00000000 23895588.00000000 3450.79687500   386234.40625000 307655.87500000 
0.16600    14546145.00000000 9474166.00000000 23470200.00000000 3341.68627930   374624.84375000 298379.59375000 
0.16700    14280273.00000000 9306263.00000000 23047472.00000000 3236.48193359   363268.84375000 289301.81250000 
0.16800    14016666.00000000 9139606.00000000 22628288.00000000 3135.13916016   352171.06250000 280427.09375000 
0.16900    13755649.00000000 8974342.00000000 22212688.00000000 3037.67797852   341345.53125000 271761.03125000 
0.17000    13497197.00000000 8810411.00000000 21801158.00000000 2944.03320312   330786.90625000 263304.65625000 
