# SAXS profile: number of points = 501, q_min = 0, q_max = 0.5, delta_q = 0.001
#    q    intensity 
0.00000    162238320.00000000 101201768.00000000 256271728.00000000 103718.77343750 8204201.50000000 6479672.00000000 
0.00100    162215600.00000000 101188408.00000000 256236624.00000000 103698.36718750 8202812.50000000 6478590.00000000 
0.00200    162148736.00000000 101146744.00000000 256130720.00000000 103637.25000000 8198641.00000000 6475303.50000000 
0.00300    162037888.00000000 101078216.00000000 255955840.00000000 103535.07812500 8191720.00000000 6469872.00000000 
0.00400    161881200.00000000 100982176.00000000 255710176.00000000 103392.62500000 8182025.50000000 6462281.00000000 
0.00500    161679808.00000000 100858760.00000000 255394528.00000000 103209.72656250 8169592.50000000 6452539.00000000 
0.00600    161432320.00000000 100708504.00000000 255009872.00000000 102986.20312500 8154361.00000000 6440632.50000000 
0.00700    161142048.00000000 100530944.00000000 254554976.00000000 102722.78906250 8136460.00000000 6426582.00000000 
0.00800    160806496.00000000 100325864.00000000 254031104.00000000 102419.77343750 8115796.50000000 6410420.50000000 
0.00900    160428112.00000000 100094736.00000000 253439312.00000000 102077.28906250 8092472.00000000 6392144.00000000 
0.01000    160005440.00000000 99837208.00000000 252779904.00000000 101695.69531250 8066492.50000000 6371793.50000000 
0.01100    159539232.00000000 99552800.00000000 252052592.00000000 101275.36718750 8037853.00000000 6349357.00000000 
0.01200    159031344.00000000 99242400.00000000 251258688.00000000 100817.06250000 8006585.50000000 6324887.50000000 
0.01300    158480448.00000000 98906504.00000000 250397872.00000000 100321.21875000 7972753.00000000 6298366.50000000 
0.01400    157888752.00000000 98544456.00000000 249472352.00000000 99788.14062500  7936361.00000000 6269845.50000000 
0.01500    157254576.00000000 98157920.00000000 248481712.00000000 99218.87500000  7897450.50000000 6239359.00000000 
0.01600    156581440.00000000 97745528.00000000 247427408.00000000 98613.29687500  7856045.00000000 6206952.50000000 
0.01700    155865792.00000000 97308480.00000000 246308688.00000000 97972.76562500  7812222.00000000 6172580.50000000 
0.01800    155111152.00000000 96847096.00000000 245129216.00000000 97298.07812500  7765980.50000000 6136372.00000000 
0.01900    154316912.00000000 96362168.00000000 243888848.00000000 96588.67968750  7717370.00000000 6098293.50000000 
0.02000    153484912.00000000 95853008.00000000 242587152.00000000 95846.89843750  7666486.50000000 6058394.00000000 
0.02100    152614832.00000000 95321520.00000000 241226256.00000000 95072.75000000  7613311.50000000 6016742.50000000 
0.02200    151708384.00000000 94766960.00000000 239806880.00000000 94267.17187500  7557908.00000000 5973347.00000000 
0.02300    150764496.00000000 94190128.00000000 238331888.00000000 93431.27343750  7500387.50000000 5928225.50000000 
0.02400    149785600.00000000 93591704.00000000 236801168.00000000 92565.07031250  7440747.00000000 5881491.00000000 
0.02500    148771760.00000000 92971112.00000000 235213840.00000000 91670.80468750  7379047.00000000 5833128.00000000 
0.02600    147723824.00000000 92329880.00000000 233575408.00000000 90748.22656250  7315346.00000000 5783191.00000000 
0.02700    146642256.00000000 91668800.00000000 231884016.00000000 89798.60156250  7249714.00000000 5731720.00000000 
0.02800    145528512.00000000 90987320.00000000 230141840.00000000 88823.67187500  7182200.00000000 5678817.50000000 
0.02900    144383504.00000000 90287096.00000000 228349216.00000000 87823.72656250  7112877.50000000 5624472.00000000 
0.03000    143207632.00000000 89567344.00000000 226509376.00000000 86800.00000000  7041802.00000000 5568709.00000000 
0.03100    142002720.00000000 88829360.00000000 224624336.00000000 85753.24218750  6969050.50000000 5511660.50000000 
0.03200    140768288.00000000 88074136.00000000 222691888.00000000 84684.88281250  6894611.00000000 5453308.50000000 
0.03300    139506800.00000000 87301200.00000000 220717440.00000000 83596.26562500  6818680.00000000 5393732.50000000 
0.03400    138217872.00000000 86511640.00000000 218699744.00000000 82487.35937500  6741261.50000000 5332993.00000000 
0.03500    136903312.00000000 85707128.00000000 216641920.00000000 81360.76562500  6662379.50000000 5271119.50000000 
0.03600    135563856.00000000 84886304.00000000 214545056.00000000 80216.29687500  6582166.50000000 5208180.00000000 
0.03700    134200760.00000000 84050672.00000000 212411184.00000000 79055.62500000  6500675.00000000 5144232.50000000 
0.03800    132814632.00000000 83200984.00000000 210240672.00000000 77880.22656250  6417949.50000000 5079336.00000000 
0.03900    131406792.00000000 82338112.00000000 208034832.00000000 76690.49218750  6334105.00000000 5013526.50000000 
0.04000    129977824.00000000 81461704.00000000 205798192.00000000 75488.17968750  6249187.00000000 4946841.00000000 
0.04100    128529360.00000000 80573552.00000000 203528992.00000000 74273.76562500  6163229.00000000 4879413.00000000 
0.04200    127062440.00000000 79673744.00000000 201230672.00000000 73049.28125000  6076370.50000000 4811205.50000000 
0.04300    125577904.00000000 78762776.00000000 198904656.00000000 71815.23437500  5988623.00000000 4742322.50000000 
0.04400    124076760.00000000 77841472.00000000 196552624.00000000 70572.55468750  5900152.50000000 4672824.00000000 
0.04500    122559776.00000000 76910392.00000000 194175248.00000000 69323.04687500  5810910.00000000 4602744.00000000 
0.04600    121028728.00000000 75969920.00000000 191776112.00000000 68067.48437500  5721032.50000000 4532155.00000000 
0.04700    119484296.00000000 75021176.00000000 189354304.00000000 66806.73437500  5630597.50000000 4461093.00000000 
0.04800    117926480.00000000 74064552.00000000 186913104.00000000 65542.53125000  5539649.00000000 4389656.00000000 
0.04900    116359224.00000000 73101456.00000000 184454832.00000000 64275.36328125  5448247.50000000 4317835.00000000 
0.05000    114781088.00000000 72131312.00000000 181979776.00000000 63006.67187500  5356534.50000000 4245764.50000000 
0.05100    113193576.00000000 71155440.00000000 179490496.00000000 61737.16406250  5264530.00000000 4173422.50000000 
0.05200    111598048.00000000 70174256.00000000 176987984.00000000 60468.15234375  5172250.00000000 4100896.50000000 
0.05300    109995288.00000000 69188336.00000000 174473504.00000000 59200.60156250  5079855.50000000 4028245.25000000 
0.05400    108387296.00000000 68198648.00000000 171949552.00000000 57935.63671875  4987368.00000000 3955514.00000000 
0.05500    106773656.00000000 67205248.00000000 169417232.00000000 56674.04687500  4894881.50000000 3882742.50000000 
0.05600    105156144.00000000 66208964.00000000 166878896.00000000 55417.11718750  4802401.50000000 3809997.25000000 
0.05700    103536224.00000000 65210816.00000000 164335728.00000000 54165.26953125  4710042.50000000 3737351.50000000 
0.05800    101913656.00000000 64211380.00000000 161788304.00000000 52920.10546875  4617866.00000000 3664798.50000000 
0.05900    100290288.00000000 63210684.00000000 159238752.00000000 51681.91015625  4525912.50000000 3592418.75000000 
0.06000    98666920.00000000 62209684.00000000 156690080.00000000 50452.03515625  4434240.00000000 3520266.50000000 
0.06100    97044728.00000000 61208976.00000000 154140704.00000000 49230.98046875  4342959.00000000 3448381.25000000 
0.06200    95424520.00000000 60209324.00000000 151594896.00000000 48019.90234375  4252086.00000000 3376813.25000000 
0.06300    93807232.00000000 59210944.00000000 149053776.00000000 46819.26562500  4161667.00000000 3305605.25000000 
0.06400    92193880.00000000 58214172.00000000 146516704.00000000 45629.96093750  4071783.50000000 3234783.25000000 
0.06500    90584560.00000000 57220204.00000000 143986912.00000000 44452.85546875  3982463.50000000 3164402.75000000 
0.06600    88981032.00000000 56229316.00000000 141465424.00000000 43288.68750000  3893807.50000000 3094520.25000000 
0.06700    87383904.00000000 55242124.00000000 138953888.00000000 42137.93750000  3805807.75000000 3025143.25000000 
0.06800    85793800.00000000 54258492.00000000 136452368.00000000 41001.42578125  3718537.25000000 2956331.25000000 
0.06900    84211960.00000000 53279792.00000000 133964424.00000000 39879.98046875  3632066.00000000 2888141.50000000 
0.07000    82638968.00000000 52306024.00000000 131488640.00000000 38773.50000000  3546408.75000000 2820564.75000000 
0.07100    81075440.00000000 51337776.00000000 129027848.00000000 37683.23046875  3461611.75000000 2753663.50000000 
0.07200    79521968.00000000 50375332.00000000 126582728.00000000 36609.54687500  3377743.25000000 2687454.50000000 
0.07300    77979720.00000000 49419660.00000000 124154400.00000000 35552.75390625  3294816.50000000 2621990.50000000 
0.07400    76449680.00000000 48470692.00000000 121743968.00000000 34513.45312500  3212870.00000000 2557304.25000000 
0.07500    74931776.00000000 47529160.00000000 119352232.00000000 33492.19921875  3131978.25000000 2493391.00000000 
0.07600    73426160.00000000 46595112.00000000 116981256.00000000 32488.94531250  3052119.00000000 2430303.25000000 
0.07700    71935664.00000000 45669540.00000000 114630920.00000000 31504.53125000  2973370.75000000 2368081.25000000 
0.07800    70458496.00000000 44751852.00000000 112302632.00000000 30538.91601562  2895743.00000000 2306729.00000000 
0.07900    68996776.00000000 43843468.00000000 109997704.00000000 29592.82617188  2819285.75000000 2246260.75000000 
0.08000    67550640.00000000 42944020.00000000 107716248.00000000 28666.22265625  2743985.75000000 2186718.75000000 
0.08100    66120240.00000000 42054140.00000000 105459928.00000000 27759.56054688  2669905.25000000 2128103.75000000 
0.08200    64706532.00000000 41174104.00000000 103228464.00000000 26872.72656250  2597057.50000000 2070458.37500000 
0.08300    63309392.00000000 40304268.00000000 101023920.00000000 26006.16015625  2525443.00000000 2013779.62500000 
0.08400    61930276.00000000 39444748.00000000 98846104.00000000 25159.93945312  2455113.50000000 1958092.62500000 
0.08500    60568972.00000000 38596088.00000000 96695760.00000000 24334.19726562  2386080.25000000 1903401.25000000 
0.08600    59225772.00000000 37758440.00000000 94574040.00000000 23529.14257812  2318359.25000000 1849742.62500000 
0.08700    57901748.00000000 36931780.00000000 92481352.00000000 22744.50781250  2251947.75000000 1797103.62500000 
0.08800    56596168.00000000 36116508.00000000 90417768.00000000 21980.44921875  2186876.75000000 1745517.25000000 
0.08900    55310080.00000000 35313020.00000000 88384632.00000000 21237.15429688  2123114.25000000 1694958.87500000 
0.09000    54043728.00000000 34521392.00000000 86381784.00000000 20514.50195312  2060742.37500000 1645470.75000000 
0.09100    52797364.00000000 33741932.00000000 84410008.00000000 19812.23828125  1999717.50000000 1597033.50000000 
0.09200    51571476.00000000 32973984.00000000 82469936.00000000 19130.50000000  1940059.25000000 1549671.37500000 
0.09300    50365500.00000000 32218810.00000000 80561112.00000000 18469.12890625  1881763.25000000 1503374.37500000 
0.09400    49180432.00000000 31476118.00000000 78684368.00000000 17828.07031250  1824841.87500000 1458150.25000000 
0.09500    48016188.00000000 30746018.00000000 76840416.00000000 17206.93359375  1769296.25000000 1413995.62500000 
0.09600    46872736.00000000 30028526.00000000 75028768.00000000 16605.79882812  1715109.25000000 1370910.75000000 
0.09700    45750752.00000000 29323930.00000000 73249928.00000000 16024.44726562  1662280.50000000 1328900.50000000 
0.09800    44649540.00000000 28632210.00000000 71504760.00000000 15462.42675781  1610826.37500000 1287957.37500000 
0.09900    43570276.00000000 27953364.00000000 69792048.00000000 14919.72167969  1560734.00000000 1248072.75000000 
0.10000    42511756.00000000 27287546.00000000 68112488.00000000 14396.02636719  1511974.12500000 1209252.37500000 
0.10100    41474712.00000000 26634610.00000000 66467104.00000000 13890.93554688  1464560.75000000 1171479.87500000 
0.10200    40459496.00000000 25995008.00000000 64855128.00000000 13404.42187500  1418487.12500000 1134751.12500000 
0.10300    39465384.00000000 25368198.00000000 63276128.00000000 12935.88671875  1373719.50000000 1099058.25000000 
0.10400    38492732.00000000 24754604.00000000 61731060.00000000 12485.17382812  1330269.87500000 1064400.62500000 
0.10500    37541700.00000000 24154062.00000000 60219316.00000000 12052.00878906  1288118.00000000 1030762.50000000 
0.10600    36611548.00000000 23566382.00000000 58740396.00000000 11635.78417969  1247227.50000000 998114.68750000 
0.10700    35702888.00000000 22991848.00000000 57295188.00000000 11236.36621094  1207610.75000000 966472.56250000 
0.10800    34815416.00000000 22430372.00000000 55882576.00000000 10853.33007812  1169249.12500000 935803.18750000 
0.10900    33948616.00000000 21881380.00000000 54503344.00000000 10486.21191406  1132095.50000000 906107.93750000 
0.11000    33103070.00000000 21345560.00000000 53156652.00000000 10134.64550781  1096176.75000000 877373.50000000 
0.11100    32277914.00000000 20822372.00000000 51842376.00000000 9798.37402344   1061435.37500000 849568.25000000 
0.11200    31473456.00000000 20311750.00000000 50560348.00000000 9476.78027344   1027866.25000000 822693.75000000 
0.11300    30689436.00000000 19813764.00000000 49310428.00000000 9169.49023438   995447.25000000 796725.93750000 
0.11400    29925644.00000000 19328106.00000000 48092232.00000000 8876.18261719   964158.18750000 771645.06250000 
0.11500    29181682.00000000 18854916.00000000 46905420.00000000 8596.40136719   933978.18750000 747440.62500000 
0.11600    28457612.00000000 18393802.00000000 45749532.00000000 8329.56640625   904881.56250000 724091.06250000 
0.11700    27752958.00000000 17944760.00000000 44624600.00000000 8075.56933594   876834.81250000 701587.12500000 
0.11800    27067444.00000000 17507642.00000000 43529548.00000000 7833.58691406   849826.75000000 679893.68750000 
0.11900    26401150.00000000 17082284.00000000 42464264.00000000 7603.44531250   823826.75000000 659002.25000000 
0.12000    25753218.00000000 16668505.00000000 41429000.00000000 7384.55029297   798815.12500000 638890.12500000 
0.12100    25124238.00000000 16266281.00000000 40422632.00000000 7176.70068359   774764.12500000 619548.37500000 
0.12200    24513150.00000000 15875262.00000000 39444872.00000000 6979.21582031   751659.31250000 600942.75000000 
0.12300    23919824.00000000 15495235.00000000 38495336.00000000 6791.82714844   729447.12500000 583063.31250000 
0.12400    23344104.00000000 15126237.00000000 37573252.00000000 6614.03271484   708130.18750000 565887.50000000 
0.12500    22785792.00000000 14768016.00000000 36678376.00000000 6445.39013672   687662.56250000 549388.43750000 
0.12600    22244242.00000000 14420400.00000000 35810484.00000000 6285.59375000   668033.06250000 533556.81250000 
0.12700    21719286.00000000 14083010.00000000 34968748.00000000 6134.09814453   649211.00000000 518367.71875000 
0.12800    21210628.00000000 13755716.00000000 34152468.00000000 5990.61425781   631161.68750000 503797.43750000 
0.12900    20717762.00000000 13438464.00000000 33361542.00000000 5854.60449219   613872.06250000 489828.00000000 
0.13000    20240680.00000000 13130979.00000000 32595238.00000000 5725.81787109   597307.25000000 476436.71875000 
0.13100    19778462.00000000 12833042.00000000 31853088.00000000 5603.77099609   581441.75000000 463610.31250000 
0.13200    19331270.00000000 12544355.00000000 31134316.00000000 5488.09960938   566254.18750000 451324.65625000 
0.13300    18898608.00000000 12264866.00000000 30438656.00000000 5378.48730469   551715.18750000 439558.31250000 
0.13400    18479928.00000000 11994258.00000000 29765330.00000000 5274.54394531   537795.43750000 428290.75000000 
0.13500    18075164.00000000 11732398.00000000 29113986.00000000 5175.90380859   524484.12500000 417505.56250000 
0.13600    17683712.00000000 11478908.00000000 28483950.00000000 5082.21972656   511744.84375000 407182.34375000 
0.13700    17305382.00000000 11233787.00000000 27874764.00000000 4993.19238281   499554.90625000 397297.62500000 
0.13800    16939650.00000000 10996555.00000000 27285654.00000000 4908.47412109   487889.31250000 387839.93750000 
0.13900    16586372.00000000 10767234.00000000 26716350.00000000 4827.77392578   476726.43750000 378788.00000000 
0.14000    16245094.00000000 10545540.00000000 26165982.00000000 4750.79931641   466046.59375000 370122.25000000 
0.14100    15915398.00000000 10331155.00000000 25634218.00000000 4677.24414062   455820.96875000 361823.31250000 
0.14200    15596871.00000000 10124025.00000000 25120390.00000000 4606.81298828   446030.81250000 353875.96875000 
0.14300    15289273.00000000 9923851.00000000 24623988.00000000 4539.27148438   436648.96875000 346260.34375000 
0.14400    14992182.00000000 9730307.00000000 24144382.00000000 4474.31787109   427657.68750000 338961.06250000 
0.14500    14705367.00000000 9543347.00000000 23681372.00000000 4411.82714844   419040.93750000 331964.18750000 
0.14600    14428359.00000000 9362741.00000000 23233814.00000000 4351.43457031   410770.81250000 325251.90625000 
0.14700    14160929.00000000 9188211.00000000 22801692.00000000 4292.96582031   402836.00000000 318809.21875000 
0.14800    13902707.00000000 9019555.00000000 22384156.00000000 4236.21923828   395201.90625000 312616.56250000 
0.14900    13653172.00000000 8856580.00000000 21980862.00000000 4181.00195312   387863.90625000 306661.84375000 
0.15000    13412220.00000000 8699052.00000000 21591192.00000000 4127.10302734   380796.93750000 300932.59375000 
0.15100    13179511.00000000 8547009.00000000 21214752.00000000 4074.39086914   373990.09375000 295413.37500000 
0.15200    12954618.00000000 8399911.00000000 20850994.00000000 4022.70898438   367423.37500000 290091.68750000 
0.15300    12737314.00000000 8257786.50000000 20499546.00000000 3971.84790039   361076.90625000 284953.87500000 
0.15400    12527208.00000000 8120240.50000000 20159386.00000000 3921.67602539   354941.40625000 279986.00000000 
0.15500    12324162.00000000 7987321.50000000 19830918.00000000 3872.09765625   348995.62500000 275179.12500000 
0.15600    12127634.00000000 7858678.50000000 19512828.00000000 3822.96069336   343227.21875000 270517.03125000 
0.15700    11937565.00000000 7734281.50000000 19205294.00000000 3774.19824219   337627.81250000 265995.00000000 
0.15800    11753482.00000000 7613758.00000000 18907386.00000000 3725.64746094   332174.59375000 261598.09375000 
0.15900    11575265.00000000 7497142.00000000 18619012.00000000 3677.27246094   326863.34375000 257317.73437500 
0.16000    11402538.00000000 7384064.00000000 18339658.00000000 3628.97729492   321675.59375000 253141.14062500 
0.16100    11235141.00000000 7274555.00000000 18068748.00000000 3580.72338867   316611.09375000 249065.81250000 
0.16200    11072766.00000000 7168298.00000000 17806128.00000000 3532.40063477   311647.00000000 245078.37500000 
0.16300    10915108.00000000 7065244.00000000 17551178.00000000 3483.94482422   306778.15625000 241170.59375000 
0.16400    10762124.00000000 6965174.50000000 17303654.00000000 3435.37182617   301994.87500000 237336.35937500 
0.16500    10613375.00000000 6867976.50000000 17063304.00000000 3386.59423828   297290.62500000 233569.00000000 
0.16600    10468665.00000000 6773509.00000000 16829516.00000000 3337.61254883   292654.28125000 229860.71875000 
0.16700    10327873.00000000 6681615.50000000 16602016.00000000 3288.36743164   288074.31250000 226202.18750000 
0.16800    10190655.00000000 6592129.50000000 16380324.00000000 3238.88159180   283550.93750000 222589.87500000 
0.16900    10057029.00000000 6505026.00000000 16164672.00000000 3189.15454102   279076.50000000 219023.54687500 
0.17000    9926552.00000000 6420077.50000000 15954095.00000000 3139.13769531   274638.68750000 215490.84375000 
