# SAXS profile: number of points = 501, q_min = 0, q_max = 0.5, delta_q = 0.001
#    q    intensity 
0.00000    162232304.00000000 101202120.00000000 256270848.00000000 99817.53906250  8048446.50000000 6356631.50000000 
0.00100    162201728.00000000 101180936.00000000 256217536.00000000 99788.26562500  8046378.50000000 6355045.00000000 
0.00200    162103360.00000000 101118000.00000000 256057696.00000000 99701.08593750  8040255.00000000 6350249.00000000 
0.00300    161936512.00000000 101013352.00000000 255789536.00000000 99555.14062500  8030133.50000000 6342235.00000000 
0.00400    161696416.00000000 100866984.00000000 255415712.00000000 99352.14062500  8015927.00000000 6331100.50000000 
0.00500    161389376.00000000 100679464.00000000 254935856.00000000 99091.56250000  7997680.50000000 6316806.00000000 
0.00600    161014224.00000000 100448704.00000000 254350720.00000000 98773.56250000  7975466.50000000 6299349.00000000 
0.00700    160573376.00000000 100178792.00000000 253661248.00000000 98399.68750000  7949304.50000000 6278860.00000000 
0.00800    160064048.00000000 99868560.00000000 252870064.00000000 97970.43750000  7919287.50000000 6255265.00000000 
0.00900    159493232.00000000 99518272.00000000 251973504.00000000 97486.82031250  7885388.00000000 6228648.50000000 
0.01000    158858912.00000000 99129952.00000000 250979184.00000000 96949.25781250  7847697.50000000 6199103.00000000 
0.01100    158162784.00000000 98700744.00000000 249886176.00000000 96359.18750000  7806356.50000000 6166638.50000000 
0.01200    157402320.00000000 98234192.00000000 248693360.00000000 95718.23437500  7761329.00000000 6131306.50000000 
0.01300    156580752.00000000 97730464.00000000 247407760.00000000 95027.01562500  7712777.50000000 6093177.00000000 
0.01400    155698944.00000000 97188696.00000000 246027424.00000000 94287.57031250  7660744.50000000 6052313.00000000 
0.01500    154758944.00000000 96612560.00000000 244554784.00000000 93500.79687500  7605358.50000000 6008800.50000000 
0.01600    153764320.00000000 96001264.00000000 242993568.00000000 92668.69531250  7546642.00000000 5962736.00000000 
0.01700    152712480.00000000 95356216.00000000 241346096.00000000 91791.98437500  7484800.00000000 5914194.50000000 
0.01800    151606848.00000000 94676368.00000000 239613536.00000000 90873.57031250  7419867.50000000 5863194.50000000 
0.01900    150450672.00000000 93965680.00000000 237799856.00000000 89914.85937500  7351953.50000000 5809885.50000000 
0.02000    149242800.00000000 93223832.00000000 235905216.00000000 88916.85156250  7281244.00000000 5754287.00000000 
0.02100    147986576.00000000 92451240.00000000 233937200.00000000 87883.01562500  7207804.50000000 5696602.50000000 
0.02200    146683760.00000000 91650640.00000000 231892800.00000000 86813.44531250  7131713.50000000 5636923.50000000 
0.02300    145335520.00000000 90821720.00000000 229778912.00000000 85712.14062500  7053182.00000000 5575180.00000000 
0.02400    143944064.00000000 89966344.00000000 227597184.00000000 84579.23437500  6972341.50000000 5511685.00000000 
0.02500    142512208.00000000 89085488.00000000 225351456.00000000 83418.15625000  6889267.50000000 5446382.50000000 
0.02600    141041376.00000000 88180592.00000000 223043632.00000000 82230.23437500  6804136.00000000 5379433.50000000 
0.02700    139534336.00000000 87252784.00000000 220677952.00000000 81017.82031250  6717035.50000000 5311025.00000000 
0.02800    137991632.00000000 86302440.00000000 218256736.00000000 79783.32031250  6628119.00000000 5241100.50000000 
0.02900    136415696.00000000 85332392.00000000 215784000.00000000 78528.37500000  6537581.00000000 5169918.50000000 
0.03000    134809200.00000000 84342448.00000000 213262656.00000000 77255.08593750  6445462.50000000 5097518.50000000 
0.03100    133175904.00000000 83335672.00000000 210695456.00000000 75965.85937500  6351996.50000000 5023995.00000000 
0.03200    131514784.00000000 82311416.00000000 208087776.00000000 74662.55468750  6257232.00000000 4949480.00000000 
0.03300    129830168.00000000 81271736.00000000 205441472.00000000 73347.67187500  6161382.50000000 4874075.50000000 
0.03400    128122200.00000000 80218960.00000000 202759184.00000000 72022.92968750  6064541.00000000 4797898.00000000 
0.03500    126394960.00000000 79153440.00000000 200045232.00000000 70690.42968750  5966842.00000000 4721061.00000000 
0.03600    124650152.00000000 78076504.00000000 197303936.00000000 69352.37500000  5868540.00000000 4643665.50000000 
0.03700    122888688.00000000 76989400.00000000 194535008.00000000 68010.18750000  5769550.00000000 4565788.00000000 
0.03800    121114496.00000000 75892728.00000000 191744832.00000000 66666.21093750  5670138.00000000 4487520.50000000 
0.03900    119328568.00000000 74788712.00000000 188936800.00000000 65322.26171875  5570387.00000000 4409027.50000000 
0.04000    117532600.00000000 73677872.00000000 186111920.00000000 63980.08984375  5470469.00000000 4330321.50000000 
0.04100    115729264.00000000 72562272.00000000 183275408.00000000 62641.54296875  5370498.00000000 4251603.00000000 
0.04200    113919936.00000000 71443192.00000000 180429760.00000000 61307.96484375  5270564.50000000 4172868.50000000 
0.04300    112106840.00000000 70320696.00000000 177576336.00000000 59981.69140625  5170814.50000000 4094258.25000000 
0.04400    110292608.00000000 69197376.00000000 174720592.00000000 58663.53515625  5071294.50000000 4015839.25000000 
0.04500    108477392.00000000 68073664.00000000 171864768.00000000 57355.63671875  4972185.50000000 3937731.25000000 
0.04600    106665000.00000000 66949384.00000000 169009760.00000000 56058.58593750  4873592.50000000 3860004.50000000 
0.04700    104855552.00000000 65827564.00000000 166160320.00000000 54774.81250000  4775507.50000000 3782712.50000000 
0.04800    103051544.00000000 64708560.00000000 163317792.00000000 53504.63671875  4678203.50000000 3705956.00000000 
0.04900    101254400.00000000 63592956.00000000 160485920.00000000 52249.67578125  4581622.50000000 3629763.75000000 
0.05000    99465384.00000000 62482220.00000000 157666864.00000000 51011.59375000  4485898.00000000 3554251.50000000 
0.05100    97686336.00000000 61377288.00000000 154862080.00000000 49790.25390625  4391097.50000000 3479473.75000000 
0.05200    95917864.00000000 60278624.00000000 152074944.00000000 48587.37109375  4297343.50000000 3405495.75000000 
0.05300    94162880.00000000 59187532.00000000 149307808.00000000 47403.41015625  4204686.50000000 3332371.75000000 
0.05400    92422128.00000000 58104432.00000000 146560992.00000000 46239.87109375  4113177.75000000 3260110.50000000 
0.05500    90696328.00000000 57030748.00000000 143837760.00000000 45096.82421875  4022913.50000000 3188828.00000000 
0.05600    88986536.00000000 55966672.00000000 141141008.00000000 43975.17578125  3933929.25000000 3118549.00000000 
0.05700    87294824.00000000 54913200.00000000 138471440.00000000 42875.01171875  3846266.00000000 3049321.00000000 
0.05800    85622152.00000000 53870620.00000000 135829664.00000000 41797.25390625  3759986.00000000 2981123.50000000 
0.05900    83968088.00000000 52839676.00000000 133218528.00000000 40742.76171875  3675125.75000000 2914085.75000000 
0.06000    82335024.00000000 51821604.00000000 130638984.00000000 39711.11328125  3591717.50000000 2848177.50000000 
0.06100    80723192.00000000 50816028.00000000 128093032.00000000 38702.50000000  3509843.50000000 2783416.75000000 
0.06200    79134424.00000000 49824044.00000000 125581544.00000000 37717.45703125  3429458.75000000 2719881.50000000 
0.06300    77567264.00000000 48846056.00000000 123105944.00000000 36756.24218750  3350643.00000000 2657552.00000000 
0.06400    76024128.00000000 47881932.00000000 120665944.00000000 35818.82421875  3273399.00000000 2596451.75000000 
0.06500    74505160.00000000 46933132.00000000 118264264.00000000 34905.06250000  3197743.75000000 2536596.75000000 
0.06600    73010168.00000000 45998300.00000000 115900832.00000000 34015.07812500  3123666.75000000 2477993.75000000 
0.06700    71540672.00000000 45079500.00000000 113576456.00000000 33147.93359375  3051232.25000000 2420669.50000000 
0.06800    70096848.00000000 44176260.00000000 111292472.00000000 32304.58984375  2980406.75000000 2364608.50000000 
0.06900    68678304.00000000 43288720.00000000 109048656.00000000 31484.19726562  2911166.25000000 2309798.25000000 
0.07000    67286136.00000000 42416972.00000000 106844744.00000000 30686.64843750  2843545.75000000 2256268.50000000 
0.07100    65920128.00000000 41561720.00000000 104683240.00000000 29911.77929688  2777544.00000000 2203978.00000000 
0.07200    64580464.00000000 40722848.00000000 102562416.00000000 29158.70312500  2713108.00000000 2152970.25000000 
0.07300    63267540.00000000 39899888.00000000 100483800.00000000 28427.68554688  2650299.25000000 2103197.00000000 
0.07400    61981112.00000000 39093860.00000000 98447672.00000000 27717.86914062  2589020.25000000 2054649.12500000 
0.07500    60721732.00000000 38304256.00000000 96452712.00000000 27029.06054688  2529294.25000000 2007357.00000000 
0.07600    59488212.00000000 37531164.00000000 94499472.00000000 26360.46679688  2471119.75000000 1961239.62500000 
0.07700    58281880.00000000 36774940.00000000 92589168.00000000 25711.98828125  2414436.25000000 1916325.37500000 
0.07800    57101804.00000000 36034636.00000000 90719896.00000000 25082.52148438  2359220.25000000 1872578.00000000 
0.07900    55948132.00000000 35310976.00000000 88892416.00000000 24472.10742188  2305501.75000000 1829975.00000000 
0.08000    54820432.00000000 34603768.00000000 87106408.00000000 23879.94726562  2253184.00000000 1788522.25000000 
0.08100    53718896.00000000 33912324.00000000 85361000.00000000 23305.67773438  2202266.25000000 1748166.37500000 
0.08200    52642932.00000000 33237566.00000000 83656208.00000000 22748.41796875  2152709.75000000 1708890.00000000 
0.08300    51592360.00000000 32578288.00000000 81991304.00000000 22207.59960938  2104497.00000000 1670679.62500000 
0.08400    50566412.00000000 31934772.00000000 80366168.00000000 21682.96875000  2057596.00000000 1633489.87500000 
0.08500    49565584.00000000 31306708.00000000 78780232.00000000 21173.50781250  2011967.37500000 1597313.75000000 
0.08600    48589088.00000000 30694010.00000000 77233224.00000000 20679.15625000  1967564.87500000 1562130.00000000 
0.08700    47636568.00000000 30096394.00000000 75724416.00000000 20198.84375000  1924390.25000000 1527887.25000000 
0.08800    46707444.00000000 29513854.00000000 74252440.00000000 19732.33593750  1882356.87500000 1494577.75000000 
0.08900    45801500.00000000 28945748.00000000 72817640.00000000 19278.84960938  1841458.50000000 1462168.62500000 
0.09000    44918524.00000000 28392068.00000000 71419208.00000000 18838.34570312  1801670.37500000 1430631.25000000 
0.09100    44057300.00000000 27852602.00000000 70055976.00000000 18409.74609375  1762937.25000000 1399939.50000000 
0.09200    43218308.00000000 27326650.00000000 68727608.00000000 17992.71093750  1725251.00000000 1370075.12500000 
0.09300    42400708.00000000 26814530.00000000 67433024.00000000 17586.84570312  1688552.50000000 1340997.87500000 
0.09400    41603724.00000000 26315610.00000000 66171960.00000000 17191.65039062  1652804.62500000 1312681.62500000 
0.09500    40827768.00000000 25829368.00000000 64943016.00000000 16806.44335938  1617996.87500000 1285097.62500000 
0.09600    40071268.00000000 25356274.00000000 63746100.00000000 16431.17578125  1584086.87500000 1258233.37500000 
0.09700    39334344.00000000 24895298.00000000 62580192.00000000 16065.16308594  1551037.75000000 1232059.50000000 
0.09800    38616488.00000000 24446350.00000000 61444652.00000000 15708.09667969  1518833.12500000 1206545.50000000 
0.09900    37917092.00000000 24009208.00000000 60339044.00000000 15359.61132812  1487421.37500000 1181680.75000000 
0.10000    37235644.00000000 23583570.00000000 59261476.00000000 15019.23730469  1456773.75000000 1157427.62500000 
0.10100    36571392.00000000 23169024.00000000 58212364.00000000 14686.71289062  1426893.87500000 1133762.62500000 
0.10200    35924796.00000000 22765572.00000000 57190412.00000000 14361.76464844  1397719.25000000 1110680.62500000 
0.10300    35294304.00000000 22372464.00000000 56194588.00000000 14044.05468750  1369243.25000000 1088133.25000000 
0.10400    34680248.00000000 21989634.00000000 55224456.00000000 13733.21679688  1341436.37500000 1066125.50000000 
0.10500    34081808.00000000 21616902.00000000 54279756.00000000 13429.26757812  1314274.87500000 1044646.25000000 
0.10600    33498350.00000000 21253702.00000000 53358984.00000000 13131.67773438  1287725.37500000 1023640.25000000 
0.10700    32929690.00000000 20899994.00000000 52461764.00000000 12840.26269531  1261787.00000000 1003122.00000000 
0.10800    32375366.00000000 20555270.00000000 51587368.00000000 12555.06347656  1236421.25000000 983049.25000000 
0.10900    31834872.00000000 20219470.00000000 50735096.00000000 12275.56347656  1211597.12500000 963425.18750000 
0.11000    31307858.00000000 19891962.00000000 49904260.00000000 12001.99218750  1187334.75000000 944222.00000000 
0.11100    30794012.00000000 19572940.00000000 49093956.00000000 11733.77636719  1163580.37500000 925441.93750000 
0.11200    30292568.00000000 19261788.00000000 48303792.00000000 11471.06738281  1140333.50000000 907054.25000000 
0.11300    29803274.00000000 18958548.00000000 47533072.00000000 11213.64746094  1117580.12500000 889054.81250000 
0.11400    29326028.00000000 18662740.00000000 46781260.00000000 10961.35546875  1095289.00000000 871429.18750000 
0.11500    28859860.00000000 18373884.00000000 46047428.00000000 10714.24414062  1073465.00000000 854165.43750000 
0.11600    28405182.00000000 18092344.00000000 45331536.00000000 10471.97851562  1052076.87500000 837253.56250000 
0.11700    27961100.00000000 17817466.00000000 44632464.00000000 10234.79492188  1031131.62500000 820672.37500000 
0.11800    27527200.00000000 17548904.00000000 43949744.00000000 10002.32714844  1010593.12500000 804434.25000000 
0.11900    27103380.00000000 17286766.00000000 43282712.00000000 9774.63769531   990470.81250000 788507.00000000 
0.12000    26689134.00000000 17030450.00000000 42631432.00000000 9551.68847656   970749.75000000 772901.87500000 
0.12100    26284412.00000000 16780352.00000000 41994328.00000000 9333.40332031   951416.12500000 757601.87500000 
0.12200    25888584.00000000 16535704.00000000 41371928.00000000 9119.74218750   932462.06250000 742595.68750000 
0.12300    25501800.00000000 16296483.00000000 40763204.00000000 8910.60449219   913876.56250000 727880.43750000 
0.12400    25123016.00000000 16062494.00000000 40167412.00000000 8705.94824219   895660.00000000 713448.68750000 
0.12500    24752534.00000000 15833461.00000000 39584752.00000000 8505.80273438   877792.81250000 699289.50000000 
0.12600    24389976.00000000 15609271.00000000 39014588.00000000 8310.13281250   860275.31250000 685412.43750000 
0.12700    24034982.00000000 15389822.00000000 38456032.00000000 8118.81005859   843094.12500000 671793.62500000 
0.12800    23687120.00000000 15174793.00000000 37908728.00000000 7931.83007812   826248.50000000 658433.87500000 
0.12900    23346470.00000000 14964085.00000000 37372776.00000000 7749.17480469   809727.43750000 645331.18750000 
0.13000    23012626.00000000 14757514.00000000 36847492.00000000 7570.71777344   793527.56250000 632477.18750000 
0.13100    22685272.00000000 14554741.00000000 36332152.00000000 7396.50683594   777648.18750000 619863.75000000 
0.13200    22364232.00000000 14356009.00000000 35826464.00000000 7226.41894531   762058.87500000 607495.68750000 
0.13300    22049380.00000000 14160814.00000000 35330676.00000000 7060.43798828   746794.18750000 595363.06250000 
0.13400    21740218.00000000 13969164.00000000 34843652.00000000 6898.51171875   731813.43750000 583455.93750000 
0.13500    21436962.00000000 13780933.00000000 34365480.00000000 6740.56250000   717122.93750000 571776.87500000 
0.13600    21138832.00000000 13595700.00000000 33895404.00000000 6586.46533203   702715.50000000 560314.37500000 
0.13700    20845958.00000000 13413851.00000000 33433778.00000000 6436.34716797   688592.06250000 549075.43750000 
0.13800    20558232.00000000 13234726.00000000 32979402.00000000 6289.90722656   674736.43750000 538040.25000000 
0.13900    20275228.00000000 13058474.00000000 32532786.00000000 6147.19238281   661151.43750000 527222.68750000 
0.14000    19996714.00000000 12885066.00000000 32093164.00000000 6008.09667969   647822.62500000 516608.40625000 
0.14100    19722974.00000000 12714072.00000000 31660282.00000000 5872.50537109   634762.12500000 506189.71875000 
0.14200    19453332.00000000 12545596.00000000 31233746.00000000 5740.41894531   621945.87500000 495964.15625000 
0.14300    19187726.00000000 12379544.00000000 30813626.00000000 5611.60253906   609373.81250000 485933.00000000 
0.14400    18925994.00000000 12215601.00000000 30399234.00000000 5486.12060547   597037.06250000 476084.90625000 
0.14500    18667980.00000000 12053935.00000000 29990708.00000000 5363.84472656   584940.43750000 466418.62500000 
0.14600    18413564.00000000 11894270.00000000 29587510.00000000 5244.61474609   573064.12500000 456934.21875000 
0.14700    18162552.00000000 11736600.00000000 29189688.00000000 5128.36914062   561417.37500000 447618.53125000 
0.14800    17914846.00000000 11580869.00000000 28796596.00000000 5015.01123047   549977.18750000 438472.40625000 
0.14900    17670170.00000000 11426611.00000000 28408172.00000000 4904.39062500   538749.75000000 429490.25000000 
0.15000    17428760.00000000 11274253.00000000 28024338.00000000 4796.54589844   527724.87500000 420667.12500000 
0.15100    17189898.00000000 11123524.00000000 27644862.00000000 4691.17822266   516901.34375000 411996.28125000 
0.15200    16953732.00000000 10974248.00000000 27269436.00000000 4588.39697266   506267.53125000 403479.65625000 
0.15300    16720483.00000000 10826438.00000000 26897644.00000000 4487.90576172   495821.00000000 395108.06250000 
0.15400    16489499.00000000 10680039.00000000 26529966.00000000 4389.70117188   485550.18750000 386877.12500000 
0.15500    16260829.00000000 10535027.00000000 26165566.00000000 4293.71044922   475459.09375000 378783.87500000 
0.15600    16034463.00000000 10391131.00000000 25804642.00000000 4199.85205078   465532.53125000 370822.18750000 
0.15700    15810325.00000000 10248613.00000000 25447226.00000000 4107.87988281   455772.81250000 362994.68750000 
0.15800    15588182.00000000 10107081.00000000 25092338.00000000 4017.88500977   446165.21875000 355288.81250000 
0.15900    15367888.00000000 9966697.00000000 24740764.00000000 3929.70727539   436714.31250000 347703.50000000 
0.16000    15149544.00000000 9827370.00000000 24391782.00000000 3843.27197266   427408.50000000 340233.53125000 
0.16100    14933084.00000000 9689090.00000000 24045810.00000000 3758.50048828   418247.53125000 332878.46875000 
0.16200    14718262.00000000 9551771.00000000 23702248.00000000 3675.29467773   409224.65625000 325633.78125000 
0.16300    14505159.00000000 9415371.00000000 23361284.00000000 3593.59545898   400334.59375000 318495.25000000 
0.16400    14293593.00000000 9279926.00000000 23022640.00000000 3513.37963867   391571.37500000 311458.96875000 
0.16500    14083531.00000000 9145330.00000000 22686392.00000000 3434.52392578   382936.34375000 304523.28125000 
0.16600    13875028.00000000 9011542.00000000 22352456.00000000 3357.02221680   374421.37500000 297686.96875000 
0.16700    13667884.00000000 8878660.00000000 22020626.00000000 3280.76611328   366019.71875000 290939.00000000 
0.16800    13462154.00000000 8746458.00000000 21690818.00000000 3205.73779297   357732.90625000 284285.03125000 
0.16900    13257892.00000000 8615267.00000000 21363186.00000000 3131.90844727   349562.37500000 277720.81250000 
0.17000    13054980.00000000 8484778.00000000 21037802.00000000 3059.25268555   341495.84375000 271244.43750000 
