# SAXS profile: number of points = 501, q_min = 0, q_max = 0.5, delta_q = 0.001
#    q    intensity 
0.00000    162232912.00000000 101201712.00000000 256270208.00000000 96450.38281250  7911556.00000000 6248473.00000000 
0.00100    162202032.00000000 101180568.00000000 256218016.00000000 96423.71875000  7909647.50000000 6246992.00000000 
0.00200    162106544.00000000 101119000.00000000 256059312.00000000 96345.07031250  7903899.50000000 6242503.00000000 
0.00300    161941728.00000000 101015024.00000000 255796496.00000000 96213.50781250  7894372.00000000 6234991.50000000 
0.00400    161707328.00000000 100870776.00000000 255427856.00000000 96029.85937500  7881071.00000000 6224517.50000000 
0.00500    161404192.00000000 100685512.00000000 254955312.00000000 95794.18750000  7863959.00000000 6211121.00000000 
0.00600    161034096.00000000 100455912.00000000 254376000.00000000 95507.28125000  7843102.50000000 6194736.00000000 
0.00700    160602016.00000000 100190088.00000000 253698016.00000000 95169.08593750  7818604.00000000 6175389.00000000 
0.00800    160099536.00000000 99883432.00000000 252915616.00000000 94780.82031250  7790414.00000000 6153273.50000000 
0.00900    159537552.00000000 99537208.00000000 252033024.00000000 94343.07812500  7758627.50000000 6128275.50000000 
0.01000    158913600.00000000 99152360.00000000 251051488.00000000 93856.69531250  7723274.00000000 6100491.50000000 
0.01100    158226880.00000000 98728056.00000000 249971888.00000000 93322.17187500  7684445.50000000 6069917.00000000 
0.01200    157479472.00000000 98266520.00000000 248793680.00000000 92742.27343750  7642147.50000000 6036653.50000000 
0.01300    156668336.00000000 97767432.00000000 247524448.00000000 92115.05468750  7596520.00000000 6000763.00000000 
0.01400    155800528.00000000 97231800.00000000 246159520.00000000 91444.73437500  7547670.50000000 5962341.00000000 
0.01500    154874896.00000000 96660048.00000000 244707904.00000000 90730.25000000  7495538.50000000 5921350.50000000 
0.01600    153895200.00000000 96054400.00000000 243164832.00000000 89974.48437500  7440307.00000000 5877911.50000000 
0.01700    152856944.00000000 95415104.00000000 241535584.00000000 89177.46093750  7382080.00000000 5832075.00000000 
0.01800    151767072.00000000 94742456.00000000 239821248.00000000 88342.18750000  7320888.00000000 5783944.50000000 
0.01900    150625344.00000000 94037376.00000000 238029120.00000000 87469.52343750  7256930.00000000 5733616.00000000 
0.02000    149433872.00000000 93301704.00000000 236155584.00000000 86560.86718750  7190231.00000000 5681136.00000000 
0.02100    148193088.00000000 92536552.00000000 234206144.00000000 85617.46875000  7120898.50000000 5626605.50000000 
0.02200    146906064.00000000 91741200.00000000 232184256.00000000 84641.72656250  7049084.00000000 5570142.00000000 
0.02300    145574112.00000000 90918616.00000000 230089776.00000000 83634.68750000  6974903.50000000 5511729.50000000 
0.02400    144198528.00000000 90069224.00000000 227927936.00000000 82598.31250000  6898444.00000000 5451533.50000000 
0.02500    142782560.00000000 89194552.00000000 225701952.00000000 81534.90625000  6819829.50000000 5389626.00000000 
0.02600    141327760.00000000 88295216.00000000 223414400.00000000 80445.87500000  6739167.50000000 5326169.50000000 
0.02700    139836032.00000000 87372392.00000000 221068544.00000000 79332.39062500  6656616.00000000 5261176.50000000 
0.02800    138308688.00000000 86428336.00000000 218666240.00000000 78197.55468750  6572262.50000000 5194772.00000000 
0.02900    136746384.00000000 85463336.00000000 216210928.00000000 77042.35937500  6486233.00000000 5127026.00000000 
0.03000    135154688.00000000 84478752.00000000 213707264.00000000 75868.71093750  6398719.50000000 5058116.00000000 
0.03100    133534720.00000000 83476184.00000000 211157296.00000000 74678.82031250  6309752.50000000 4988053.50000000 
0.03200    131887032.00000000 82456600.00000000 208564464.00000000 73473.72656250  6219526.00000000 4917023.00000000 
0.03300    130214096.00000000 81420744.00000000 205931376.00000000 72256.14062500  6128138.00000000 4845021.50000000 
0.03400    128518552.00000000 80370720.00000000 203263360.00000000 71027.02343750  6035664.00000000 4772224.00000000 
0.03500    126801720.00000000 79308240.00000000 200562832.00000000 69789.45312500  5942342.50000000 4698693.00000000 
0.03600    125066472.00000000 78234000.00000000 197832336.00000000 68543.70312500  5848226.00000000 4624569.50000000 
0.03700    123315656.00000000 77149680.00000000 195074640.00000000 67293.03125000  5753468.00000000 4549905.50000000 
0.03800    121548600.00000000 76055488.00000000 192294464.00000000 66038.07812500  5658135.50000000 4474809.00000000 
0.03900    119770272.00000000 74953184.00000000 189493616.00000000 64780.16796875  5562363.50000000 4399331.50000000 
0.04000    117980520.00000000 73843408.00000000 186675856.00000000 63521.48828125  5466336.50000000 4323620.50000000 
0.04100    116182912.00000000 72728512.00000000 183842512.00000000 62263.88671875  5370084.50000000 4247780.00000000 
0.04200    114378728.00000000 71609024.00000000 181000512.00000000 61008.76171875  5273780.00000000 4171824.50000000 
0.04300    112569320.00000000 70486424.00000000 178150320.00000000 59757.11328125  5177445.00000000 4095875.25000000 
0.04400    110757272.00000000 69362024.00000000 175295968.00000000 58510.76171875  5081259.00000000 4020071.50000000 
0.04500    108944416.00000000 68237128.00000000 172439920.00000000 57271.07421875  4985369.00000000 3944430.25000000 
0.04600    107132688.00000000 67111904.00000000 169582400.00000000 56039.21875000  4889777.50000000 3869030.75000000 
0.04700    105323712.00000000 65987716.00000000 166730768.00000000 54816.84765625  4794617.50000000 3793985.00000000 
0.04800    103518672.00000000 64865876.00000000 163886320.00000000 53604.76171875  4699954.00000000 3719334.50000000 
0.04900    101718864.00000000 63747712.00000000 161048816.00000000 52404.07421875  4605934.00000000 3645144.50000000 
0.05000    99927864.00000000 62633980.00000000 158223408.00000000 51216.02734375  4512619.50000000 3571512.50000000 
0.05100    98145528.00000000 61525680.00000000 155411840.00000000 50041.47656250  4420072.50000000 3498476.75000000 
0.05200    96373312.00000000 60423320.00000000 152616768.00000000 48881.71093750  4328375.00000000 3426102.25000000 
0.05300    94613296.00000000 59328208.00000000 149840160.00000000 47737.04296875  4237588.50000000 3354465.50000000 
0.05400    92866360.00000000 58241180.00000000 147083760.00000000 46608.87890625  4147799.25000000 3283583.50000000 
0.05500    91134680.00000000 57162812.00000000 144351392.00000000 45497.46093750  4059074.00000000 3213546.75000000 
0.05600    89418344.00000000 56094408.00000000 141642800.00000000 44403.52734375  3971469.25000000 3144372.75000000 
0.05700    87719520.00000000 55036036.00000000 138961056.00000000 43328.53906250  3885040.50000000 3076127.75000000 
0.05800    86038512.00000000 53988660.00000000 136308064.00000000 42271.59765625  3799836.25000000 3008821.25000000 
0.05900    84377280.00000000 52953048.00000000 133684664.00000000 41234.16015625  3715915.25000000 2942527.50000000 
0.06000    82735728.00000000 51929892.00000000 131092504.00000000 40216.44921875  3633270.50000000 2877238.50000000 
0.06100    81115232.00000000 50919668.00000000 128533664.00000000 39218.94531250  3551991.75000000 2813032.75000000 
0.06200    79517520.00000000 49922852.00000000 126008704.00000000 38241.22265625  3472113.25000000 2749914.00000000 
0.06300    77942608.00000000 48940172.00000000 123520568.00000000 37284.40234375  3393627.25000000 2687913.75000000 
0.06400    76390904.00000000 47971644.00000000 121068232.00000000 36348.24609375  3316583.50000000 2627022.25000000 
0.06500    74862712.00000000 47017740.00000000 118654680.00000000 35433.35156250  3241027.75000000 2567294.25000000 
0.06600    73359352.00000000 46079756.00000000 116279320.00000000 34539.00781250  3166925.75000000 2508737.50000000 
0.06700    71882232.00000000 45156756.00000000 113943304.00000000 33665.56640625  3094321.00000000 2451329.50000000 
0.06800    70430120.00000000 44250104.00000000 111648504.00000000 32813.08984375  3023259.25000000 2395131.50000000 
0.06900    69003864.00000000 43359104.00000000 109395024.00000000 31981.50976562  2953669.00000000 2340132.50000000 
0.07000    67604384.00000000 42484560.00000000 107182200.00000000 31170.81640625  2885605.25000000 2286302.75000000 
0.07100    66231856.00000000 41626600.00000000 105012304.00000000 30380.53906250  2819073.75000000 2233667.25000000 
0.07200    64886536.00000000 40785532.00000000 102884320.00000000 29610.78515625  2754053.25000000 2182259.75000000 
0.07300    63568024.00000000 39961320.00000000 100799440.00000000 28860.95312500  2690545.00000000 2132039.50000000 
0.07400    62277056.00000000 39154140.00000000 98757704.00000000 28131.24609375  2628520.00000000 2082983.50000000 
0.07500    61013044.00000000 38364120.00000000 96759128.00000000 27421.18164062  2568010.75000000 2035125.00000000 
0.07600    59776416.00000000 37590900.00000000 94803576.00000000 26730.10937500  2508988.75000000 1988424.75000000 
0.07700    58567640.00000000 36834868.00000000 92891496.00000000 26058.33984375  2451434.50000000 1942888.62500000 
0.07800    57386120.00000000 36095864.00000000 91023192.00000000 25405.05664062  2395314.50000000 1898497.00000000 
0.07900    56231688.00000000 35373760.00000000 89196616.00000000 24769.75000000  2340608.25000000 1855238.37500000 
0.08000    55104084.00000000 34668804.00000000 87413712.00000000 24152.45507812  2287326.50000000 1813066.62500000 
0.08100    54003500.00000000 33980392.00000000 85672360.00000000 23552.31054688  2235435.50000000 1772022.00000000 
0.08200    52929296.00000000 33308920.00000000 83973520.00000000 22969.41992188  2184903.75000000 1732034.00000000 
0.08300    51881820.00000000 32653786.00000000 82316168.00000000 22402.89257812  2135700.50000000 1693115.12500000 
0.08400    50860336.00000000 32015004.00000000 80701104.00000000 21852.34179688  2087820.12500000 1655218.50000000 
0.08500    49864420.00000000 31392190.00000000 79125656.00000000 21317.58789062  2041174.87500000 1618344.12500000 
0.08600    48894004.00000000 30785382.00000000 77590752.00000000 20797.88476562  1995839.87500000 1582450.50000000 
0.08700    47948036.00000000 30194416.00000000 76095432.00000000 20292.75781250  1951684.75000000 1547532.75000000 
0.08800    47026792.00000000 29618730.00000000 74638272.00000000 19802.09570312  1908725.00000000 1513547.75000000 
0.08900    46129816.00000000 29058486.00000000 73220768.00000000 19325.13085938  1866928.75000000 1480481.62500000 
0.09000    45256316.00000000 28512924.00000000 71840296.00000000 18861.37695312  1826279.62500000 1448316.75000000 
0.09100    44406220.00000000 27981988.00000000 70496176.00000000 18410.75390625  1786702.12500000 1417018.50000000 
0.09200    43578604.00000000 27465440.00000000 69188560.00000000 17972.21679688  1748197.00000000 1386562.00000000 
0.09300    42773384.00000000 26962856.00000000 67916680.00000000 17546.02343750  1710740.62500000 1356928.62500000 
0.09400    41989468.00000000 26474092.00000000 66677916.00000000 17131.46289062  1674270.87500000 1328081.37500000 
0.09500    41226900.00000000 25998590.00000000 65473656.00000000 16727.90625000  1638763.12500000 1300002.00000000 
0.09600    40484900.00000000 25536192.00000000 64301540.00000000 16335.27441406  1604204.50000000 1272676.12500000 
0.09700    39762840.00000000 25086596.00000000 63162132.00000000 15953.03320312  1570551.50000000 1246073.25000000 
0.09800    39060672.00000000 24649040.00000000 62053332.00000000 15580.88281250  1537772.87500000 1220149.25000000 
0.09900    38377488.00000000 24223934.00000000 60975204.00000000 15218.35546875  1505855.00000000 1194900.87500000 
0.10000    37712436.00000000 23810092.00000000 59925972.00000000 14865.20703125  1474742.62500000 1170315.12500000 
0.10100    37065104.00000000 23407956.00000000 58905488.00000000 14520.96777344  1444431.37500000 1146344.12500000 
0.10200    36435380.00000000 23016738.00000000 57912308.00000000 14185.48632812  1414866.87500000 1122982.25000000 
0.10300    35822524.00000000 22636034.00000000 56945896.00000000 13858.32812500  1386048.00000000 1100193.87500000 
0.10400    35226036.00000000 22265676.00000000 56005540.00000000 13539.36621094  1357934.00000000 1077969.62500000 
0.10500    34645032.00000000 21905176.00000000 55090476.00000000 13228.10449219  1330497.75000000 1056295.00000000 
0.10600    34079036.00000000 21554338.00000000 54198924.00000000 12924.45898438  1303719.00000000 1035119.37500000 
0.10700    33527664.00000000 21212822.00000000 53330936.00000000 12628.06542969  1277579.37500000 1014458.68750000 
0.10800    32990568.00000000 20880336.00000000 52485348.00000000 12338.81445312  1252044.00000000 994277.12500000 
0.10900    32467076.00000000 20556398.00000000 51661364.00000000 12056.33203125  1227091.37500000 974557.31250000 
0.11000    31956608.00000000 20240740.00000000 50858356.00000000 11780.48730469  1202709.75000000 955283.00000000 
0.11100    31458512.00000000 19933094.00000000 50075240.00000000 11511.19140625  1178870.50000000 936436.18750000 
0.11200    30973074.00000000 19633034.00000000 49311284.00000000 11248.10351562  1155565.25000000 918009.75000000 
0.11300    30498834.00000000 19340204.00000000 48566228.00000000 10991.03417969  1132755.62500000 899975.06250000 
0.11400    30035900.00000000 19054692.00000000 47838176.00000000 10739.93945312  1110436.62500000 882330.25000000 
0.11500    29583818.00000000 18775724.00000000 47127808.00000000 10494.56054688  1088585.12500000 865056.81250000 
0.11600    29141730.00000000 18503452.00000000 46433776.00000000 10254.95507812  1067190.12500000 848135.93750000 
0.11700    28709758.00000000 18237292.00000000 45755384.00000000 10020.73730469  1046243.00000000 831566.68750000 
0.11800    28287028.00000000 17977052.00000000 45092008.00000000 9791.78906250   1025700.56250000 815316.81250000 
0.11900    27873578.00000000 17722412.00000000 44442632.00000000 9568.15234375   1005581.25000000 799398.81250000 
0.12000    27468904.00000000 17473106.00000000 43807052.00000000 9349.64355469   985852.37500000 783785.50000000 
0.12100    27072296.00000000 17229112.00000000 43184756.00000000 9136.16113281   966513.87500000 768480.25000000 
0.12200    26683684.00000000 16990180.00000000 42574808.00000000 8927.51855469   947542.93750000 753458.06250000 
0.12300    26302714.00000000 16756007.00000000 41976796.00000000 8723.69824219   928924.25000000 738726.43750000 
0.12400    25928924.00000000 16526063.00000000 41390396.00000000 8524.63378906   910662.56250000 724261.81250000 
0.12500    25562020.00000000 16300540.00000000 40814708.00000000 8330.15820312   892739.50000000 710056.00000000 
0.12600    25201972.00000000 16079180.00000000 40249636.00000000 8140.24658203   875144.81250000 696117.62500000 
0.12700    24848162.00000000 15861477.00000000 39694304.00000000 7954.75634766   857871.56250000 682428.37500000 
0.12800    24500356.00000000 15647656.00000000 39148724.00000000 7773.70117188   840910.25000000 668974.93750000 
0.12900    24158560.00000000 15437372.00000000 38612144.00000000 7596.82080078   824253.37500000 655766.75000000 
0.13000    23822048.00000000 15230370.00000000 38083836.00000000 7424.20654297   807897.43750000 642781.12500000 
0.13100    23491018.00000000 15026564.00000000 37563796.00000000 7255.64062500   791812.06250000 630018.68750000 
0.13200    23164832.00000000 14825751.00000000 37051888.00000000 7091.16699219   776024.50000000 617485.62500000 
0.13300    22843592.00000000 14627933.00000000 36547432.00000000 6930.62890625   760505.56250000 605156.56250000 
0.13400    22526950.00000000 14432701.00000000 36050164.00000000 6773.92041016   745254.43750000 593042.31250000 
0.13500    22214724.00000000 14240354.00000000 35559456.00000000 6621.07568359   730266.06250000 581131.87500000 
0.13600    21906692.00000000 14050332.00000000 35075352.00000000 6471.89306641   715536.68750000 569422.81250000 
0.13700    21602964.00000000 13862656.00000000 34597428.00000000 6326.31933594   701049.43750000 557901.12500000 
0.13800    21302934.00000000 13677334.00000000 34125728.00000000 6184.32080078   686815.00000000 546576.31250000 
0.13900    21006448.00000000 13494152.00000000 33659272.00000000 6045.74316406   672818.62500000 535434.18750000 
0.14000    20713736.00000000 13313062.00000000 33198724.00000000 5910.56884766   659058.31250000 524478.56250000 
0.14100    20424748.00000000 13133871.00000000 32743118.00000000 5778.61279297   645532.37500000 513702.56250000 
0.14200    20138492.00000000 12956651.00000000 32292632.00000000 5649.93164062   632227.06250000 503099.78125000 
0.14300    19855816.00000000 12781274.00000000 31847146.00000000 5524.33056641   619144.75000000 492673.75000000 
0.14400    19576210.00000000 12607543.00000000 31405996.00000000 5401.72656250   606271.87500000 482411.31250000 
0.14500    19299400.00000000 12435528.00000000 30969390.00000000 5282.08496094   593623.62500000 472318.81250000 
0.14600    19025518.00000000 12265096.00000000 30537078.00000000 5165.30566406   581172.12500000 462390.00000000 
0.14700    18754540.00000000 12096274.00000000 30108964.00000000 5051.25927734   568933.31250000 452621.62500000 
0.14800    18486098.00000000 11928862.00000000 29685104.00000000 4939.83740234   556888.56250000 443003.06250000 
0.14900    18220218.00000000 11763008.00000000 29264810.00000000 4831.00000000   545041.75000000 433540.12500000 
0.15000    17957048.00000000 11598399.00000000 28848258.00000000 4724.65722656   533384.06250000 424231.34375000 
0.15100    17696052.00000000 11435199.00000000 28435564.00000000 4620.76708984   521916.81250000 415070.06250000 
0.15200    17437846.00000000 11273384.00000000 28026496.00000000 4519.16650391   510637.62500000 406053.31250000 
0.15300    17181720.00000000 11112891.00000000 27620924.00000000 4419.77783203   499533.59375000 397181.56250000 
0.15400    16927934.00000000 10953605.00000000 27218750.00000000 4322.55761719   488609.34375000 388445.75000000 
0.15500    16676531.00000000 10795653.00000000 26819878.00000000 4227.41406250   477859.06250000 379848.46875000 
0.15600    16427272.00000000 10638723.00000000 26424292.00000000 4134.22851562   467278.50000000 371385.71875000 
0.15700    16180272.00000000 10483168.00000000 26032072.00000000 4043.02783203   456865.62500000 363056.53125000 
0.15800    15935309.00000000 10328668.00000000 25642996.00000000 3953.58032227   446614.84375000 354855.09375000 
0.15900    15692414.00000000 10175526.00000000 25257144.00000000 3865.94409180   436529.87500000 346786.90625000 
0.16000    15451717.00000000 10023324.00000000 24874534.00000000 3780.00708008   426597.53125000 338838.84375000 
0.16100    15213116.00000000 9872428.00000000 24494746.00000000 3695.73339844   416823.28125000 331021.25000000 
0.16200    14976468.00000000 9722586.00000000 24118128.00000000 3613.03906250   407203.03125000 323315.68750000 
0.16300    14741950.00000000 9573991.00000000 23744524.00000000 3531.82519531   397730.78125000 315739.68750000 
0.16400    14509479.00000000 9426479.00000000 23374490.00000000 3452.10791016   388406.50000000 308274.25000000 
0.16500    14279072.00000000 9280035.00000000 23006962.00000000 3373.80859375   379229.25000000 300928.90625000 
0.16600    14050694.00000000 9134913.00000000 22642944.00000000 3296.85302734   370191.68750000 293697.93750000 
0.16700    13824241.00000000 8990882.00000000 22281654.00000000 3221.22387695   361296.21875000 286573.93750000 
0.16800    13599870.00000000 8847953.00000000 21923400.00000000 3146.85742188   352537.12500000 279565.06250000 
0.16900    13377617.00000000 8706262.00000000 21568586.00000000 3073.81958008   343915.65625000 272668.56250000 
0.17000    13157321.00000000 8565709.00000000 21216620.00000000 3001.92285156   335428.78125000 265875.15625000 
