# SAXS profile: number of points = 501, q_min = 0, q_max = 0.5, delta_q = 0.001
#    q    intensity 
0.00000    162235648.00000000 101201712.00000000 256270528.00000000 107903.77343750 8368051.50000000 6609079.00000000 
0.00100    162207520.00000000 101183608.00000000 256225536.00000000 107877.46093750 8366267.00000000 6607654.50000000 
0.00200    162121696.00000000 101129512.00000000 256086784.00000000 107798.48437500 8360901.50000000 6603468.50000000 
0.00300    161977456.00000000 101039120.00000000 255856208.00000000 107668.19531250 8351998.50000000 6596423.00000000 
0.00400    161772208.00000000 100912864.00000000 255533136.00000000 107485.60156250 8339447.00000000 6586589.50000000 
0.00500    161507888.00000000 100749776.00000000 255120608.00000000 107251.68750000 8323444.50000000 6573990.50000000 
0.00600    161184848.00000000 100551832.00000000 254615328.00000000 106966.00781250 8303853.00000000 6558593.00000000 
0.00700    160803968.00000000 100317376.00000000 254018480.00000000 106629.57031250 8280761.50000000 6540468.00000000 
0.00800    160366688.00000000 100049008.00000000 253333936.00000000 106242.48437500 8254269.50000000 6519626.50000000 
0.00900    159870816.00000000 99746080.00000000 252560000.00000000 105806.21875000 8224294.00000000 6496088.50000000 
0.01000    159321088.00000000 99407480.00000000 251697648.00000000 105320.52343750 8190967.00000000 6469858.00000000 
0.01100    158715760.00000000 99035872.00000000 250747824.00000000 104786.36718750 8154303.00000000 6441063.50000000 
0.01200    158057968.00000000 98630344.00000000 249712368.00000000 104204.19531250 8114322.50000000 6409649.00000000 
0.01300    157344944.00000000 98190624.00000000 248594368.00000000 103576.02343750 8071114.00000000 6375663.00000000 
0.01400    156578064.00000000 97719000.00000000 247389904.00000000 102902.06250000 8024714.00000000 6339202.50000000 
0.01500    155758592.00000000 97215152.00000000 246106176.00000000 102183.49218750 7975240.00000000 6300305.50000000 
0.01600    154885904.00000000 96678744.00000000 244739536.00000000 101421.10937500 7922703.00000000 6258969.00000000 
0.01700    153966816.00000000 96112392.00000000 243294192.00000000 100615.75000000 7867157.50000000 6215324.50000000 
0.01800    152996928.00000000 95515344.00000000 241774304.00000000 99769.25781250  7808719.00000000 6169406.50000000 
0.01900    151980640.00000000 94889600.00000000 240177136.00000000 98883.34375000  7747469.00000000 6121227.50000000 
0.02000    150914080.00000000 94234400.00000000 238505264.00000000 97958.16406250  7683450.50000000 6070884.00000000 
0.02100    149804432.00000000 93550728.00000000 236762688.00000000 96995.69531250  7616793.50000000 6018460.00000000 
0.02200    148650240.00000000 92839368.00000000 234950464.00000000 95996.73437500  7547516.50000000 5963966.00000000 
0.02300    147452512.00000000 92102176.00000000 233070416.00000000 94963.30468750  7475770.50000000 5907596.00000000 
0.02400    146213472.00000000 91338472.00000000 231124768.00000000 93896.70312500  7401621.50000000 5849245.00000000 
0.02500    144933408.00000000 90550744.00000000 229117536.00000000 92798.06250000  7325193.00000000 5789171.50000000 
0.02600    143614224.00000000 89738384.00000000 227046752.00000000 91670.16406250  7246547.50000000 5727270.00000000 
0.02700    142258864.00000000 88902368.00000000 224917424.00000000 90513.31250000  7165788.50000000 5663788.00000000 
0.02800    140866416.00000000 88044624.00000000 222730224.00000000 89329.12500000  7083012.00000000 5598665.50000000 
0.02900    139439216.00000000 87165640.00000000 220491984.00000000 88119.66406250  6998373.00000000 5532083.00000000 
0.03000    137979920.00000000 86265736.00000000 218198752.00000000 86886.62500000  6911905.00000000 5464019.00000000 
0.03100    136489904.00000000 85346208.00000000 215857072.00000000 85631.70312500  6823737.00000000 5394683.50000000 
0.03200    134968272.00000000 84408056.00000000 213469568.00000000 84355.96875000  6733939.50000000 5324064.50000000 
0.03300    133419568.00000000 83453192.00000000 211037008.00000000 83061.85156250  6642754.00000000 5252279.00000000 
0.03400    131843920.00000000 82481416.00000000 208562768.00000000 81750.74218750  6550104.00000000 5179406.50000000 
0.03500    130244640.00000000 81494128.00000000 206048416.00000000 80423.81250000  6456239.00000000 5105519.50000000 
0.03600    128620320.00000000 80492128.00000000 203496912.00000000 79083.04687500  6361175.00000000 5030686.50000000 
0.03700    126975680.00000000 79476552.00000000 200912240.00000000 77730.23437500  6265081.00000000 4955073.50000000 
0.03800    125310520.00000000 78448736.00000000 198295376.00000000 76367.17187500  6168005.00000000 4878670.00000000 
0.03900    123627208.00000000 77408960.00000000 195649088.00000000 74995.47656250  6070153.50000000 4801598.00000000 
0.04000    121926832.00000000 76359296.00000000 192976752.00000000 73616.19531250  5971530.50000000 4723970.00000000 
0.04100    120211960.00000000 75299584.00000000 190280048.00000000 72231.14062500  5872333.50000000 4645821.50000000 
0.04200    118483912.00000000 74232280.00000000 187564880.00000000 70842.69531250  5772538.50000000 4567290.50000000 
0.04300    116743352.00000000 73157008.00000000 184827328.00000000 69451.20312500  5672368.50000000 4488399.00000000 
0.04400    114992864.00000000 72074984.00000000 182075152.00000000 68059.45312500  5571879.50000000 4409260.00000000 
0.04500    113234024.00000000 70987096.00000000 179308128.00000000 66667.56250000  5471195.50000000 4329948.00000000 
0.04600    111468688.00000000 69895376.00000000 176530832.00000000 65277.93750000  5370371.50000000 4250533.00000000 
0.04700    109697160.00000000 68799448.00000000 173744784.00000000 63891.54296875  5269543.50000000 4171075.75000000 
0.04800    107922464.00000000 67700544.00000000 170952192.00000000 62510.22265625  5168765.00000000 4091676.25000000 
0.04900    106145096.00000000 66600544.00000000 168154928.00000000 61135.07812500  5068172.00000000 4012392.50000000 
0.05000    104366976.00000000 65499484.00000000 165356544.00000000 59767.24609375  4967872.50000000 3933352.00000000 
0.05100    102589376.00000000 64398952.00000000 162560048.00000000 58408.24218750  4867888.50000000 3854550.25000000 
0.05200    100814960.00000000 63299060.00000000 159765696.00000000 57059.34765625  4768339.50000000 3776110.50000000 
0.05300    99042752.00000000 62201176.00000000 156976400.00000000 55721.44140625  4669311.00000000 3698033.00000000 
0.05400    97276944.00000000 61106372.00000000 154193792.00000000 54395.78125000  4570917.00000000 3620434.50000000 
0.05500    95516336.00000000 60014824.00000000 151421920.00000000 53083.05468750  4473179.50000000 3543375.25000000 
0.05600    93763480.00000000 58927640.00000000 148660800.00000000 51785.08203125  4376212.00000000 3466918.25000000 
0.05700    92019536.00000000 57845768.00000000 145912624.00000000 50502.42578125  4280079.50000000 3391089.00000000 
0.05800    90285768.00000000 56769720.00000000 143180608.00000000 49235.86328125  4184853.50000000 3315954.75000000 
0.05900    88562792.00000000 55700200.00000000 140466336.00000000 47986.17968750  4090544.25000000 3241562.25000000 
0.06000    86852528.00000000 54638568.00000000 137771072.00000000 46754.44140625  3997307.75000000 3167983.25000000 
0.06100    85156000.00000000 53584468.00000000 135096864.00000000 45541.51562500  3905131.00000000 3095250.25000000 
0.06200    83474064.00000000 52539472.00000000 132445384.00000000 44347.97265625  3814114.50000000 3023403.00000000 
0.06300    81808040.00000000 51503672.00000000 129817552.00000000 43174.23828125  3724271.50000000 2952503.50000000 
0.06400    80158056.00000000 50477628.00000000 127215600.00000000 42020.98046875  3635697.75000000 2882568.50000000 
0.06500    78526032.00000000 49462624.00000000 124640392.00000000 40888.84765625  3548396.25000000 2813656.50000000 
0.06600    76912152.00000000 48458288.00000000 122095144.00000000 39778.39843750  3462449.75000000 2745781.25000000 
0.06700    75317040.00000000 47465916.00000000 119579152.00000000 38689.75000000  3377857.50000000 2678981.75000000 
0.06800    73743000.00000000 46485772.00000000 117093960.00000000 37623.26562500  3294702.25000000 2613269.25000000 
0.06900    72189168.00000000 45518052.00000000 114642192.00000000 36579.58984375  3212971.25000000 2548714.75000000 
0.07000    70657056.00000000 44563664.00000000 112223216.00000000 35558.89843750  3132726.75000000 2485310.75000000 
0.07100    69146848.00000000 43622776.00000000 109838480.00000000 34561.35156250  3053961.75000000 2423072.75000000 
0.07200    67659592.00000000 42695292.00000000 107490272.00000000 33586.99218750  2976747.00000000 2362027.50000000 
0.07300    66195588.00000000 41782400.00000000 105177824.00000000 32636.09375000  2901065.00000000 2302192.25000000 
0.07400    64755328.00000000 40883712.00000000 102902576.00000000 31708.79492188  2826934.00000000 2243602.00000000 
0.07500    63339480.00000000 40000380.00000000 100665336.00000000 30804.91992188  2754373.00000000 2186241.75000000 
0.07600    61948296.00000000 39131880.00000000 98466672.00000000 29924.46289062  2683422.25000000 2130114.75000000 
0.07700    60582132.00000000 38278512.00000000 96307360.00000000 29067.62890625  2614060.25000000 2075247.25000000 
0.07800    59241456.00000000 37441032.00000000 94188112.00000000 28234.03515625  2546277.50000000 2021637.75000000 
0.07900    57926212.00000000 36619220.00000000 92108592.00000000 27423.53320312  2480101.00000000 1969261.12500000 
0.08000    56636792.00000000 35813268.00000000 90070016.00000000 26636.01367188  2415518.25000000 1918171.62500000 
0.08100    55373844.00000000 35023380.00000000 88072304.00000000 25871.55664062  2352550.75000000 1868334.12500000 
0.08200    54136772.00000000 34249672.00000000 86115520.00000000 25129.25976562  2291165.75000000 1819740.37500000 
0.08300    52925984.00000000 33491854.00000000 84199800.00000000 24409.51171875  2231350.25000000 1772387.12500000 
0.08400    51741912.00000000 32750716.00000000 82325552.00000000 23711.71679688  2173115.50000000 1726289.12500000 
0.08500    50584236.00000000 32025644.00000000 80493552.00000000 23035.46484375  2116440.00000000 1681404.50000000 
0.08600    49453076.00000000 31317058.00000000 78703192.00000000 22380.56835938  2061324.62500000 1637740.25000000 
0.08700    48347916.00000000 30624744.00000000 76953432.00000000 21746.39062500  2007722.87500000 1595279.25000000 
0.08800    47269164.00000000 29948650.00000000 75245456.00000000 21132.75000000  1955637.25000000 1554001.37500000 
0.08900    46216716.00000000 29288748.00000000 73578896.00000000 20539.02148438  1905033.12500000 1513915.25000000 
0.09000    45190200.00000000 28645132.00000000 71953056.00000000 19965.01562500  1855898.75000000 1474980.12500000 
0.09100    44189528.00000000 28017562.00000000 70367912.00000000 19410.16992188  1808208.87500000 1437180.50000000 
0.09200    43214660.00000000 27405892.00000000 68823856.00000000 18873.77929688  1761933.87500000 1400499.37500000 
0.09300    42264972.00000000 26810038.00000000 67318680.00000000 18355.81640625  1717057.75000000 1364909.00000000 
0.09400    41340676.00000000 26229674.00000000 65853984.00000000 17855.31640625  1673545.62500000 1330399.37500000 
0.09500    40441024.00000000 25664844.00000000 64427976.00000000 17371.98437500  1631352.37500000 1296935.37500000 
0.09600    39565992.00000000 25115236.00000000 63040960.00000000 16905.25976562  1590468.62500000 1264528.37500000 
0.09700    38715176.00000000 24580736.00000000 61692380.00000000 16454.76367188  1550870.75000000 1233106.37500000 
0.09800    37888120.00000000 24061172.00000000 60381404.00000000 16019.73339844  1512510.00000000 1202673.87500000 
0.09900    37084844.00000000 23556130.00000000 59107128.00000000 15599.90332031  1475366.62500000 1173192.25000000 
0.10000    36303820.00000000 23065446.00000000 57869084.00000000 15194.42285156  1439390.37500000 1144651.87500000 
0.10100    35545796.00000000 22588912.00000000 56667096.00000000 14802.97949219  1404564.50000000 1117004.75000000 
0.10200    34809964.00000000 22126376.00000000 55499932.00000000 14425.09472656  1370854.12500000 1090246.50000000 
0.10300    34096040.00000000 21677308.00000000 54367628.00000000 14060.19238281  1338206.25000000 1064330.37500000 
0.10400    33402618.00000000 21241546.00000000 53268544.00000000 13707.75683594  1306610.50000000 1039238.68750000 
0.10500    32730654.00000000 20819210.00000000 52202544.00000000 13367.26171875  1276022.87500000 1014953.43750000 
0.10600    32078760.00000000 20408990.00000000 51168452.00000000 13038.11328125  1246407.12500000 991431.68750000 
0.10700    31446648.00000000 20011626.00000000 50165800.00000000 12720.04101562  1217725.62500000 968659.93750000 
0.10800    30833898.00000000 19626350.00000000 49194176.00000000 12412.35839844  1189960.62500000 946606.00000000 
0.10900    30239814.00000000 19252646.00000000 48251748.00000000 12114.75781250  1163058.75000000 925239.00000000 
0.11000    29664120.00000000 18890640.00000000 47338464.00000000 11826.77246094  1137008.37500000 904546.06250000 
0.11100    29106092.00000000 18539630.00000000 46453396.00000000 11547.78613281  1111761.62500000 884477.18750000 
0.11200    28565160.00000000 18199746.00000000 45595668.00000000 11277.50878906  1087277.87500000 865036.25000000 
0.11300    28040918.00000000 17870250.00000000 44764332.00000000 11015.49804688  1063542.50000000 846170.06250000 
0.11400    27532866.00000000 17550970.00000000 43958556.00000000 10761.36425781  1040520.12500000 827873.75000000 
0.11500    27040474.00000000 17241726.00000000 43177960.00000000 10514.70410156  1018173.31250000 810116.25000000 
0.11600    26563262.00000000 16941786.00000000 42421084.00000000 10275.14160156  996471.06250000 792877.18750000 
0.11700    26100476.00000000 16651214.00000000 41687752.00000000 10042.34179688  975399.37500000 776129.00000000 
0.11800    25651750.00000000 16369479.00000000 40976776.00000000 9815.87890625   954910.12500000 759845.43750000 
0.11900    25216592.00000000 16096420.00000000 40286824.00000000 9595.58496094   934992.81250000 744006.12500000 
0.12000    24794460.00000000 15831401.00000000 39618180.00000000 9380.86035156   915604.31250000 728600.37500000 
0.12100    24384878.00000000 15574546.00000000 38969304.00000000 9171.75488281   896732.75000000 713602.06250000 
0.12200    23987380.00000000 15325448.00000000 38339804.00000000 8967.76660156   878346.25000000 698980.56250000 
0.12300    23601348.00000000 15083556.00000000 37728460.00000000 8768.76269531   860418.18750000 684730.06250000 
0.12400    23226384.00000000 14848590.00000000 37134648.00000000 8574.35253906   842934.06250000 670824.75000000 
0.12500    22862060.00000000 14620524.00000000 36557968.00000000 8384.38867188   825860.37500000 657251.37500000 
0.12600    22507992.00000000 14398865.00000000 35997704.00000000 8198.64550781   809178.12500000 643992.37500000 
0.12700    22163276.00000000 14183350.00000000 35452488.00000000 8017.01562500   792881.37500000 631029.50000000 
0.12800    21827972.00000000 13973739.00000000 34922172.00000000 7839.06738281   776931.31250000 618346.56250000 
0.12900    21501612.00000000 13769800.00000000 34406056.00000000 7664.84082031   761317.50000000 605931.75000000 
0.13000    21183448.00000000 13571096.00000000 33903272.00000000 7494.12890625   746025.56250000 593766.12500000 
0.13100    20873322.00000000 13377608.00000000 33413062.00000000 7326.72705078   731033.68750000 581842.87500000 
0.13200    20570998.00000000 13188837.00000000 32935006.00000000 7162.50781250   716326.81250000 570147.06250000 
0.13300    20275702.00000000 13004746.00000000 32468512.00000000 7001.43212891   701898.12500000 558667.62500000 
0.13400    19987186.00000000 12825048.00000000 32013138.00000000 6843.30761719   687727.06250000 547393.12500000 
0.13500    19705204.00000000 12649310.00000000 31567912.00000000 6688.02832031   673795.25000000 536307.25000000 
0.13600    19429498.00000000 12477651.00000000 31132476.00000000 6535.59570312   660101.50000000 525414.43750000 
0.13700    19159514.00000000 12309610.00000000 30706266.00000000 6385.82519531   646632.43750000 514689.59375000 
0.13800    18895012.00000000 12145087.00000000 30288904.00000000 6238.71142578   633372.56250000 504137.46875000 
0.13900    18635670.00000000 11983866.00000000 29880004.00000000 6094.17431641   620322.93750000 493744.71875000 
0.14000    18381360.00000000 11825718.00000000 29478580.00000000 5952.17089844   607463.75000000 483507.37500000 
0.14100    18131684.00000000 11670522.00000000 29084774.00000000 5812.66064453   594795.31250000 473418.21875000 
0.14200    17886222.00000000 11517980.00000000 28697602.00000000 5675.64111328   582302.68750000 463468.71875000 
0.14300    17644938.00000000 11368181.00000000 28317174.00000000 5540.95214844   569985.87500000 453657.46875000 
0.14400    17407562.00000000 11220770.00000000 27942874.00000000 5408.65332031   557836.81250000 443978.68750000 
0.14500    17173678.00000000 11075524.00000000 27574318.00000000 5278.72167969   545853.37500000 434427.90625000 
0.14600    16943516.00000000 10932628.00000000 27211222.00000000 5151.20605469   534030.87500000 425003.46875000 
0.14700    16716392.00000000 10791569.00000000 26853268.00000000 5025.99267578   522365.40625000 415703.78125000 
0.14800    16492385.00000000 10652524.00000000 26499984.00000000 4903.09570312   510846.28125000 406518.00000000 
0.14900    16271099.00000000 10515132.00000000 26151236.00000000 4782.50390625   499478.96875000 397450.65625000 
0.15000    16052727.00000000 10379537.00000000 25806898.00000000 4664.24804688   488262.62500000 388503.96875000 
0.15100    15836778.00000000 10245343.00000000 25466250.00000000 4548.30615234   477190.31250000 379666.00000000 
0.15200    15623393.00000000 10112676.00000000 25129618.00000000 4434.72607422   466262.56250000 370946.21875000 
0.15300    15412243.00000000 9981443.00000000 24796650.00000000 4323.45703125   455479.65625000 362333.75000000 
0.15400    15203168.00000000 9851427.00000000 24466750.00000000 4214.50390625   444839.09375000 353836.37500000 
0.15500    14996258.00000000 9722738.00000000 24139978.00000000 4107.87792969   434341.87500000 345452.34375000 
0.15600    14791126.00000000 9595087.00000000 23816332.00000000 4003.55590820   423985.93750000 337176.90625000 
0.15700    14587995.00000000 9468592.00000000 23495780.00000000 3901.61914062   413775.93750000 329017.31250000 
0.15800    14386528.00000000 9343041.00000000 23177628.00000000 3801.94750977   403708.12500000 320965.65625000 
0.15900    14186891.00000000 9218501.00000000 22861998.00000000 3704.64819336   393785.25000000 313029.25000000 
0.16000    13988810.00000000 9094830.00000000 22548932.00000000 3609.69628906   384005.81250000 305207.40625000 
0.16100    13792413.00000000 8972191.00000000 22238242.00000000 3517.07006836   374373.09375000 297502.37500000 
0.16200    13597528.00000000 8850336.00000000 21930132.00000000 3426.75219727   364888.78125000 289910.28125000 
0.16300    13404081.00000000 8729315.00000000 21623844.00000000 3338.77880859   355554.25000000 282436.43750000 
0.16400    13212111.00000000 8609169.00000000 21320100.00000000 3253.11889648   346368.75000000 275078.12500000 
0.16500    13021501.00000000 8489704.00000000 21018282.00000000 3169.73901367   337334.06250000 267840.59375000 
0.16600    12832482.00000000 8371050.00000000 20718478.00000000 3088.67065430   328450.50000000 260723.71875000 
0.16700    12644649.00000000 8253133.50000000 20420578.00000000 3009.87524414   319721.87500000 253725.75000000 
0.16800    12458314.00000000 8135961.50000000 20125116.00000000 2933.30834961   311144.56250000 246849.95312500 
0.16900    12273348.00000000 8019546.50000000 19831572.00000000 2859.03222656   302730.18750000 240098.43750000 
0.17000    12089713.00000000 7903812.50000000 19539912.00000000 2786.95825195   294469.56250000 233471.45312500 
