# SAXS profile: number of points = 501, q_min = 0, q_max = 0.5, delta_q = 0.001
#    q    intensity 
0.00000    162238608.00000000 101201416.00000000 256272512.00000000 95743.80468750  7882482.50000000 6225568.50000000 
0.00100    162214960.00000000 101187128.00000000 256235072.00000000 95725.38281250  7881146.50000000 6224511.00000000 
0.00200    162144896.00000000 101143096.00000000 256122592.00000000 95670.98437500  7877161.50000000 6221376.00000000 
0.00300    162026192.00000000 101069896.00000000 255936464.00000000 95579.67187500  7870511.50000000 6216155.50000000 
0.00400    161860480.00000000 100967728.00000000 255675984.00000000 95452.35156250  7861236.00000000 6208846.50000000 
0.00500    161647136.00000000 100836152.00000000 255341600.00000000 95289.49218750  7849288.00000000 6199468.50000000 
0.00600    161386944.00000000 100675640.00000000 254931328.00000000 95090.05468750  7834700.50000000 6188034.00000000 
0.00700    161079952.00000000 100486152.00000000 254450544.00000000 94855.00781250  7817536.50000000 6174506.50000000 
0.00800    160725584.00000000 100268168.00000000 253894496.00000000 94584.03906250  7797727.00000000 6158955.00000000 
0.00900    160326528.00000000 100021416.00000000 253265760.00000000 94278.68750000  7775368.50000000 6141395.50000000 
0.01000    159880608.00000000 99746792.00000000 252566448.00000000 93938.01562500  7750431.50000000 6121798.00000000 
0.01100    159388320.00000000 99443880.00000000 251794336.00000000 93563.01562500  7722985.00000000 6100210.50000000 
0.01200    158851136.00000000 99113120.00000000 250952944.00000000 93153.58593750  7692996.50000000 6076646.00000000 
0.01300    158270352.00000000 98755296.00000000 250040736.00000000 92710.74218750  7660571.00000000 6051147.00000000 
0.01400    157646032.00000000 98369952.00000000 249058560.00000000 92234.46875000  7625668.50000000 6023726.00000000 
0.01500    156977440.00000000 97957784.00000000 248009584.00000000 91725.71093750  7588343.00000000 5994391.50000000 
0.01600    156266112.00000000 97518360.00000000 246891024.00000000 91184.58593750  7548635.50000000 5963182.00000000 
0.01700    155511616.00000000 97053464.00000000 245706448.00000000 90611.85156250  7506590.00000000 5930116.50000000 
0.01800    154715904.00000000 96562480.00000000 244456176.00000000 90008.24218750  7462251.50000000 5895269.00000000 
0.01900    153878496.00000000 96046544.00000000 243141936.00000000 89374.44531250  7415639.50000000 5858614.50000000 
0.02000    153001232.00000000 95505096.00000000 241763360.00000000 88710.48437500  7366809.00000000 5820234.00000000 
0.02100    152084576.00000000 94939080.00000000 240323456.00000000 88017.34375000  7315797.50000000 5780145.50000000 
0.02200    151128976.00000000 94349968.00000000 238820944.00000000 87296.10937500  7262662.00000000 5738369.50000000 
0.02300    150134160.00000000 93736576.00000000 237259648.00000000 86547.76562500  7207465.00000000 5694950.00000000 
0.02400    149103504.00000000 93100344.00000000 235640080.00000000 85771.96093750  7150234.50000000 5649961.00000000 
0.02500    148035440.00000000 92441272.00000000 233962720.00000000 84970.10937500  7091002.00000000 5603409.00000000 
0.02600    146931888.00000000 91760736.00000000 232228928.00000000 84143.08593750  7029863.00000000 5555324.50000000 
0.02700    145794240.00000000 91058352.00000000 230441200.00000000 83291.65625000  6966873.00000000 5505806.00000000 
0.02800    144623312.00000000 90335392.00000000 228600672.00000000 82416.78906250  6902065.00000000 5454837.00000000 
0.02900    143418560.00000000 89592208.00000000 226708128.00000000 81519.05468750  6835522.00000000 5402511.00000000 
0.03000    142181808.00000000 88829200.00000000 224765664.00000000 80599.75000000  6767275.50000000 5348858.50000000 
0.03100    140915600.00000000 88047344.00000000 222775248.00000000 79659.46875000  6697408.50000000 5293909.00000000 
0.03200    139618480.00000000 87246776.00000000 220737904.00000000 78699.34375000  6625982.50000000 5237710.00000000 
0.03300    138293440.00000000 86429064.00000000 218654480.00000000 77720.31250000  6553054.00000000 5180378.50000000 
0.03400    136940336.00000000 85593144.00000000 216527744.00000000 76722.78906250  6478691.00000000 5121835.00000000 
0.03500    135561184.00000000 84741184.00000000 214360544.00000000 75708.11718750  6402929.50000000 5062259.50000000 
0.03600    134155496.00000000 83873744.00000000 212150704.00000000 74677.83593750  6325861.50000000 5001628.50000000 
0.03700    132726256.00000000 82990736.00000000 209905104.00000000 73631.96875000  6247551.00000000 4940058.00000000 
0.03800    131273168.00000000 82093528.00000000 207620896.00000000 72571.53906250  6168080.00000000 4877513.00000000 
0.03900    129798480.00000000 81182688.00000000 205302016.00000000 71498.64843750  6087511.00000000 4814134.00000000 
0.04000    128302376.00000000 80258064.00000000 202951152.00000000 70413.03125000  6005888.00000000 4749910.00000000 
0.04100    126786648.00000000 79321088.00000000 200567520.00000000 69316.43750000  5923291.00000000 4684899.50000000 
0.04200    125251896.00000000 78372976.00000000 198154608.00000000 68209.81250000  5839805.00000000 4619194.00000000 
0.04300    123699240.00000000 77413768.00000000 195713920.00000000 67093.61718750  5755462.50000000 4552830.00000000 
0.04400    122130672.00000000 76443936.00000000 193246608.00000000 65969.10937500  5670384.00000000 4485868.00000000 
0.04500    120546520.00000000 75464776.00000000 190756352.00000000 64837.69140625  5584598.00000000 4418335.50000000 
0.04600    118948432.00000000 74476872.00000000 188242816.00000000 63699.60546875  5498173.00000000 4350312.50000000 
0.04700    117337392.00000000 73481016.00000000 185709232.00000000 62556.51953125  5411189.00000000 4281862.00000000 
0.04800    115714584.00000000 72476816.00000000 183156752.00000000 61408.95312500  5323726.50000000 4212984.00000000 
0.04900    114080872.00000000 71466744.00000000 180587184.00000000 60258.40234375  5235845.00000000 4143781.00000000 
0.05000    112437912.00000000 70450416.00000000 178002080.00000000 59105.10156250  5147595.00000000 4074290.00000000 
0.05100    110786096.00000000 69428704.00000000 175404400.00000000 57950.59375000  5059073.50000000 4004586.25000000 
0.05200    109127704.00000000 68402720.00000000 172794944.00000000 56795.38281250  4970305.00000000 3934673.75000000 
0.05300    107463256.00000000 67372624.00000000 170176080.00000000 55640.72656250  4881414.00000000 3864665.25000000 
0.05400    105793704.00000000 66339188.00000000 167548896.00000000 54487.19140625  4792419.50000000 3794551.50000000 
0.05500    104119560.00000000 65303380.00000000 164915472.00000000 53335.99218750  4703390.00000000 3724423.50000000 
0.05600    102444144.00000000 64265428.00000000 162277520.00000000 52187.98437500  4614394.00000000 3654313.75000000 
0.05700    100766408.00000000 63226792.00000000 159636928.00000000 51043.94921875  4525509.00000000 3584269.75000000 
0.05800    99087736.00000000 62187484.00000000 156994400.00000000 49904.60937500  4436785.00000000 3514353.25000000 
0.05900    97410016.00000000 61148076.00000000 154354720.00000000 48770.70312500  4348267.00000000 3444592.50000000 
0.06000    95733584.00000000 60109568.00000000 151715616.00000000 47643.45703125  4260047.00000000 3375066.75000000 
0.06100    94060000.00000000 59072448.00000000 149080608.00000000 46523.20703125  4172141.50000000 3305788.25000000 
0.06200    92390096.00000000 58037560.00000000 146451424.00000000 45410.97265625  4084644.75000000 3236811.00000000 
0.06300    90724720.00000000 57005272.00000000 143828512.00000000 44307.44531250  3997610.50000000 3168178.75000000 
0.06400    89065072.00000000 55976288.00000000 141214912.00000000 43213.19140625  3911047.25000000 3099945.25000000 
0.06500    87411992.00000000 54951160.00000000 138610960.00000000 42129.23046875  3825081.25000000 3032138.00000000 
0.06600    85766000.00000000 53930612.00000000 136018544.00000000 41055.90234375  3739697.25000000 2964807.25000000 
0.06700    84128944.00000000 52914872.00000000 133439456.00000000 39993.91796875  3654978.25000000 2897967.50000000 
0.06800    82500592.00000000 51904860.00000000 130874672.00000000 38943.87109375  3570955.50000000 2831699.50000000 
0.06900    80883336.00000000 50900824.00000000 128325832.00000000 37906.43750000  3487684.75000000 2765999.50000000 
0.07000    79276320.00000000 49903596.00000000 125793832.00000000 36882.17187500  3405223.75000000 2700929.50000000 
0.07100    77681400.00000000 48913188.00000000 123280912.00000000 35871.54687500  3323594.25000000 2636518.25000000 
0.07200    76099344.00000000 47930900.00000000 120787216.00000000 34875.43359375  3242840.50000000 2572779.00000000 
0.07300    74530864.00000000 46956436.00000000 118314160.00000000 33893.46093750  3163027.25000000 2509768.75000000 
0.07400    72976352.00000000 45990692.00000000 115863512.00000000 32926.89453125  3084161.25000000 2447516.75000000 
0.07500    71436392.00000000 45033924.00000000 113435640.00000000 31975.65820312  3006289.25000000 2386013.00000000 
0.07600    69912256.00000000 44086632.00000000 111032600.00000000 31040.31445312  2929437.75000000 2325330.00000000 
0.07700    68404544.00000000 43149116.00000000 108654760.00000000 30121.62500000  2853658.00000000 2265480.25000000 
0.07800    66913936.00000000 42222112.00000000 106303128.00000000 29219.25585938  2778968.75000000 2206483.75000000 
0.07900    65439980.00000000 41305580.00000000 103978840.00000000 28333.93945312  2705411.00000000 2148362.50000000 
0.08000    63984584.00000000 40400128.00000000 101682640.00000000 27465.82421875  2632980.25000000 2091155.00000000 
0.08100    62548032.00000000 39506100.00000000 99416112.00000000 26615.17773438  2561746.25000000 2034844.00000000 
0.08200    61130332.00000000 38623612.00000000 97179208.00000000 25782.27539062  2491703.50000000 1979474.87500000 
0.08300    59732548.00000000 37753160.00000000 94972912.00000000 24967.17382812  2422878.75000000 1925074.00000000 
0.08400    58354616.00000000 36895048.00000000 92797720.00000000 24170.21093750  2355295.00000000 1871631.87500000 
0.08500    56997336.00000000 36049700.00000000 90655680.00000000 23391.49804688  2288968.50000000 1819174.62500000 
0.08600    55661076.00000000 35216896.00000000 88545536.00000000 22631.21289062  2223923.25000000 1767727.62500000 
0.08700    54346396.00000000 34397404.00000000 86469152.00000000 21889.13085938  2160153.25000000 1717285.87500000 
0.08800    53052944.00000000 33590832.00000000 84426408.00000000 21165.70312500  2097689.25000000 1667857.62500000 
0.08900    51781636.00000000 32797964.00000000 82418368.00000000 20460.71289062  2036539.37500000 1619468.37500000 
0.09000    50532820.00000000 32018900.00000000 80445088.00000000 19774.49804688  1976700.37500000 1572110.37500000 
0.09100    49306492.00000000 31253500.00000000 78507336.00000000 19106.68945312  1918203.37500000 1525789.37500000 
0.09200    48102792.00000000 30502062.00000000 76605552.00000000 18457.27734375  1861030.62500000 1480526.37500000 
0.09300    46922244.00000000 29764820.00000000 74739520.00000000 17826.55859375  1805209.37500000 1436311.62500000 
0.09400    45764508.00000000 29041786.00000000 72909712.00000000 17214.02734375  1750705.37500000 1393140.75000000 
0.09500    44630300.00000000 28333086.00000000 71115976.00000000 16619.83789062  1697566.87500000 1351041.00000000 
0.09600    43519552.00000000 27638694.00000000 69359536.00000000 16043.86523438  1645753.25000000 1309969.87500000 
0.09700    42432520.00000000 26958860.00000000 67640528.00000000 15485.93847656  1595286.25000000 1269969.62500000 
0.09800    41368968.00000000 26293602.00000000 65957716.00000000 14945.85546875  1546142.12500000 1231012.25000000 
0.09900    40328952.00000000 25642986.00000000 64312568.00000000 14423.49902344  1498348.50000000 1193102.50000000 
0.10000    39312816.00000000 25006766.00000000 62703892.00000000 13918.65820312  1451862.00000000 1156229.87500000 
0.10100    38320128.00000000 24385192.00000000 61133048.00000000 13431.04101562  1406683.37500000 1120397.12500000 
0.10200    37351040.00000000 23778176.00000000 59599024.00000000 12960.49023438  1362820.62500000 1085583.37500000 
0.10300    36405500.00000000 23185700.00000000 58102108.00000000 12506.74414062  1320254.25000000 1051798.87500000 
0.10400    35483616.00000000 22607806.00000000 56641764.00000000 12069.50195312  1278961.37500000 1019017.68750000 
0.10500    34585008.00000000 22044272.00000000 55218484.00000000 11648.65625000  1238957.00000000 987241.31250000 
0.10600    33709792.00000000 21495060.00000000 53831836.00000000 11243.61132812  1200185.25000000 956444.00000000 
0.10700    32857474.00000000 20960092.00000000 52481560.00000000 10854.29492188  1162664.37500000 926632.06250000 
0.10800    32028242.00000000 20439424.00000000 51166884.00000000 10480.37109375  1126361.37500000 897780.75000000 
0.10900    31221692.00000000 19932864.00000000 49888584.00000000 10121.46679688  1091262.37500000 869883.18750000 
0.11000    30437712.00000000 19440300.00000000 48645432.00000000 9777.26660156   1057357.75000000 842922.06250000 
0.11100    29676140.00000000 18961402.00000000 47437488.00000000 9447.40820312   1024613.43750000 816877.56250000 
0.11200    28936614.00000000 18496262.00000000 46264540.00000000 9131.59375000   993029.75000000 791741.00000000 
0.11300    28218746.00000000 18044592.00000000 45125636.00000000 8829.36132812   962561.43750000 767499.62500000 
0.11400    27522806.00000000 17606356.00000000 44020932.00000000 8540.45214844   933206.00000000 744128.31250000 
0.11500    26847952.00000000 17181426.00000000 42949396.00000000 8264.48242188   904931.12500000 721613.81250000 
0.11600    26193830.00000000 16769356.00000000 41911376.00000000 8000.94482422   877719.81250000 699931.50000000 
0.11700    25560750.00000000 16370199.00000000 40905916.00000000 7749.66162109   851544.81250000 679073.75000000 
0.11800    24947594.00000000 15983556.00000000 39931896.00000000 7510.04150391   826371.62500000 659013.43750000 
0.11900    24354458.00000000 15609276.00000000 38989468.00000000 7281.85644531   802198.06250000 639741.75000000 
0.12000    23781056.00000000 15247331.00000000 38078120.00000000 7064.61621094   778983.06250000 621221.81250000 
0.12100    23226898.00000000 14897309.00000000 37197336.00000000 6858.05175781   756703.56250000 603451.81250000 
0.12200    22691550.00000000 14558951.00000000 36346012.00000000 6661.68310547   735344.12500000 586397.56250000 
0.12300    22174778.00000000 14232220.00000000 35523836.00000000 6475.10986328   714865.50000000 570052.62500000 
0.12400    21675834.00000000 13916629.00000000 34730236.00000000 6297.99804688   695251.62500000 554384.62500000 
0.12500    21194672.00000000 13612146.00000000 33964772.00000000 6129.88720703   676465.50000000 539378.50000000 
0.12600    20730648.00000000 13318400.00000000 33226374.00000000 5970.55957031   658493.43750000 525012.12500000 
0.12700    20283696.00000000 13035165.00000000 32514396.00000000 5819.41308594   641299.12500000 511264.96875000 
0.12800    19852994.00000000 12762153.00000000 31828606.00000000 5676.20947266   624858.50000000 498115.12500000 
0.12900    19438428.00000000 12499197.00000000 31168162.00000000 5540.61572266   609148.12500000 485547.87500000 
0.13000    19039334.00000000 12245947.00000000 30532148.00000000 5412.15185547   594137.43750000 473535.96875000 
0.13100    18655192.00000000 12002155.00000000 29919950.00000000 5290.47900391   579802.68750000 462058.28125000 
0.13200    18285968.00000000 11767483.00000000 29331188.00000000 5175.29492188   566110.25000000 451096.12500000 
0.13300    17930932.00000000 11541846.00000000 28765014.00000000 5066.25732422   553049.25000000 440629.90625000 
0.13400    17589714.00000000 11324787.00000000 28220648.00000000 4962.95214844   540581.68750000 430637.56250000 
0.13500    17261770.00000000 11116136.00000000 27697354.00000000 4865.08349609   528684.75000000 421098.50000000 
0.13600    16946692.00000000 10915509.00000000 27194612.00000000 4772.34423828   517332.71875000 411994.56250000 
0.13700    16644291.00000000 10722926.00000000 26711516.00000000 4684.36328125   506503.62500000 403308.40625000 
0.13800    16353725.00000000 10537750.00000000 26247668.00000000 4600.87792969   496169.06250000 395014.28125000 
0.13900    16074890.00000000 10359920.00000000 25802336.00000000 4521.61376953   486307.56250000 387097.06250000 
0.14000    15807154.00000000 10189163.00000000 25374632.00000000 4446.20068359   476891.50000000 379539.18750000 
0.14100    15550233.00000000 10025162.00000000 24963910.00000000 4374.43505859   467904.12500000 372319.28125000 
0.14200    15303530.00000000 9867600.00000000 24569476.00000000 4305.98193359   459316.40625000 365420.65625000 
0.14300    15066828.00000000 9716347.00000000 24191056.00000000 4240.58544922   451106.50000000 358824.15625000 
0.14400    14839465.00000000 9571021.00000000 23827364.00000000 4178.02490234   443255.75000000 352512.84375000 
0.14500    14621263.00000000 9431419.00000000 23478314.00000000 4118.00683594   435740.12500000 346470.56250000 
0.14600    14411687.00000000 9297385.00000000 23142852.00000000 4060.36694336   428540.31250000 340683.15625000 
0.14700    14210339.00000000 9168569.00000000 22821026.00000000 4004.87377930   421635.96875000 335131.68750000 
0.14800    14016893.00000000 9044654.00000000 22511054.00000000 3951.25805664   415003.06250000 329798.65625000 
0.14900    13830828.00000000 8925481.00000000 22213162.00000000 3899.33447266   408627.62500000 324670.09375000 
0.15000    13651821.00000000 8810809.00000000 21926836.00000000 3848.94555664   402490.50000000 319734.50000000 
0.15100    13479693.00000000 8700443.00000000 21650924.00000000 3799.86962891   396573.81250000 314975.06250000 
0.15200    13313837.00000000 8594153.00000000 21385288.00000000 3752.00634766   390860.59375000 310381.18750000 
0.15300    13154026.00000000 8491660.00000000 21129178.00000000 3705.10327148   385330.18750000 305935.87500000 
0.15400    12999723.00000000 8392717.00000000 20882030.00000000 3659.07861328   379969.62500000 301625.15625000 
0.15500    12850865.00000000 8297233.50000000 20643482.00000000 3613.75000000   374766.18750000 297441.21875000 
0.15600    12706783.00000000 8204818.50000000 20412772.00000000 3568.98144531   369698.00000000 293370.15625000 
0.15700    12567590.00000000 8115536.50000000 20189832.00000000 3524.73706055   364761.65625000 289402.93750000 
0.15800    12432612.00000000 8028927.00000000 19973504.00000000 3480.78662109   359932.87500000 285524.59375000 
0.15900    12301755.00000000 7944986.00000000 19763688.00000000 3437.11767578   355208.81250000 281730.53125000 
0.16000    12174545.00000000 7863380.00000000 19559974.00000000 3393.59936523   350570.78125000 278006.21875000 
0.16100    12050934.00000000 7784125.50000000 19361894.00000000 3350.16625977   346010.59375000 274347.65625000 
0.16200    11930443.00000000 7706834.50000000 19168914.00000000 3306.72729492   341515.62500000 270741.93750000 
0.16300    11812959.00000000 7631500.00000000 18980692.00000000 3263.22778320   337080.03125000 267183.87500000 
0.16400    11698071.00000000 7557910.00000000 18796768.00000000 3219.62597656   332689.34375000 263665.50000000 
0.16500    11585661.00000000 7485912.00000000 18616710.00000000 3175.83984375   328338.37500000 260179.78125000 
0.16600    11475519.00000000 7415361.50000000 18440424.00000000 3131.87402344   324018.87500000 256718.10937500 
0.16700    11367342.00000000 7346071.50000000 18267212.00000000 3087.66040039   319720.40625000 253276.01562500 
0.16800    11260908.00000000 7277925.00000000 18096734.00000000 3043.13891602   315436.40625000 249846.79687500 
0.16900    11156090.00000000 7210929.50000000 17929182.00000000 2998.39013672   311167.93750000 246429.26562500 
0.17000    11052656.00000000 7144774.50000000 17763744.00000000 2953.31884766   306899.21875000 243014.96875000 
