# SAXS profile: number of points = 501, q_min = 0, q_max = 0.5, delta_q = 0.001
#    q    intensity 
0.00000    162232656.00000000 101202016.00000000 256269792.00000000 104737.59375000 8244363.50000000 6511367.50000000 
0.00100    162196208.00000000 101176584.00000000 256207344.00000000 104704.07031250 8242045.50000000 6509530.00000000 
0.00200    162082192.00000000 101102856.00000000 256018880.00000000 104604.46875000 8235043.00000000 6504055.50000000 
0.00300    161885008.00000000 100979360.00000000 255705136.00000000 104439.04687500 8223454.50000000 6494903.50000000 
0.00400    161603296.00000000 100806400.00000000 255265472.00000000 104208.14062500 8207129.00000000 6482090.50000000 
0.00500    161243216.00000000 100584888.00000000 254702048.00000000 103911.50000000 8186312.00000000 6465695.50000000 
0.00600    160804912.00000000 100313040.00000000 254012928.00000000 103550.64843750 8160892.00000000 6445712.00000000 
0.00700    160286752.00000000 99995256.00000000 253204464.00000000 103126.60937500 8131042.50000000 6422174.50000000 
0.00800    159692896.00000000 99630568.00000000 252274384.00000000 102639.89062500 8096719.00000000 6395202.50000000 
0.00900    159027088.00000000 99218560.00000000 251226560.00000000 102091.06250000 8058068.50000000 6364733.00000000 
0.01000    158288112.00000000 98761360.00000000 250060336.00000000 101481.88281250 8015127.00000000 6330942.50000000 
0.01100    157476048.00000000 98257392.00000000 248781040.00000000 100814.59375000 7967972.00000000 6293828.50000000 
0.01200    156589552.00000000 97709880.00000000 247387856.00000000 100089.65625000 7916757.50000000 6253520.50000000 
0.01300    155632400.00000000 97118536.00000000 245885440.00000000 99308.18750000  7861543.50000000 6210050.00000000 
0.01400    154608640.00000000 96485624.00000000 244275280.00000000 98473.55468750  7802430.50000000 6163558.00000000 
0.01500    153521072.00000000 95812432.00000000 242562224.00000000 97586.70312500  7739573.50000000 6114071.00000000 
0.01600    152366080.00000000 95099112.00000000 240747408.00000000 96649.22656250  7673090.50000000 6061710.50000000 
0.01700    151150560.00000000 94346152.00000000 238833664.00000000 95664.38281250  7603146.50000000 6006634.50000000 
0.01800    149874416.00000000 93557232.00000000 236826096.00000000 94632.63281250  7529761.00000000 5948879.00000000 
0.01900    148539408.00000000 92732560.00000000 234727152.00000000 93557.97656250  7453261.50000000 5888586.50000000 
0.02000    147150368.00000000 91872344.00000000 232541712.00000000 92440.59375000  7373599.00000000 5825916.00000000 
0.02100    145705472.00000000 90979984.00000000 230271104.00000000 91285.47656250  7291056.00000000 5760893.00000000 
0.02200    144212928.00000000 90055800.00000000 227920752.00000000 90092.64062500  7205786.50000000 5693716.50000000 
0.02300    142671920.00000000 89101208.00000000 225496656.00000000 88865.50781250  7117835.00000000 5624493.50000000 
0.02400    141084256.00000000 88119024.00000000 222998224.00000000 87607.29687500  7027539.50000000 5553326.50000000 
0.02500    139454384.00000000 87109272.00000000 220432784.00000000 86319.08593750  6934908.00000000 5480378.00000000 
0.02600    137783664.00000000 86074552.00000000 217804416.00000000 85004.27343750  6840181.50000000 5405794.00000000 
0.02700    136076016.00000000 85017176.00000000 215115584.00000000 83665.33593750  6743538.00000000 5329683.00000000 
0.02800    134332864.00000000 83937680.00000000 212372528.00000000 82304.53125000  6645120.00000000 5252099.00000000 
0.02900    132559640.00000000 82838392.00000000 209578592.00000000 80924.92187500  6545185.50000000 5173368.00000000 
0.03000    130755768.00000000 81720608.00000000 206738160.00000000 79528.07812500  6443750.50000000 5093418.00000000 
0.03100    128925136.00000000 80585528.00000000 203856304.00000000 78117.84375000  6341062.00000000 5012483.50000000 
0.03200    127071432.00000000 79435648.00000000 200936064.00000000 76695.71875000  6237311.00000000 4930706.50000000 
0.03300    125196040.00000000 78273288.00000000 197984272.00000000 75264.13281250  6132627.50000000 4848253.00000000 
0.03400    123302440.00000000 77099248.00000000 195002464.00000000 73826.41406250  6027256.00000000 4765162.00000000 
0.03500    121394008.00000000 75915352.00000000 191994880.00000000 72384.10156250  5921200.50000000 4681570.50000000 
0.03600    119471904.00000000 74723504.00000000 188966960.00000000 70940.11718750  5814830.50000000 4597733.50000000 
0.03700    117540576.00000000 73524064.00000000 185923520.00000000 69495.98437500  5708143.00000000 4513575.50000000 
0.03800    115601672.00000000 72320240.00000000 182866592.00000000 68053.91406250  5601286.00000000 4429323.00000000 
0.03900    113656920.00000000 71112416.00000000 179802400.00000000 66616.30468750  5494526.50000000 4345116.00000000 
0.04000    111709960.00000000 69902624.00000000 176731840.00000000 65185.33984375  5387903.50000000 4261045.00000000 
0.04100    109763080.00000000 68692808.00000000 173662944.00000000 63763.17968750  5281604.00000000 4177187.75000000 
0.04200    107817504.00000000 67485296.00000000 170597056.00000000 62350.61328125  5175752.00000000 4093693.00000000 
0.04300    105878280.00000000 66278288.00000000 167538576.00000000 60950.63281250  5070483.00000000 4010628.00000000 
0.04400    103945632.00000000 65076892.00000000 164488288.00000000 59563.99609375  4965902.50000000 3928135.50000000 
0.04500    102021552.00000000 63879992.00000000 161455264.00000000 58192.73828125  4862173.50000000 3846294.75000000 
0.04600    100107832.00000000 62689780.00000000 158435104.00000000 56838.32812500  4759395.00000000 3765167.50000000 
0.04700    98208120.00000000 61507572.00000000 155438384.00000000 55501.65625000  4657632.00000000 3684876.50000000 
0.04800    96323136.00000000 60334584.00000000 152464512.00000000 54184.53125000  4557057.50000000 3605468.00000000 
0.04900    94454456.00000000 59171516.00000000 149515904.00000000 52887.91796875  4457691.50000000 3527015.00000000 
0.05000    92604808.00000000 58019972.00000000 146597056.00000000 51613.08984375  4359670.50000000 3449623.00000000 
0.05100    90775304.00000000 56880284.00000000 143710256.00000000 50360.55078125  4263046.00000000 3373321.00000000 
0.05200    88967136.00000000 55754092.00000000 140855408.00000000 49131.53125000  4167913.50000000 3298215.25000000 
0.05300    87182480.00000000 54641696.00000000 138037616.00000000 47926.90625000  4074301.50000000 3224306.75000000 
0.05400    85422680.00000000 53544656.00000000 135259184.00000000 46746.83984375  3982311.50000000 3151661.00000000 
0.05500    83687968.00000000 52463044.00000000 132519288.00000000 45592.41015625  3892022.25000000 3080345.00000000 
0.05600    81979904.00000000 51398468.00000000 129823424.00000000 44463.47656250  3803428.75000000 3010353.25000000 
0.05700    80299712.00000000 50350892.00000000 127169680.00000000 43361.12109375  3716596.75000000 2941761.00000000 
0.05800    78649128.00000000 49320624.00000000 124560728.00000000 42284.92187500  3631568.00000000 2874591.75000000 
0.05900    77027776.00000000 48309092.00000000 121999320.00000000 41235.33593750  3548358.00000000 2808831.75000000 
0.06000    75436360.00000000 47316252.00000000 119486200.00000000 40212.35937500  3467005.75000000 2744576.00000000 
0.06100    73876672.00000000 46342940.00000000 117021792.00000000 39216.34765625  3387523.75000000 2681741.50000000 
0.06200    72348632.00000000 45388848.00000000 114607048.00000000 38247.08203125  3309909.00000000 2620428.25000000 
0.06300    70852664.00000000 44454692.00000000 112243376.00000000 37304.28906250  3234207.00000000 2560578.25000000 
0.06400    69388664.00000000 43541028.00000000 109928936.00000000 36387.67968750  3160338.25000000 2502222.75000000 
0.06500    67957936.00000000 42647408.00000000 107667848.00000000 35497.36328125  3088408.75000000 2445389.75000000 
0.06600    66560028.00000000 41774488.00000000 105458504.00000000 34632.50781250  3018342.00000000 2389993.75000000 
0.06700    65195388.00000000 40921888.00000000 103301000.00000000 33793.23828125  2950175.25000000 2336094.75000000 
0.06800    63863296.00000000 40090044.00000000 101195752.00000000 32978.24609375  2883796.00000000 2283627.50000000 
0.06900    62565008.00000000 39278960.00000000 99143296.00000000 32188.27539062  2819264.00000000 2232641.25000000 
0.07000    61298928.00000000 38488428.00000000 97143056.00000000 31421.91796875  2756559.75000000 2183073.25000000 
0.07100    60066932.00000000 37718164.00000000 95194608.00000000 30678.55078125  2695630.25000000 2134902.50000000 
0.07200    58866388.00000000 36969192.00000000 93298144.00000000 29958.00195312  2636441.00000000 2088105.50000000 
0.07300    57698336.00000000 36239792.00000000 91451440.00000000 29259.55664062  2578942.25000000 2042680.62500000 
0.07400    56562616.00000000 35530572.00000000 89656904.00000000 28582.49218750  2523146.50000000 1998569.87500000 
0.07500    55458480.00000000 34840688.00000000 87910904.00000000 27925.85156250  2468956.75000000 1955763.62500000 
0.07600    54384732.00000000 34170816.00000000 86214728.00000000 27289.43554688  2416385.75000000 1914213.25000000 
0.07700    53342240.00000000 33520230.00000000 84567872.00000000 26672.26171875  2365375.00000000 1873902.50000000 
0.07800    52329784.00000000 32888528.00000000 82967648.00000000 26073.65820312  2315846.75000000 1834778.00000000 
0.07900    51345964.00000000 32275110.00000000 81414408.00000000 25492.55078125  2267797.25000000 1796801.37500000 
0.08000    50391448.00000000 31679954.00000000 79906680.00000000 24928.79492188  2221146.75000000 1759954.62500000 
0.08100    49465352.00000000 31102592.00000000 78443176.00000000 24381.64257812  2175869.25000000 1724196.37500000 
0.08200    48566112.00000000 30542692.00000000 77024264.00000000 23849.57421875  2131904.50000000 1689481.12500000 
0.08300    47693636.00000000 29999152.00000000 75647672.00000000 23332.80468750  2089228.37500000 1655760.50000000 
0.08400    46847096.00000000 29472312.00000000 74312024.00000000 22830.43164062  2047769.62500000 1623019.12500000 
0.08500    46025712.00000000 28961506.00000000 73016744.00000000 22341.58593750  2007473.37500000 1591193.62500000 
0.08600    45228800.00000000 28466330.00000000 71759600.00000000 21865.72460938  1968297.12500000 1560286.00000000 
0.08700    44456056.00000000 27985968.00000000 70541144.00000000 21402.30859375  1930221.62500000 1530221.87500000 
0.08800    43705740.00000000 27520114.00000000 69358152.00000000 20950.69921875  1893164.87500000 1500964.62500000 
0.08900    42977652.00000000 27068380.00000000 68211752.00000000 20509.82226562  1857078.50000000 1472491.87500000 
0.09000    42270796.00000000 26630338.00000000 67098440.00000000 20079.86914062  1821923.62500000 1444761.50000000 
0.09100    41584248.00000000 26204972.00000000 66017580.00000000 19659.89648438  1787684.75000000 1417737.87500000 
0.09200    40917952.00000000 25792220.00000000 64968008.00000000 19249.45703125  1754289.62500000 1391397.12500000 
0.09300    40270272.00000000 25391480.00000000 63948780.00000000 18848.17382812  1721699.87500000 1365693.75000000 
0.09400    39640404.00000000 25002476.00000000 62958696.00000000 18455.46289062  1689873.75000000 1340605.37500000 
0.09500    39028284.00000000 24624390.00000000 61996600.00000000 18070.79296875  1658773.75000000 1316070.25000000 
0.09600    38432808.00000000 24257042.00000000 61060980.00000000 17694.12890625  1628376.00000000 1292101.62500000 
0.09700    37853120.00000000 23899552.00000000 60150284.00000000 17324.91992188  1598631.50000000 1268642.75000000 
0.09800    37288760.00000000 23551864.00000000 59264224.00000000 16962.58593750  1569511.75000000 1245683.37500000 
0.09900    36739008.00000000 23213696.00000000 58401016.00000000 16607.37890625  1540981.62500000 1223190.75000000 
0.10000    36202680.00000000 22883784.00000000 57560200.00000000 16258.50390625  1513009.50000000 1201132.37500000 
0.10100    35679592.00000000 22562572.00000000 56739604.00000000 15915.86621094  1485580.87500000 1179508.62500000 
0.10200    35168700.00000000 22248956.00000000 55939024.00000000 15579.32519531  1458641.00000000 1158272.75000000 
0.10300    34670100.00000000 21943018.00000000 55157308.00000000 15248.55957031  1432200.00000000 1137406.00000000 
0.10400    34182376.00000000 21644116.00000000 54393344.00000000 14923.43457031  1406195.37500000 1116905.50000000 
0.10500    33705600.00000000 21352020.00000000 53646948.00000000 14603.83691406  1380647.12500000 1096742.37500000 
0.10600    33238554.00000000 21066428.00000000 52915864.00000000 14289.55859375  1355489.75000000 1076898.62500000 
0.10700    32781420.00000000 20786436.00000000 52200212.00000000 13980.55566406  1330723.37500000 1057379.25000000 
0.10800    32333428.00000000 20512338.00000000 51498628.00000000 13676.69433594  1306367.37500000 1038135.62500000 
0.10900    31893400.00000000 20243668.00000000 50811112.00000000 13377.86816406  1282354.87500000 1019184.68750000 
0.11000    31461940.00000000 19980080.00000000 50136268.00000000 13083.93164062  1258686.87500000 1000512.43750000 
0.11100    31038226.00000000 19721098.00000000 49473420.00000000 12795.00195312  1235367.50000000 982083.50000000 
0.11200    30621590.00000000 19466612.00000000 48821784.00000000 12510.88964844  1212364.25000000 963916.75000000 
0.11300    30211554.00000000 19216600.00000000 48181252.00000000 12231.60449219  1189685.75000000 945992.87500000 
0.11400    29808496.00000000 18970390.00000000 47550816.00000000 11957.33203125  1167312.75000000 928312.43750000 
0.11500    29411460.00000000 18728026.00000000 46929692.00000000 11687.70214844  1145238.12500000 910856.31250000 
0.11600    29020014.00000000 18489272.00000000 46318348.00000000 11422.85253906  1123456.62500000 893622.31250000 
0.11700    28634390.00000000 18253774.00000000 45715032.00000000 11162.85644531  1101971.75000000 876621.87500000 
0.11800    28253688.00000000 18021372.00000000 45119720.00000000 10907.50878906  1080757.25000000 859828.62500000 
0.11900    27878194.00000000 17792098.00000000 44532372.00000000 10657.03222656  1059821.50000000 843258.68750000 
0.12000    27507312.00000000 17565576.00000000 43952584.00000000 10411.25683594  1039171.93750000 826885.12500000 
0.12100    27141114.00000000 17341682.00000000 43379824.00000000 10170.41601562  1018795.93750000 810738.00000000 
0.12200    26779282.00000000 17120254.00000000 42813172.00000000 9934.12988281   998689.81250000 794793.43750000 
0.12300    26421600.00000000 16901396.00000000 42252696.00000000 9702.75585938   978851.25000000 779055.00000000 
0.12400    26067758.00000000 16684497.00000000 41698696.00000000 9476.05761719   959281.18750000 763518.87500000 
0.12500    25717650.00000000 16469886.00000000 41150460.00000000 9254.07617188   939977.06250000 748184.87500000 
0.12600    25371528.00000000 16257474.00000000 40607672.00000000 9036.96972656   920949.06250000 733073.68750000 
0.12700    25028822.00000000 16046969.00000000 40070028.00000000 8824.45507812   902183.81250000 718155.62500000 
0.12800    24689730.00000000 15838422.00000000 39537976.00000000 8616.69531250   883685.00000000 703440.18750000 
0.12900    24353686.00000000 15631762.00000000 39010520.00000000 8413.51757812   865458.43750000 688945.31250000 
0.13000    24020866.00000000 15426716.00000000 38487916.00000000 8215.04687500   847492.62500000 674640.75000000 
0.13100    23691406.00000000 15223546.00000000 37970216.00000000 8021.07763672   829799.56250000 660557.75000000 
0.13200    23364912.00000000 15022079.00000000 37456704.00000000 7831.67822266   812376.43750000 646670.81250000 
0.13300    23041512.00000000 14822160.00000000 36948196.00000000 7646.77392578   795214.50000000 633000.43750000 
0.13400    22721078.00000000 14623901.00000000 36443684.00000000 7466.27001953   778328.37500000 619526.37500000 
0.13500    22403670.00000000 14427166.00000000 35943912.00000000 7290.15576172   761707.25000000 606274.00000000 
0.13600    22089106.00000000 14231961.00000000 35447712.00000000 7118.26855469   745358.93750000 593221.87500000 
0.13700    21777376.00000000 14038261.00000000 34956024.00000000 6950.56494141   729270.18750000 580385.06250000 
0.13800    21468390.00000000 13846159.00000000 34468340.00000000 6787.02490234   713456.06250000 567748.12500000 
0.13900    21162350.00000000 13655417.00000000 33985432.00000000 6627.52490234   697908.06250000 555326.81250000 
0.14000    20858926.00000000 13466326.00000000 33506248.00000000 6471.99169922   682619.00000000 543110.31250000 
0.14100    20558650.00000000 13278695.00000000 33031086.00000000 6320.27587891   667599.56250000 531106.62500000 
0.14200    20260832.00000000 13092492.00000000 32559976.00000000 6172.31689453   652838.43750000 519305.25000000 
0.14300    19965698.00000000 12907825.00000000 32093044.00000000 6028.02246094   638345.31250000 507706.93750000 
0.14400    19673608.00000000 12724510.00000000 31629952.00000000 5887.25683594   624102.18750000 496315.43750000 
0.14500    19384006.00000000 12542806.00000000 31171240.00000000 5749.95947266   610126.06250000 485129.71875000 
0.14600    19097380.00000000 12362626.00000000 30716572.00000000 5616.00439453   596402.00000000 474144.31250000 
0.14700    18813352.00000000 12183863.00000000 30265806.00000000 5485.29492188   582931.81250000 463358.65625000 
0.14800    18532146.00000000 12006588.00000000 29818870.00000000 5357.71484375   569711.18750000 452773.03125000 
0.14900    18253448.00000000 11830766.00000000 29376282.00000000 5233.17187500   556731.06250000 442382.15625000 
0.15000    17977794.00000000 11656522.00000000 28937900.00000000 5111.49072266   543997.31250000 432187.46875000 
0.15100    17704970.00000000 11483813.00000000 28503686.00000000 4992.71630859   531511.12500000 422181.90625000 
0.15200    17434514.00000000 11312730.00000000 28073620.00000000 4876.67871094   519258.28125000 412372.56250000 
0.15300    17167112.00000000 11143054.00000000 27647498.00000000 4763.22070312   507246.68750000 402744.78125000 
0.15400    16902408.00000000 10975007.00000000 27225576.00000000 4652.30468750   495457.50000000 393305.96875000 
0.15500    16640532.00000000 10808499.00000000 26807840.00000000 4543.83496094   483900.84375000 384050.71875000 
0.15600    16381374.00000000 10643664.00000000 26394320.00000000 4437.73876953   472566.50000000 374972.53125000 
0.15700    16125027.00000000 10480440.00000000 25985242.00000000 4333.92089844   461452.31250000 366073.68750000 
0.15800    15871256.00000000 10318673.00000000 25580060.00000000 4232.25634766   450554.59375000 357345.81250000 
0.15900    15620463.00000000 10158641.00000000 25179306.00000000 4132.79492188   439869.68750000 348792.00000000 
0.16000    15372209.00000000 10000128.00000000 24782616.00000000 4035.34814453   429395.03125000 340406.09375000 
0.16100    15127053.00000000 9843414.00000000 24390590.00000000 3939.92114258   419131.68750000 332192.65625000 
0.16200    14884506.00000000 9688259.00000000 24002682.00000000 3846.42700195   409062.03125000 324136.28125000 
0.16300    14644804.00000000 9534671.00000000 23618942.00000000 3754.78442383   399198.28125000 316241.93750000 
0.16400    14407813.00000000 9382814.00000000 23239730.00000000 3665.00366211   389529.34375000 308507.65625000 
0.16500    14173734.00000000 9232638.00000000 22864696.00000000 3577.00390625   380047.87500000 300925.40625000 
0.16600    13942456.00000000 9084129.00000000 22494152.00000000 3490.76660156   370760.31250000 293499.37500000 
0.16700    13713835.00000000 8937358.00000000 22127714.00000000 3406.24584961   361655.12500000 286224.00000000 
0.16800    13488016.00000000 8792111.00000000 21765722.00000000 3323.37353516   352731.46875000 279091.25000000 
0.16900    13265093.00000000 8648788.00000000 21408174.00000000 3242.21166992   343988.81250000 272105.87500000 
0.17000    13044922.00000000 8507040.00000000 21054988.00000000 3162.68579102   335424.25000000 265263.46875000 
