# SAXS profile: number of points = 501, q_min = 0, q_max = 0.5, delta_q = 0.001
#    q    intensity 
0.00000    162238000.00000000 101201720.00000000 256271712.00000000 109585.07812500 8433013.00000000 6660384.00000000 
0.00100    162203136.00000000 101179864.00000000 256215440.00000000 109555.60156250 8430957.00000000 6658774.00000000 
0.00200    162097584.00000000 101113856.00000000 256045888.00000000 109466.42187500 8424703.00000000 6653815.50000000 
0.00300    161918288.00000000 101003328.00000000 255766704.00000000 109318.13281250 8414280.00000000 6645676.50000000 
0.00400    161668048.00000000 100849136.00000000 255373056.00000000 109111.24218750 8399732.00000000 6634256.50000000 
0.00500    161346192.00000000 100651512.00000000 254868624.00000000 108845.29687500 8380991.00000000 6619578.00000000 
0.00600    160953344.00000000 100410064.00000000 254253472.00000000 108521.16406250 8358304.00000000 6601700.00000000 
0.00700    160491168.00000000 100125552.00000000 253528208.00000000 108139.65625000 8331437.00000000 6580633.50000000 
0.00800    159957776.00000000 99798864.00000000 252694128.00000000 107700.89843750 8300566.50000000 6556379.50000000 
0.00900    159356016.00000000 99429144.00000000 251753168.00000000 107205.91406250 8265753.50000000 6529089.00000000 
0.01000    158687712.00000000 99018696.00000000 250704912.00000000 106655.02343750 8227042.50000000 6498617.50000000 
0.01100    157952336.00000000 98566824.00000000 249551552.00000000 106049.82812500 8184378.00000000 6465187.50000000 
0.01200    157152512.00000000 98074328.00000000 248294992.00000000 105390.74218750 8137954.50000000 6428735.00000000 
0.01300    156288272.00000000 97541880.00000000 246936480.00000000 104678.64843750 8087823.50000000 6389351.50000000 
0.01400    155357616.00000000 96969536.00000000 245478864.00000000 103915.74218750 8033991.50000000 6347092.50000000 
0.01500    154364672.00000000 96360296.00000000 243923648.00000000 103101.36718750 7976591.50000000 6302044.50000000 
0.01600    153311712.00000000 95711728.00000000 242270464.00000000 102238.91406250 7915719.50000000 6254242.50000000 
0.01700    152199744.00000000 95027152.00000000 240525008.00000000 101328.57031250 7851417.50000000 6203731.50000000 
0.01800    151027824.00000000 94307168.00000000 238688032.00000000 100371.77343750 7783792.00000000 6150609.50000000 
0.01900    149801008.00000000 93551536.00000000 236762704.00000000 99369.77343750  7712947.00000000 6094983.50000000 
0.02000    148518144.00000000 92763232.00000000 234750144.00000000 98324.35156250  7639007.00000000 6036897.00000000 
0.02100    147182992.00000000 91941000.00000000 232655344.00000000 97237.50000000  7562012.50000000 5976450.00000000 
0.02200    145796160.00000000 91087432.00000000 230478832.00000000 96110.74218750  7482132.00000000 5913680.50000000 
0.02300    144359344.00000000 90202528.00000000 228224768.00000000 94945.24218750  7399478.50000000 5848781.50000000 
0.02400    142874528.00000000 89288744.00000000 225893952.00000000 93743.60937500  7314138.50000000 5781732.50000000 
0.02500    141343808.00000000 88346456.00000000 223492944.00000000 92506.80468750  7226226.50000000 5712680.00000000 
0.02600    139770336.00000000 87377536.00000000 221021232.00000000 91237.00000000  7135900.00000000 5641715.00000000 
0.02700    138154000.00000000 86381384.00000000 218484960.00000000 89935.97656250  7043270.50000000 5568882.50000000 
0.02800    136498704.00000000 85361672.00000000 215885056.00000000 88605.17187500  6948443.00000000 5494382.50000000 
0.02900    134803824.00000000 84318488.00000000 213226544.00000000 87247.89062500  6851605.50000000 5418250.50000000 
0.03000    133074536.00000000 83252760.00000000 210511728.00000000 85864.60937500  6752753.00000000 5340611.50000000 
0.03100    131312480.00000000 82166728.00000000 207744416.00000000 84458.46093750  6652164.00000000 5261524.50000000 
0.03200    129517792.00000000 81060616.00000000 204926640.00000000 83030.07031250  6549922.50000000 5181135.50000000 
0.03300    127695032.00000000 79937184.00000000 202064304.00000000 81583.01562500  6446125.50000000 5099534.50000000 
0.03400    125845344.00000000 78795968.00000000 199159664.00000000 80117.99218750  6340927.50000000 5016862.50000000 
0.03500    123970752.00000000 77640256.00000000 196214688.00000000 78637.85937500  6234525.00000000 4933175.00000000 
0.03600    122073920.00000000 76470224.00000000 193235168.00000000 77143.61718750  6126966.00000000 4848573.00000000 
0.03700    120157104.00000000 75287656.00000000 190223072.00000000 75638.32812500  6018404.00000000 4763206.00000000 
0.03800    118221768.00000000 74094128.00000000 187184560.00000000 74122.92968750  5908990.00000000 4677119.50000000 
0.03900    116271264.00000000 72889928.00000000 184119056.00000000 72600.57812500  5798846.50000000 4590519.00000000 
0.04000    114307360.00000000 71677216.00000000 181032304.00000000 71071.72656250  5688137.50000000 4503408.50000000 
0.04100    112332384.00000000 70457848.00000000 177928480.00000000 69539.78906250  5576964.00000000 4415929.50000000 
0.04200    110348008.00000000 69232264.00000000 174809152.00000000 68005.81250000  5465447.50000000 4328204.00000000 
0.04300    108357048.00000000 68002768.00000000 171679856.00000000 66471.88281250  5353769.00000000 4240293.00000000 
0.04400    106361296.00000000 66769276.00000000 168541648.00000000 64939.35937500  5242005.00000000 4152319.00000000 
0.04500    104362840.00000000 65534532.00000000 165399728.00000000 63410.63281250  5130295.00000000 4064379.75000000 
0.04600    102364216.00000000 64298628.00000000 162256080.00000000 61887.07421875  5018753.50000000 3976554.00000000 
0.04700    100367800.00000000 63063456.00000000 159114704.00000000 60370.44921875  4907503.50000000 3888959.00000000 
0.04800    98373376.00000000 61830312.00000000 155978224.00000000 58862.79296875  4796672.00000000 3801665.75000000 
0.04900    96385040.00000000 60600492.00000000 152851440.00000000 57365.05859375  4686352.50000000 3714790.50000000 
0.05000    94405208.00000000 59374932.00000000 149735648.00000000 55879.14062500  4576706.00000000 3628379.00000000 
0.05100    92434432.00000000 58154680.00000000 146633504.00000000 54406.71484375  4467785.00000000 3542579.25000000 
0.05200    90474648.00000000 56940936.00000000 143549600.00000000 52948.67968750  4359706.00000000 3457401.50000000 
0.05300    88528376.00000000 55735260.00000000 140486032.00000000 51506.91796875  4252563.50000000 3372982.25000000 
0.05400    86596216.00000000 54538400.00000000 137444016.00000000 50082.83203125  4146477.75000000 3289341.00000000 
0.05500    84681248.00000000 53350976.00000000 134427536.00000000 48676.95703125  4041546.25000000 3206606.50000000 
0.05600    82784200.00000000 52174888.00000000 131440064.00000000 47290.93359375  3937818.50000000 3124836.75000000 
0.05700    80906752.00000000 51010460.00000000 128483736.00000000 45926.61718750  3835448.75000000 3044079.75000000 
0.05800    79050920.00000000 49858872.00000000 125559496.00000000 44583.81640625  3734435.50000000 2964408.50000000 
0.05900    77217904.00000000 48720616.00000000 122669888.00000000 43264.28515625  3634929.25000000 2885882.25000000 
0.06000    75408696.00000000 47597356.00000000 119817776.00000000 41968.66015625  3536954.50000000 2808555.75000000 
0.06100    73624536.00000000 46488992.00000000 117005864.00000000 40697.99609375  3440589.50000000 2732483.25000000 
0.06200    71866632.00000000 45397020.00000000 114234576.00000000 39452.71093750  3345923.25000000 2657731.50000000 
0.06300    70137008.00000000 44321580.00000000 111506928.00000000 38234.44531250  3252970.50000000 2584341.75000000 
0.06400    68435536.00000000 43263712.00000000 108823936.00000000 37042.51171875  3161812.75000000 2512351.25000000 
0.06500    66764920.00000000 42224276.00000000 106187416.00000000 35878.23046875  3072504.50000000 2441767.25000000 
0.06600    65124592.00000000 41203184.00000000 103599248.00000000 34742.55859375  2985083.75000000 2372684.25000000 
0.06700    63515972.00000000 40201532.00000000 101060200.00000000 33635.12500000  2899569.50000000 2305092.25000000 
0.06800    61939928.00000000 39219724.00000000 98572384.00000000 32556.65429688  2816037.00000000 2239066.25000000 
0.06900    60397216.00000000 38258348.00000000 96135976.00000000 31507.31445312  2734515.50000000 2174574.50000000 
0.07000    58888260.00000000 37317316.00000000 93753264.00000000 30487.79687500  2654999.25000000 2111689.50000000 
0.07100    57414032.00000000 36397552.00000000 91423648.00000000 29498.05859375  2577535.75000000 2050375.87500000 
0.07200    55974560.00000000 35499028.00000000 89149416.00000000 28537.60546875  2502128.25000000 1990713.75000000 
0.07300    54570400.00000000 34622520.00000000 86930160.00000000 27607.33593750  2428830.25000000 1932673.87500000 
0.07400    53202180.00000000 33767724.00000000 84767384.00000000 26706.91992188  2357587.00000000 1876263.75000000 
0.07500    51870392.00000000 32935178.00000000 82660912.00000000 25836.25781250  2288463.25000000 1821506.25000000 
0.07600    50574576.00000000 32124866.00000000 80611392.00000000 24995.08789062  2221433.25000000 1768380.25000000 
0.07700    49315564.00000000 31337024.00000000 78619584.00000000 24183.52929688  2156500.75000000 1716920.37500000 
0.07800    48093052.00000000 30571600.00000000 76684744.00000000 23401.34570312  2093653.87500000 1667095.12500000 
0.07900    46906964.00000000 29828716.00000000 74806824.00000000 22647.88281250  2032899.75000000 1618907.12500000 
0.08000    45757836.00000000 29108646.00000000 72987184.00000000 21923.24804688  1974220.00000000 1572342.00000000 
0.08100    44645536.00000000 28410914.00000000 71225616.00000000 21226.85742188  1917572.00000000 1527384.75000000 
0.08200    43568956.00000000 27735700.00000000 69520064.00000000 20558.06445312  1862964.62500000 1484027.00000000 
0.08300    42528860.00000000 27082618.00000000 67871904.00000000 19916.89453125  1810371.25000000 1442258.12500000 
0.08400    41524308.00000000 26451880.00000000 66279352.00000000 19302.24804688  1759751.00000000 1402034.62500000 
0.08500    40556140.00000000 25842986.00000000 64743600.00000000 18714.32226562  1711093.12500000 1363363.12500000 
0.08600    39622588.00000000 25255958.00000000 63262928.00000000 18151.92187500  1664350.37500000 1326193.00000000 
0.08700    38724088.00000000 24690372.00000000 61837300.00000000 17614.70703125  1619497.75000000 1290519.62500000 
0.08800    37859928.00000000 24146158.00000000 60465756.00000000 17101.82421875  1576490.75000000 1256292.00000000 
0.08900    37029416.00000000 23622858.00000000 59146736.00000000 16612.97460938  1535289.00000000 1223499.87500000 
0.09000    36232140.00000000 23120168.00000000 57880132.00000000 16147.22070312  1495857.37500000 1192095.62500000 
0.09100    35467500.00000000 22637696.00000000 56665524.00000000 15703.81640625  1458158.50000000 1162059.50000000 
0.09200    34734996.00000000 22175050.00000000 55500708.00000000 15282.00488281  1422131.50000000 1133337.37500000 
0.09300    34033368.00000000 21731886.00000000 54385548.00000000 14881.39160156  1387742.00000000 1105920.00000000 
0.09400    33362560.00000000 21307690.00000000 53318312.00000000 14500.60839844  1354929.50000000 1079742.00000000 
0.09500    32721548.00000000 20902132.00000000 52298508.00000000 14139.34375000  1323654.87500000 1054771.12500000 
0.09600    32109336.00000000 20514714.00000000 51324576.00000000 13796.76269531  1293860.75000000 1030982.18750000 
0.09700    31525572.00000000 20144932.00000000 50394924.00000000 13471.91406250  1265500.87500000 1008325.81250000 
0.09800    30969112.00000000 19792262.00000000 49509192.00000000 13164.20410156  1238503.75000000 986760.31250000 
0.09900    30439342.00000000 19456178.00000000 48664788.00000000 12872.73535156  1212848.00000000 966246.31250000 
0.10000    29935076.00000000 19136178.00000000 47861424.00000000 12596.79687500  1188449.62500000 946737.62500000 
0.10100    29455548.00000000 18831702.00000000 47097052.00000000 12335.21777344  1165272.00000000 928186.81250000 
0.10200    28999882.00000000 18542154.00000000 46370556.00000000 12087.78515625  1143255.37500000 910560.56250000 
0.10300    28567386.00000000 18266982.00000000 45680368.00000000 11853.38867188  1122344.37500000 893813.31250000 
0.10400    28156592.00000000 18005818.00000000 45025296.00000000 11631.19335938  1102483.87500000 877898.87500000 
0.10500    27767042.00000000 17757962.00000000 44403876.00000000 11420.63867188  1083616.87500000 862786.62500000 
0.10600    27397738.00000000 17522704.00000000 43813980.00000000 11220.93359375  1065692.75000000 848418.81250000 
0.10700    27047580.00000000 17299720.00000000 43255044.00000000 11031.19433594  1048655.12500000 834757.18750000 
0.10800    26715910.00000000 17088238.00000000 42725276.00000000 10850.91796875  1032463.31250000 821765.68750000 
0.10900    26401270.00000000 16887854.00000000 42222688.00000000 10679.20996094  1017046.00000000 809396.68750000 
0.11000    26103416.00000000 16697807.00000000 41746628.00000000 10515.43652344  1002359.56250000 797618.12500000 
0.11100    25820632.00000000 16517641.00000000 41295184.00000000 10359.11328125  988361.75000000 786376.87500000 
0.11200    25552502.00000000 16346700.00000000 40866996.00000000 10209.40625000  974988.87500000 775645.00000000 
0.11300    25298048.00000000 16184588.00000000 40460552.00000000 10065.71972656  962199.31250000 765385.31250000 
0.11400    25056384.00000000 16030523.00000000 40074732.00000000 9927.56542969   949939.62500000 755552.87500000 
0.11500    24826716.00000000 15884253.00000000 39708072.00000000 9794.27441406   938181.25000000 746118.75000000 
0.11600    24607864.00000000 15744990.00000000 39358412.00000000 9665.31054688   926866.06250000 737036.68750000 
0.11700    24399406.00000000 15612251.00000000 39025692.00000000 9540.21289062   915955.31250000 728293.81250000 
0.11800    24199804.00000000 15485500.00000000 38707444.00000000 9418.35839844   905395.50000000 719833.68750000 
0.11900    24009084.00000000 15364284.00000000 38403488.00000000 9299.35351562   895165.68750000 711628.25000000 
0.12000    23825798.00000000 15248157.00000000 38111408.00000000 9182.82617188   885210.31250000 703659.31250000 
0.12100    23649630.00000000 15136577.00000000 37830896.00000000 9068.24121094   875507.00000000 695891.93750000 
0.12200    23479572.00000000 15029035.00000000 37560540.00000000 8955.24121094   866012.68750000 688300.62500000 
0.12300    23315022.00000000 14925194.00000000 37298864.00000000 8843.58007812   856693.93750000 680854.37500000 
0.12400    23155244.00000000 14824416.00000000 37045100.00000000 8732.76367188   847522.37500000 673533.37500000 
0.12500    22999410.00000000 14726497.00000000 36797568.00000000 8622.52050781   838467.31250000 666304.31250000 
0.12600    22847168.00000000 14630846.00000000 36556584.00000000 8512.66699219   829498.81250000 659157.06250000 
0.12700    22697652.00000000 14537167.00000000 36320000.00000000 8402.84277344   820594.56250000 652059.31250000 
0.12800    22550284.00000000 14445083.00000000 36086908.00000000 8292.85351562   811722.50000000 645002.81250000 
0.12900    22404812.00000000 14354296.00000000 35856744.00000000 8182.50292969   802880.31250000 637964.75000000 
0.13000    22260414.00000000 14264262.00000000 35628664.00000000 8071.62939453   794023.00000000 630925.87500000 
0.13100    22116682.00000000 14174890.00000000 35401860.00000000 7960.05224609   785144.12500000 623870.25000000 
0.13200    21972920.00000000 14085801.00000000 35175276.00000000 7847.57324219   776219.12500000 616789.50000000 
0.13300    21828794.00000000 13996549.00000000 34948516.00000000 7734.21142578   767248.12500000 609667.37500000 
0.13400    21684290.00000000 13907078.00000000 34721100.00000000 7619.82568359   758197.18750000 602491.50000000 
0.13500    21538504.00000000 13817010.00000000 34491980.00000000 7504.35693359   749067.75000000 595257.37500000 
0.13600    21391280.00000000 13726145.00000000 34260384.00000000 7387.74511719   739843.56250000 587950.12500000 
0.13700    21242256.00000000 13634276.00000000 34026476.00000000 7269.95703125   730524.25000000 580568.43750000 
0.13800    21091078.00000000 13541197.00000000 33789212.00000000 7150.97558594   721086.31250000 573101.68750000 
0.13900    20937670.00000000 13446803.00000000 33548350.00000000 7030.87451172   711541.56250000 565548.06250000 
0.14000    20781628.00000000 13350835.00000000 33303444.00000000 6909.70263672   701872.25000000 557899.68750000 
0.14100    20622798.00000000 13253110.00000000 33054114.00000000 6787.43310547   692086.81250000 550157.75000000 
0.14200    20460850.00000000 13153568.00000000 32800272.00000000 6664.08251953   682174.00000000 542317.18750000 
0.14300    20295952.00000000 13052152.00000000 32541578.00000000 6539.81689453   672142.81250000 534383.06250000 
0.14400    20127434.00000000 12948608.00000000 32277276.00000000 6414.62939453   661982.31250000 526349.06250000 
0.14500    19955712.00000000 12843069.00000000 32007876.00000000 6288.72412109   651705.87500000 518222.59375000 
0.14600    19780458.00000000 12735195.00000000 31732768.00000000 6162.16894531   641310.68750000 510002.59375000 
0.14700    19601764.00000000 12625232.00000000 31452292.00000000 6035.04541016   630805.06250000 501692.62500000 
0.14800    19419222.00000000 12512818.00000000 31165990.00000000 5907.48339844   620185.00000000 493291.25000000 
0.14900    19233116.00000000 12398262.00000000 30873664.00000000 5779.60107422   609468.68750000 484813.15625000 
0.15000    19043464.00000000 12281271.00000000 30575714.00000000 5651.60839844   598653.00000000 476256.78125000 
0.15100    18850214.00000000 12162104.00000000 30272002.00000000 5523.59130859   587749.81250000 467630.75000000 
0.15200    18653404.00000000 12040528.00000000 29962692.00000000 5395.64062500   576771.68750000 458936.34375000 
0.15300    18453020.00000000 11916810.00000000 29647646.00000000 5267.98242188   565718.50000000 450185.06250000 
0.15400    18249258.00000000 11790741.00000000 29326988.00000000 5140.74023438   554604.62500000 441385.59375000 
0.15500    18042060.00000000 11662489.00000000 29001126.00000000 5014.08251953   543439.93750000 432539.71875000 
0.15600    17831796.00000000 11532202.00000000 28669804.00000000 4888.14941406   532236.43750000 423662.06250000 
0.15700    17618352.00000000 11399826.00000000 28333626.00000000 4763.07812500   521005.96875000 414756.31250000 
0.15800    17401896.00000000 11265430.00000000 27992374.00000000 4639.05712891   509751.15625000 405826.43750000 
0.15900    17182618.00000000 11129191.00000000 27646644.00000000 4516.17089844   498490.87500000 396894.96875000 
0.16000    16960720.00000000 10991058.00000000 27296432.00000000 4394.60498047   487234.62500000 387957.78125000 
0.16100    16736351.00000000 10851293.00000000 26942122.00000000 4274.55273438   475994.25000000 379034.15625000 
0.16200    16509660.00000000 10709911.00000000 26584080.00000000 4155.99316406   464780.84375000 370123.18750000 
0.16300    16280857.00000000 10567001.00000000 26222392.00000000 4039.21044922   453601.31250000 361238.81250000 
0.16400    16050037.00000000 10422767.00000000 25857322.00000000 3924.28955078   442475.71875000 352390.59375000 
0.16500    15817484.00000000 10277262.00000000 25489180.00000000 3811.34301758   431411.50000000 343589.09375000 
0.16600    15583479.00000000 10130549.00000000 25118738.00000000 3700.45117188   420420.28125000 334839.18750000 
0.16700    15348000.00000000 9982847.00000000 24745632.00000000 3591.77075195   409510.50000000 326149.43750000 
0.16800    15111442.00000000 9834246.00000000 24370620.00000000 3485.39428711   398694.50000000 317530.81250000 
0.16900    14873998.00000000 9684919.00000000 23993930.00000000 3381.44335938   387984.40625000 308993.59375000 
0.17000    14635883.00000000 9534937.00000000 23615912.00000000 3279.94506836   377389.90625000 300541.90625000 
