# SAXS profile: number of points = 501, q_min = 0, q_max = 0.5, delta_q = 0.001
#    q    intensity 
0.00000    162237040.00000000 101202328.00000000 256270800.00000000 103674.43750000 8202458.50000000 6478233.00000000 
0.00100    162209088.00000000 101184392.00000000 256227248.00000000 103649.42968750 8200727.00000000 6476923.00000000 
0.00200    162125712.00000000 101132264.00000000 256093168.00000000 103575.13281250 8195634.50000000 6472934.00000000 
0.00300    161985504.00000000 101044544.00000000 255870176.00000000 103452.63281250 8187125.50000000 6466225.50000000 
0.00400    161786464.00000000 100922304.00000000 255557600.00000000 103279.30468750 8175179.50000000 6456917.00000000 
0.00500    161529616.00000000 100765704.00000000 255157136.00000000 103058.39062500 8159939.50000000 6444927.00000000 
0.00600    161217664.00000000 100574320.00000000 254669440.00000000 102788.79687500 8141287.00000000 6430354.50000000 
0.00700    160847488.00000000 100347952.00000000 254089520.00000000 102471.26562500 8119311.00000000 6413109.50000000 
0.00800    160423136.00000000 100088080.00000000 253428016.00000000 102105.53125000 8094039.00000000 6393327.00000000 
0.00900    159939616.00000000 99795136.00000000 252678096.00000000 101693.10937500 8065544.00000000 6370956.50000000 
0.01000    159406000.00000000 99469336.00000000 251843856.00000000 101234.45312500 8033769.00000000 6346050.50000000 
0.01100    158819312.00000000 99110528.00000000 250923616.00000000 100730.44531250 7998824.50000000 6318647.00000000 
0.01200    158180480.00000000 98718696.00000000 249921392.00000000 100180.84375000 7960729.00000000 6288807.00000000 
0.01300    157488896.00000000 98294088.00000000 248837872.00000000 99587.17968750  7919551.50000000 6256536.50000000 
0.01400    156743504.00000000 97837864.00000000 247670896.00000000 98950.42187500  7875347.50000000 6221876.00000000 
0.01500    155946576.00000000 97350384.00000000 246426208.00000000 98271.06250000  7828178.50000000 6184898.00000000 
0.01600    155100784.00000000 96832432.00000000 245102352.00000000 97550.55468750  7778097.50000000 6145615.00000000 
0.01700    154206976.00000000 96284664.00000000 243703008.00000000 96790.24218750  7725128.50000000 6104060.00000000 
0.01800    153265136.00000000 95707240.00000000 242227616.00000000 95990.06250000  7669392.00000000 6060317.00000000 
0.01900    152275952.00000000 95101992.00000000 240680048.00000000 95151.64062500  7610929.00000000 6014525.00000000 
0.02000    151241056.00000000 94467920.00000000 239059376.00000000 94276.82812500  7549869.50000000 5966652.50000000 
0.02100    150162048.00000000 93806352.00000000 237369152.00000000 93367.01562500  7486242.00000000 5916710.50000000 
0.02200    149039024.00000000 93118272.00000000 235611472.00000000 92422.11718750  7420133.00000000 5864862.50000000 
0.02300    147874288.00000000 92403840.00000000 233787184.00000000 91444.49218750  7351629.50000000 5811099.00000000 
0.02400    146667936.00000000 91664056.00000000 231898592.00000000 90435.20312500  7280816.50000000 5755552.00000000 
0.02500    145422400.00000000 90901000.00000000 229948192.00000000 89395.78906250  7207780.50000000 5698267.00000000 
0.02600    144139152.00000000 90114336.00000000 227937632.00000000 88327.84375000  7132621.00000000 5639301.00000000 
0.02700    142818800.00000000 89304176.00000000 225868496.00000000 87233.00000000  7055433.50000000 5578720.00000000 
0.02800    141462880.00000000 88472328.00000000 223744704.00000000 86111.97656250  6976263.50000000 5516580.50000000 
0.02900    140073376.00000000 87618952.00000000 221567152.00000000 84966.22656250  6895299.00000000 5453021.00000000 
0.03000    138651472.00000000 86746744.00000000 219339056.00000000 83798.09375000  6812539.00000000 5388047.00000000 
0.03100    137198064.00000000 85854144.00000000 217061824.00000000 82608.85156250  6728167.00000000 5321788.50000000 
0.03200    135715488.00000000 84944064.00000000 214737328.00000000 81399.75000000  6642202.00000000 5254303.00000000 
0.03300    134204800.00000000 84015472.00000000 212370672.00000000 80173.07031250  6554820.00000000 5185671.50000000 
0.03400    132668304.00000000 83071576.00000000 209959712.00000000 78929.19531250  6466076.00000000 5115984.50000000 
0.03500    131106368.00000000 82111688.00000000 207511504.00000000 77670.42187500  6376040.50000000 5045287.50000000 
0.03600    129521056.00000000 81137312.00000000 205026000.00000000 76398.21093750  6284838.00000000 4973640.00000000 
0.03700    127914568.00000000 80149400.00000000 202505216.00000000 75114.01562500  6192632.50000000 4901186.00000000 
0.03800    126288016.00000000 79148768.00000000 199954416.00000000 73819.95312500  6099471.00000000 4827995.00000000 
0.03900    124642104.00000000 78136648.00000000 197371888.00000000 72516.89062500  6005455.50000000 4754096.50000000 
0.04000    122979360.00000000 77113072.00000000 194763520.00000000 71205.58593750  5910648.50000000 4679590.00000000 
0.04100    121302272.00000000 76080864.00000000 192130608.00000000 69889.19531250  5815215.00000000 4604592.00000000 
0.04200    119610328.00000000 75039344.00000000 189475392.00000000 68568.34375000  5719274.00000000 4529149.50000000 
0.04300    117906456.00000000 73989840.00000000 186801440.00000000 67245.06250000  5622836.00000000 4453325.00000000 
0.04400    116191632.00000000 72933520.00000000 184108736.00000000 65919.91406250  5526034.50000000 4377200.50000000 
0.04500    114467408.00000000 71870776.00000000 181401728.00000000 64594.78125000  5429002.00000000 4300863.00000000 
0.04600    112736256.00000000 70802856.00000000 178681952.00000000 63270.89843750  5331744.00000000 4224359.00000000 
0.04700    110998728.00000000 69730624.00000000 175951840.00000000 61949.43359375  5234451.50000000 4147792.75000000 
0.04800    109256128.00000000 68655712.00000000 173215040.00000000 60632.23828125  5137151.00000000 4071214.25000000 
0.04900    107510824.00000000 67578056.00000000 170471952.00000000 59320.05078125  5039973.50000000 3994726.25000000 
0.05000    105763160.00000000 66498928.00000000 167724752.00000000 58014.15234375  4942986.00000000 3918357.25000000 
0.05100    104015352.00000000 65419240.00000000 164977552.00000000 56716.46093750  4846248.00000000 3842174.75000000 
0.05200    102268904.00000000 64339852.00000000 162231536.00000000 55427.08203125  4749880.00000000 3766277.00000000 
0.05300    100524872.00000000 63261748.00000000 159487424.00000000 54147.62890625  4653923.00000000 3690706.75000000 
0.05400    98784128.00000000 62185392.00000000 156749856.00000000 52879.09375000  4558456.00000000 3615513.50000000 
0.05500    97048640.00000000 61111628.00000000 154019344.00000000 51622.84375000  4463654.50000000 3540764.50000000 
0.05600    95319328.00000000 60041256.00000000 151298016.00000000 50378.97265625  4369435.00000000 3466510.25000000 
0.05700    93598336.00000000 58975372.00000000 148589168.00000000 49149.25000000  4276011.00000000 3392833.00000000 
0.05800    91885248.00000000 57914432.00000000 145892096.00000000 47934.34765625  4183316.00000000 3319760.00000000 
0.05900    90181752.00000000 56859164.00000000 143210896.00000000 46734.84375000  4091476.50000000 3247351.00000000 
0.06000    88490168.00000000 55809736.00000000 140545920.00000000 45551.41015625  4000594.50000000 3175641.25000000 
0.06100    86809864.00000000 54767968.00000000 137900048.00000000 44385.36718750  3910657.25000000 3104693.50000000 
0.06200    85143648.00000000 53733856.00000000 135275008.00000000 43236.83593750  3821758.75000000 3034538.75000000 
0.06300    83490992.00000000 52707756.00000000 132670992.00000000 42106.76171875  3733948.50000000 2965219.00000000 
0.06400    81853024.00000000 51690600.00000000 130089048.00000000 40995.42187500  3647260.50000000 2896779.00000000 
0.06500    80231152.00000000 50682976.00000000 127532464.00000000 39903.53515625  3561775.25000000 2829262.25000000 
0.06600    78626896.00000000 49685328.00000000 125002040.00000000 38831.55859375  3477492.25000000 2762677.00000000 
0.06700    77039720.00000000 48698344.00000000 122498208.00000000 37780.00000000  3394452.25000000 2697071.25000000 
0.06800    75471072.00000000 47722356.00000000 120023984.00000000 36748.96875000  3312721.75000000 2632475.25000000 
0.06900    73921976.00000000 46757988.00000000 117578928.00000000 35739.04687500  3232321.50000000 2568921.50000000 
0.07000    72392768.00000000 45805384.00000000 115164720.00000000 34750.17578125  3153274.25000000 2506433.25000000 
0.07100    70884328.00000000 44865132.00000000 112782760.00000000 33783.10937500  3075621.75000000 2445020.50000000 
0.07200    69396224.00000000 43937588.00000000 110433752.00000000 32837.57031250  2999387.00000000 2384692.25000000 
0.07300    67930656.00000000 43023644.00000000 108118296.00000000 31914.04101562  2924568.50000000 2325507.25000000 
0.07400    66487240.00000000 42122640.00000000 105837080.00000000 31012.43164062  2851231.75000000 2267468.75000000 
0.07500    65066856.00000000 41235456.00000000 103591784.00000000 30132.76562500  2779336.75000000 2210519.00000000 
0.07600    63669200.00000000 40362448.00000000 101382672.00000000 29275.14843750  2708927.75000000 2154791.75000000 
0.07700    62295072.00000000 39503752.00000000 99209824.00000000 28439.51171875  2640006.75000000 2100191.75000000 
0.07800    60945188.00000000 38659372.00000000 97074040.00000000 27625.78906250  2572610.75000000 2046779.62500000 
0.07900    59619232.00000000 37829812.00000000 94976624.00000000 26834.00195312  2506685.00000000 1994539.25000000 
0.08000    58318036.00000000 37014984.00000000 92917248.00000000 26063.81054688  2442287.25000000 1943491.12500000 
0.08100    57041576.00000000 36215324.00000000 90896584.00000000 25315.27734375  2379391.00000000 1893620.12500000 
0.08200    55789748.00000000 35430752.00000000 88914728.00000000 24588.13476562  2317987.25000000 1844921.00000000 
0.08300    54563236.00000000 34661424.00000000 86971512.00000000 23882.07812500  2258102.50000000 1797408.87500000 
0.08400    53361508.00000000 33907448.00000000 85067712.00000000 23196.91406250  2199703.00000000 1751062.37500000 
0.08500    52185176.00000000 33169268.00000000 83204032.00000000 22532.38281250  2142792.75000000 1705886.00000000 
0.08600    51034352.00000000 32446342.00000000 81379464.00000000 21888.09570312  2087363.75000000 1661865.37500000 
0.08700    49907968.00000000 31738924.00000000 79594240.00000000 21263.95507812  2033363.37500000 1618989.25000000 
0.08800    48807624.00000000 31046844.00000000 77848720.00000000 20659.16796875  1980843.50000000 1577259.25000000 
0.08900    47732116.00000000 30370414.00000000 76142680.00000000 20073.83789062  1929743.75000000 1536651.12500000 
0.09000    46681424.00000000 29709368.00000000 74475672.00000000 19507.38085938  1880055.12500000 1497166.50000000 
0.09100    45655952.00000000 29063348.00000000 72847576.00000000 18959.34960938  1831749.00000000 1458756.37500000 
0.09200    44655076.00000000 28432794.00000000 71259080.00000000 18429.30664062  1784827.75000000 1421443.87500000 
0.09300    43678608.00000000 27817448.00000000 69708408.00000000 17917.00195312  1739256.87500000 1385204.25000000 
0.09400    42726736.00000000 27217008.00000000 68195912.00000000 17421.95117188  1694996.75000000 1349980.37500000 
0.09500    41798452.00000000 26631496.00000000 66721944.00000000 16943.48632812  1652047.37500000 1315800.12500000 
0.09600    40894524.00000000 26060782.00000000 65284872.00000000 16481.42578125  1610372.12500000 1282625.50000000 
0.09700    40013856.00000000 25504592.00000000 63885080.00000000 16035.15917969  1569948.75000000 1250436.62500000 
0.09800    39156520.00000000 24962720.00000000 62522068.00000000 15604.20117188  1530747.37500000 1219216.50000000 
0.09900    38321828.00000000 24435344.00000000 61195184.00000000 15188.19531250  1492745.25000000 1188941.12500000 
0.10000    37509692.00000000 23921718.00000000 59903136.00000000 14786.63671875  1455894.87500000 1159575.37500000 
0.10100    36719740.00000000 23421926.00000000 58646592.00000000 14398.90625000  1420188.75000000 1131117.37500000 
0.10200    35951588.00000000 22935784.00000000 57424000.00000000 14024.65722656  1385585.62500000 1103537.12500000 
0.10300    35204908.00000000 22462870.00000000 56235432.00000000 13663.56152344  1352060.87500000 1076804.75000000 
0.10400    34479004.00000000 22003168.00000000 55080292.00000000 13314.90234375  1319571.12500000 1050899.87500000 
0.10500    33773984.00000000 21556274.00000000 53957728.00000000 12978.27832031  1288111.37500000 1025803.18750000 
0.10600    33088420.00000000 21121880.00000000 52865792.00000000 12653.31835938  1257621.12500000 1001478.12500000 
0.10700    32422994.00000000 20699904.00000000 51806312.00000000 12339.48730469  1228083.62500000 977911.62500000 
0.10800    31776566.00000000 20289868.00000000 50776492.00000000 12036.45312500  1199471.37500000 955082.18750000 
0.10900    31149020.00000000 19891648.00000000 49776632.00000000 11743.56738281  1171749.75000000 932959.37500000 
0.11000    30539416.00000000 19504884.00000000 48805900.00000000 11460.47949219  1144894.87500000 911518.68750000 
0.11100    29948122.00000000 19129306.00000000 47863224.00000000 11186.91601562  1118850.12500000 890730.56250000 
0.11200    29373718.00000000 18764842.00000000 46947928.00000000 10922.29882812  1093624.62500000 870585.25000000 
0.11300    28816466.00000000 18410612.00000000 46059292.00000000 10666.38378906  1069156.25000000 851048.50000000 
0.11400    28275370.00000000 18067000.00000000 45196912.00000000 10418.66308594  1045435.00000000 832105.62500000 
0.11500    27750134.00000000 17733408.00000000 44359544.00000000 10178.82421875  1022425.87500000 813730.18750000 
0.11600    27240196.00000000 17409348.00000000 43546460.00000000 9946.39160156   1000098.93750000 795899.43750000 
0.11700    26745284.00000000 17094946.00000000 42757268.00000000 9721.22265625   978435.12500000 778591.75000000 
0.11800    26264706.00000000 16789676.00000000 41991132.00000000 9502.73925781   957388.93750000 761779.62500000 
0.11900    25798004.00000000 16493044.00000000 41247216.00000000 9290.72070312   936946.18750000 745445.43750000 
0.12000    25344820.00000000 16205024.00000000 40524444.00000000 9084.87207031   917084.25000000 729579.68750000 
0.12100    24904704.00000000 15925453.00000000 39822868.00000000 8884.97753906   897770.50000000 714157.62500000 
0.12200    24476980.00000000 15653665.00000000 39141040.00000000 8690.54882812   878979.75000000 699147.93750000 
0.12300    24061518.00000000 15389690.00000000 38478560.00000000 8501.43164062   860694.75000000 684547.31250000 
0.12400    23657464.00000000 15133080.00000000 37834616.00000000 8317.41503906   842893.68750000 670319.00000000 
0.12500    23264638.00000000 14883593.00000000 37208696.00000000 8138.04785156   825542.56250000 656462.93750000 
0.12600    22882678.00000000 14641023.00000000 36599968.00000000 7963.38525391   808636.50000000 642956.31250000 
0.12700    22510952.00000000 14405076.00000000 36007392.00000000 7792.97460938   792141.18750000 629784.68750000 
0.12800    22149140.00000000 14175397.00000000 35430676.00000000 7626.66552734   776043.87500000 616929.62500000 
0.12900    21796888.00000000 13951922.00000000 34869504.00000000 7464.30664062   760323.75000000 604371.68750000 
0.13000    21453400.00000000 13734182.00000000 34322564.00000000 7305.68701172   744962.31250000 592111.06250000 
0.13100    21118898.00000000 13522005.00000000 33789804.00000000 7150.63330078   729938.62500000 580113.12500000 
0.13200    20792610.00000000 13315229.00000000 33270278.00000000 6998.99707031   715245.81250000 568380.62500000 
0.13300    20474454.00000000 13113571.00000000 32763592.00000000 6850.61816406   700867.00000000 556899.31250000 
0.13400    20163650.00000000 12916829.00000000 32268882.00000000 6705.32617188   686774.31250000 545653.12500000 
0.13500    19860108.00000000 12724624.00000000 31785960.00000000 6562.96582031   672973.06250000 534627.87500000 
0.13600    19563780.00000000 12536997.00000000 31313998.00000000 6423.53955078   659431.87500000 523820.68750000 
0.13700    19273802.00000000 12353526.00000000 30852660.00000000 6286.82275391   646145.25000000 513222.34375000 
0.13800    18990052.00000000 12174137.00000000 30401620.00000000 6152.76220703   633108.12500000 502815.09375000 
0.13900    18712166.00000000 11998692.00000000 29959922.00000000 6021.33886719   620302.37500000 492596.96875000 
0.14000    18440240.00000000 11826864.00000000 29527398.00000000 5892.29736328   607723.25000000 482557.84375000 
0.14100    18173610.00000000 11658514.00000000 29103754.00000000 5765.64501953   595351.12500000 472687.71875000 
0.14200    17912310.00000000 11493407.00000000 28688286.00000000 5641.35449219   583190.12500000 462985.06250000 
0.14300    17655738.00000000 11331594.00000000 28280796.00000000 5519.30371094   571225.00000000 453438.06250000 
0.14400    17403756.00000000 11172668.00000000 27880514.00000000 5399.42919922   559448.18750000 444039.09375000 
0.14500    17156336.00000000 11016676.00000000 27487514.00000000 5281.79101562   547854.75000000 434789.68750000 
0.14600    16913042.00000000 10863461.00000000 27101182.00000000 5166.23046875   536443.43750000 425683.18750000 
0.14700    16673793.00000000 10712727.00000000 26721356.00000000 5052.74755859   525201.50000000 416715.09375000 
0.14800    16438394.00000000 10564526.00000000 26347614.00000000 4941.25146484   514121.56250000 407874.59375000 
0.14900    16206509.00000000 10418478.00000000 25979732.00000000 4831.79443359   503202.37500000 399160.87500000 
0.15000    15978172.00000000 10274674.00000000 25617130.00000000 4724.30078125   492443.90625000 390573.43750000 
0.15100    15753032.00000000 10133088.00000000 25260082.00000000 4618.78076172   481836.93750000 382111.25000000 
0.15200    15531157.00000000 9993461.00000000 24907996.00000000 4515.18261719   471384.09375000 373767.40625000 
0.15300    15312197.00000000 9855735.00000000 24560534.00000000 4413.46386719   461080.09375000 365541.15625000 
0.15400    15096122.00000000 9719768.00000000 24217720.00000000 4313.67675781   450917.71875000 357428.53125000 
0.15500    14882736.00000000 9585552.00000000 23879102.00000000 4215.75439453   440901.03125000 349431.25000000 
0.15600    14671873.00000000 9453006.00000000 23544908.00000000 4119.70361328   431020.28125000 341543.46875000 
0.15700    14463808.00000000 9322046.00000000 23214464.00000000 4025.53662109   421286.59375000 333770.40625000 
0.15800    14257831.00000000 9192563.00000000 22887752.00000000 3933.15698242   411688.68750000 326104.59375000 
0.15900    14054307.00000000 9064540.00000000 22565028.00000000 3842.64916992   402230.75000000 318548.03125000 
0.16000    13853053.00000000 8937866.00000000 22245544.00000000 3753.94433594   392902.96875000 311098.15625000 
0.16100    13654058.00000000 8812666.00000000 21929682.00000000 3667.11767578   383722.90625000 303759.93750000 
0.16200    13457007.00000000 8688618.00000000 21616998.00000000 3582.08398438   374671.50000000 296528.84375000 
0.16300    13262000.00000000 8565902.00000000 21307482.00000000 3498.83154297   365757.53125000 289403.96875000 
0.16400    13069028.00000000 8444427.00000000 21001034.00000000 3417.39672852   356982.50000000 282389.50000000 
0.16500    12877945.00000000 8324047.00000000 20697752.00000000 3337.73559570   348342.87500000 275478.90625000 
0.16600    12688794.00000000 8204877.00000000 20397424.00000000 3259.85351562   339841.75000000 268677.43750000 
0.16700    12501508.00000000 8086792.00000000 20099866.00000000 3183.74780273   331471.53125000 261983.04687500 
0.16800    12315880.00000000 7969775.00000000 19805044.00000000 3109.36914062   323240.90625000 255397.93750000 
0.16900    12132273.00000000 7853886.00000000 19513118.00000000 3036.79223633   315149.18750000 248921.82812500 
0.17000    11950343.00000000 7739071.00000000 19224060.00000000 2965.91259766   307195.62500000 242552.39062500 
