# SAXS profile: number of points = 501, q_min = 0, q_max = 0.5, delta_q = 0.001
#    q    intensity 
0.00000    162233040.00000000 101201656.00000000 256271648.00000000 105785.42187500 8285539.50000000 6543898.00000000 
0.00100    162182320.00000000 101167656.00000000 256185456.00000000 105743.98437500 8282488.50000000 6541542.50000000 
0.00200    162026032.00000000 101066384.00000000 255928944.00000000 105620.00781250 8273492.00000000 6534361.50000000 
0.00300    161754656.00000000 100898032.00000000 255500288.00000000 105413.89843750 8258361.50000000 6522506.50000000 
0.00400    161371264.00000000 100662200.00000000 254900864.00000000 105127.28125000 8237327.50000000 6505969.50000000 
0.00500    160881152.00000000 100357912.00000000 254131712.00000000 104758.54687500 8210398.50000000 6484703.50000000 
0.00600    160288624.00000000 99990896.00000000 253197440.00000000 104310.81250000 8177588.00000000 6458888.00000000 
0.00700    159582896.00000000 99558880.00000000 252097664.00000000 103784.16406250 8139013.50000000 6428533.50000000 
0.00800    158782160.00000000 99064000.00000000 250836112.00000000 103181.57031250 8094806.50000000 6393700.50000000 
0.00900    157882416.00000000 98506472.00000000 249418448.00000000 102503.22656250 8045075.00000000 6354519.50000000 
0.01000    156885872.00000000 97885976.00000000 247841856.00000000 101751.75781250 7989968.50000000 6311144.50000000 
0.01100    155786640.00000000 97206888.00000000 246118240.00000000 100930.03125000 7929610.50000000 6263613.50000000 
0.01200    154596656.00000000 96468952.00000000 244245104.00000000 100038.03906250 7864099.00000000 6212012.00000000 
0.01300    153315520.00000000 95676184.00000000 242229456.00000000 99081.95312500  7793659.50000000 6156603.00000000 
0.01400    151949616.00000000 94830032.00000000 240076416.00000000 98060.18750000  7718554.50000000 6097413.50000000 
0.01500    150497360.00000000 93930488.00000000 237791184.00000000 96978.85156250  7638892.50000000 6034685.00000000 
0.01600    148965152.00000000 92980120.00000000 235379280.00000000 95839.32031250  7554851.00000000 5968499.50000000 
0.01700    147355136.00000000 91983952.00000000 232846208.00000000 94644.89062500  7466719.50000000 5899037.50000000 
0.01800    145673296.00000000 90941248.00000000 230196928.00000000 93398.70312500  7374675.50000000 5826541.50000000 
0.01900    143922048.00000000 89855632.00000000 227439056.00000000 92105.41406250  7279003.50000000 5751156.50000000 
0.02000    142106784.00000000 88728976.00000000 224578480.00000000 90765.89062500  7179861.50000000 5673027.00000000 
0.02100    140227232.00000000 87565696.00000000 221620576.00000000 89385.88281250  7077542.50000000 5592417.00000000 
0.02200    138293520.00000000 86366144.00000000 218576016.00000000 87967.74218750  6972285.50000000 5509425.00000000 
0.02300    136307168.00000000 85134144.00000000 215446704.00000000 86515.02343750  6864310.00000000 5424396.50000000 
0.02400    134272240.00000000 83871280.00000000 212241376.00000000 85031.78125000  6753882.50000000 5337352.00000000 
0.02500    132195064.00000000 82582224.00000000 208968080.00000000 83521.10937500  6641268.50000000 5248614.50000000 
0.02600    130077040.00000000 81268552.00000000 205632464.00000000 81987.18750000  6526733.00000000 5158356.00000000 
0.02700    127924960.00000000 79933816.00000000 202242624.00000000 80433.02343750  6410563.00000000 5066713.00000000 
0.02800    125743816.00000000 78578296.00000000 198804112.00000000 78862.34375000  6292933.00000000 4974003.50000000 
0.02900    123536176.00000000 77207416.00000000 195324672.00000000 77278.42187500  6174172.00000000 4880355.50000000 
0.03000    121307808.00000000 75823360.00000000 191811696.00000000 75685.69531250  6054421.50000000 4785988.50000000 
0.03100    119062424.00000000 74430168.00000000 188274608.00000000 74086.57812500  5934110.00000000 4691075.00000000 
0.03200    116806000.00000000 73028280.00000000 184715360.00000000 72485.46875000  5813304.00000000 4595855.50000000 
0.03300    114539888.00000000 71621296.00000000 181144160.00000000 70882.93750000  5692354.50000000 4500453.00000000 
0.03400    112271176.00000000 70210544.00000000 177565536.00000000 69285.34375000  5571373.50000000 4405038.50000000 
0.03500    110002160.00000000 68798832.00000000 173987072.00000000 67693.95312500  5450701.00000000 4309857.00000000 
0.03600    107737464.00000000 67390696.00000000 170415024.00000000 66111.26562500  5330531.00000000 4214992.00000000 
0.03700    105481328.00000000 65987704.00000000 166857472.00000000 64540.79296875  5211022.50000000 4120676.00000000 
0.03800    103236736.00000000 64590888.00000000 163316048.00000000 62984.91015625  5092399.00000000 4027101.25000000 
0.03900    101008920.00000000 63204640.00000000 159800880.00000000 61446.14453125  4974860.00000000 3934305.25000000 
0.04000    98798968.00000000 61829300.00000000 156313584.00000000 59927.15625000  4858525.00000000 3842553.00000000 
0.04100    96611920.00000000 60467472.00000000 152863008.00000000 58429.79687500  4743675.50000000 3751885.50000000 
0.04200    94450480.00000000 59121880.00000000 149450304.00000000 56955.34765625  4630395.00000000 3662449.25000000 
0.04300    92317640.00000000 57793416.00000000 146083424.00000000 55506.92968750  4518892.50000000 3574398.75000000 
0.04400    90215832.00000000 56484068.00000000 142765936.00000000 54085.02343750  4409201.00000000 3487836.00000000 
0.04500    88148632.00000000 55195816.00000000 139501408.00000000 52692.43750000  4301562.00000000 3402810.75000000 
0.04600    86117200.00000000 53930032.00000000 136294880.00000000 51329.11328125  4196023.50000000 3319468.25000000 
0.04700    84124552.00000000 52687988.00000000 133150760.00000000 49996.94921875  4092681.75000000 3237873.25000000 
0.04800    82173176.00000000 51471192.00000000 130067696.00000000 48697.04296875  3991692.00000000 3158104.50000000 
0.04900    80263880.00000000 50280732.00000000 127053072.00000000 47430.27734375  3893081.75000000 3080208.00000000 
0.05000    78399832.00000000 49118036.00000000 124108048.00000000 46196.83593750  3796943.75000000 3004280.75000000 
0.05100    76581152.00000000 47983692.00000000 121235280.00000000 44997.71093750  3703313.75000000 2930331.50000000 
0.05200    74809488.00000000 46878156.00000000 118436920.00000000 43833.37500000  3612296.00000000 2858383.25000000 
0.05300    73086304.00000000 45803636.00000000 115714088.00000000 42703.87500000  3523869.25000000 2788532.25000000 
0.05400    71411752.00000000 44758848.00000000 113070000.00000000 41608.92968750  3438069.75000000 2720751.00000000 
0.05500    69788136.00000000 43745632.00000000 110504296.00000000 40549.37109375  3354932.50000000 2655069.25000000 
0.05600    68214280.00000000 42763628.00000000 108017128.00000000 39524.31640625  3274464.00000000 2591469.25000000 
0.05700    66691992.00000000 41813384.00000000 105611440.00000000 38533.30078125  3196624.00000000 2529984.25000000 
0.05800    65219632.00000000 40894960.00000000 103287168.00000000 37576.71875000  3121449.50000000 2470612.75000000 
0.05900    63798912.00000000 40008364.00000000 101041560.00000000 36653.76953125  3048913.25000000 2413268.75000000 
0.06000    62429296.00000000 39153872.00000000 98877792.00000000 35763.76953125  2978942.50000000 2357995.75000000 
0.06100    61110272.00000000 38330612.00000000 96794464.00000000 34905.68359375  2911543.75000000 2304745.75000000 
0.06200    59841752.00000000 37539208.00000000 94790160.00000000 34079.55859375  2846674.50000000 2253468.75000000 
0.06300    58622632.00000000 36778896.00000000 92864760.00000000 33283.80078125  2784267.50000000 2204202.25000000 
0.06400    57452584.00000000 36049412.00000000 91017344.00000000 32517.66601562  2724225.00000000 2156776.25000000 
0.06500    56330904.00000000 35350296.00000000 89245576.00000000 31780.62500000  2666578.75000000 2111279.50000000 
0.06600    55256324.00000000 34681048.00000000 87549496.00000000 31071.06054688  2611234.75000000 2067558.25000000 
0.06700    54227784.00000000 34040600.00000000 85926632.00000000 30388.30078125  2558040.00000000 2025569.75000000 
0.06800    53244480.00000000 33428946.00000000 84375208.00000000 29731.21875000  2507014.50000000 1985280.87500000 
0.06900    52305164.00000000 32844842.00000000 82893472.00000000 29098.75195312  2458054.75000000 1946649.50000000 
0.07000    51408336.00000000 32287222.00000000 81478504.00000000 28489.67187500  2411050.50000000 1909556.50000000 
0.07100    50552416.00000000 31756270.00000000 80131328.00000000 27902.67382812  2365932.25000000 1873997.00000000 
0.07200    49736384.00000000 31249866.00000000 78844528.00000000 27336.68750000  2322638.50000000 1839834.75000000 
0.07300    48958224.00000000 30767770.00000000 77619888.00000000 26790.78906250  2281060.50000000 1807058.87500000 
0.07400    48217132.00000000 30308838.00000000 76453112.00000000 26263.70312500  2241082.50000000 1775581.75000000 
0.07500    47510856.00000000 29872022.00000000 75342328.00000000 25754.35742188  2202696.25000000 1745319.62500000 
0.07600    46837476.00000000 29456422.00000000 74283872.00000000 25261.68164062  2165749.50000000 1716225.87500000 
0.07700    46196496.00000000 29061364.00000000 73277512.00000000 24784.59960938  2130148.25000000 1688212.75000000 
0.07800    45585008.00000000 28685366.00000000 72318856.00000000 24321.90820312  2095868.62500000 1661230.62500000 
0.07900    45002352.00000000 28327320.00000000 71405152.00000000 23872.90039062  2062772.50000000 1635200.37500000 
0.08000    44446548.00000000 27986470.00000000 70533496.00000000 23436.40820312  2030775.87500000 1610047.62500000 
0.08100    43915824.00000000 27661756.00000000 69703464.00000000 23011.45898438  1999857.75000000 1585748.75000000 
0.08200    43408100.00000000 27351868.00000000 68909856.00000000 22597.50781250  1969865.87500000 1562166.50000000 
0.08300    42922772.00000000 27055710.00000000 68151952.00000000 22193.18945312  1940765.00000000 1539318.25000000 
0.08400    42457104.00000000 26772816.00000000 67425576.00000000 21798.38085938  1912462.87500000 1517098.87500000 
0.08500    42010396.00000000 26501774.00000000 66729760.00000000 21411.87109375  1884913.37500000 1495460.50000000 
0.08600    41581132.00000000 26241620.00000000 66060860.00000000 21033.34765625  1858041.62500000 1474364.37500000 
0.08700    41167132.00000000 25991556.00000000 65417272.00000000 20661.85546875  1831752.75000000 1453747.37500000 
0.08800    40767816.00000000 25750656.00000000 64796760.00000000 20296.66210938  1806010.25000000 1433573.75000000 
0.08900    40380904.00000000 25518074.00000000 64196340.00000000 19937.69921875  1780780.00000000 1413773.75000000 
0.09000    40005684.00000000 25292612.00000000 63614284.00000000 19584.25000000  1755983.00000000 1394318.12500000 
0.09100    39640028.00000000 25073892.00000000 63048568.00000000 19236.16796875  1731581.25000000 1375188.12500000 
0.09200    39284284.00000000 24860662.00000000 62496992.00000000 18892.55273438  1707512.12500000 1356306.62500000 
0.09300    38935932.00000000 24652446.00000000 61958284.00000000 18553.42187500  1683766.37500000 1337663.75000000 
0.09400    38594336.00000000 24448572.00000000 61429760.00000000 18218.32031250  1660265.25000000 1319229.25000000 
0.09500    38257936.00000000 24248116.00000000 60910128.00000000 17887.20312500  1637003.75000000 1300974.87500000 
0.09600    37926660.00000000 24050688.00000000 60397888.00000000 17559.95117188  1613933.25000000 1282870.62500000 
0.09700    37599088.00000000 23855476.00000000 59891976.00000000 17235.77148438  1591024.62500000 1264898.25000000 
0.09800    37274120.00000000 23662182.00000000 59390376.00000000 16915.09765625  1568298.62500000 1247022.37500000 
0.09900    36951744.00000000 23470084.00000000 58892368.00000000 16597.88867188  1545684.37500000 1229245.37500000 
0.10000    36630440.00000000 23278600.00000000 58395696.00000000 16283.67968750  1523156.50000000 1211560.75000000 
0.10100    36309792.00000000 23087444.00000000 57900392.00000000 15972.44628906  1500740.12500000 1193922.50000000 
0.10200    35989160.00000000 22896208.00000000 57405060.00000000 15664.55175781  1478409.50000000 1176355.62500000 
0.10300    35668264.00000000 22704562.00000000 56908796.00000000 15359.61914062  1456146.12500000 1158822.87500000 
0.10400    35346732.00000000 22512136.00000000 56410564.00000000 15057.80468750  1433942.75000000 1141335.12500000 
0.10500    35023880.00000000 22318890.00000000 55910440.00000000 14759.34082031  1411812.62500000 1123891.00000000 
0.10600    34699156.00000000 22124280.00000000 55406992.00000000 14463.84179688  1389732.50000000 1106476.12500000 
0.10700    34372328.00000000 21927742.00000000 54899936.00000000 14171.75878906  1367725.00000000 1089105.25000000 
0.10800    34043368.00000000 21729788.00000000 54389268.00000000 13882.86718750  1345756.87500000 1071766.75000000 
0.10900    33712212.00000000 21529990.00000000 53874200.00000000 13597.33789062  1323871.25000000 1054464.25000000 
0.11000    33378490.00000000 21328176.00000000 53354444.00000000 13315.31445312  1302044.62500000 1037212.87500000 
0.11100    33041938.00000000 21124252.00000000 52830200.00000000 13036.81250000  1280298.62500000 1020000.25000000 
0.11200    32702568.00000000 20917936.00000000 52301340.00000000 12761.96191406  1258623.50000000 1002844.62500000 
0.11300    32360106.00000000 20709836.00000000 51767176.00000000 12490.90722656  1237023.37500000 985748.43750000 
0.11400    32015334.00000000 20499736.00000000 51228048.00000000 12223.61621094  1215553.37500000 968714.18750000 
0.11500    31667452.00000000 20287182.00000000 50684124.00000000 11960.07617188  1194151.50000000 951753.68750000 
0.11600    31316918.00000000 20072686.00000000 50135152.00000000 11700.51367188  1172902.75000000 934875.93750000 
0.11700    30964110.00000000 19855876.00000000 49581888.00000000 11444.99023438  1151755.62500000 918082.62500000 
0.11800    30608248.00000000 19637232.00000000 49023800.00000000 11193.48242188  1130735.25000000 901393.37500000 
0.11900    30250300.00000000 19416492.00000000 48461304.00000000 10946.02050781  1109871.62500000 884796.43750000 
0.12000    29890272.00000000 19194178.00000000 47895188.00000000 10702.62597656  1089161.25000000 868322.25000000 
0.12100    29528108.00000000 18970028.00000000 47325644.00000000 10463.47949219  1068624.75000000 851969.81250000 
0.12200    29164268.00000000 18744572.00000000 46751924.00000000 10228.51269531  1048258.31250000 835749.68750000 
0.12300    28798886.00000000 18517378.00000000 46175544.00000000 9997.66699219   1028060.25000000 819672.12500000 
0.12400    28432252.00000000 18289136.00000000 45596808.00000000 9770.98242188   1008065.18750000 803734.50000000 
0.12500    28064012.00000000 18059616.00000000 45014704.00000000 9548.48632812   988274.81250000 787948.06250000 
0.12600    27695352.00000000 17829138.00000000 44432100.00000000 9330.27246094   968707.43750000 772333.93750000 
0.12700    27325962.00000000 17598094.00000000 43847304.00000000 9116.02539062   949343.18750000 756886.62500000 
0.12800    26956040.00000000 17366202.00000000 43261724.00000000 8906.01367188   930215.12500000 741605.31250000 
0.12900    26585868.00000000 17133964.00000000 42675244.00000000 8700.05566406   911316.81250000 726515.56250000 
0.13000    26216270.00000000 16901400.00000000 42088528.00000000 8498.23535156   892657.50000000 711602.37500000 
0.13100    25846640.00000000 16668672.00000000 41501824.00000000 8300.28222656   874235.37500000 696889.56250000 
0.13200    25477824.00000000 16436022.00000000 40915980.00000000 8106.36083984   856071.18750000 682371.37500000 
0.13300    25110010.00000000 16203591.00000000 40331112.00000000 7916.29882812   838165.68750000 668049.81250000 
0.13400    24742900.00000000 15971487.00000000 39746968.00000000 7730.00634766   820512.31250000 653926.37500000 
0.13500    24377472.00000000 15739898.00000000 39164720.00000000 7547.58642578   803115.25000000 640012.18750000 
0.13600    24013176.00000000 15509010.00000000 38584960.00000000 7368.81982422   785993.31250000 626311.56250000 
0.13700    23650890.00000000 15279151.00000000 38007212.00000000 7193.67968750   769129.50000000 612816.06250000 
0.13800    23290494.00000000 15050150.00000000 37432640.00000000 7022.13525391   752535.31250000 599534.93750000 
0.13900    22932312.00000000 14822321.00000000 36861364.00000000 6854.15869141   736206.00000000 586467.00000000 
0.14000    22576566.00000000 14595576.00000000 36293708.00000000 6689.61083984   720155.12500000 573611.87500000 
0.14100    22223390.00000000 14370479.00000000 35729484.00000000 6528.43164062   704370.43750000 560975.25000000 
0.14200    21872932.00000000 14146726.00000000 35169348.00000000 6370.57861328   688849.68750000 548552.87500000 
0.14300    21525446.00000000 13924829.00000000 34614080.00000000 6216.01367188   673603.62500000 536352.56250000 
0.14400    21180830.00000000 13704498.00000000 34062796.00000000 6064.57958984   658612.87500000 524354.56250000 
0.14500    20839396.00000000 13486033.00000000 33516760.00000000 5916.45117188   643904.56250000 512572.21875000 
0.14600    20501266.00000000 13269647.00000000 32975732.00000000 5771.31298828   629451.00000000 501005.81250000 
0.14700    20166676.00000000 13055370.00000000 32439910.00000000 5629.29492188   615264.62500000 489651.87500000 
0.14800    19835562.00000000 12843126.00000000 31909692.00000000 5490.22705078   601339.37500000 478502.03125000 
0.14900    19508228.00000000 12632960.00000000 31384880.00000000 5354.19775391   587671.93750000 467562.68750000 
0.15000    19184446.00000000 12425202.00000000 30866324.00000000 5221.13916016   574250.43750000 456826.06250000 
0.15100    18864502.00000000 12219749.00000000 30353578.00000000 5090.95312500   561093.12500000 446297.12500000 
0.15200    18548508.00000000 12016743.00000000 29847102.00000000 4963.66308594   548189.81250000 435973.81250000 
0.15300    18236536.00000000 11816138.00000000 29346704.00000000 4839.21875000   535529.43750000 425841.84375000 
0.15400    17928406.00000000 11617938.00000000 28852532.00000000 4717.58544922   523119.31250000 415911.31250000 
0.15500    17624414.00000000 11422450.00000000 28364886.00000000 4598.78369141   510951.15625000 406172.31250000 
0.15600    17324704.00000000 11229394.00000000 27883704.00000000 4482.75439453   499016.53125000 396626.65625000 
0.15700    17028794.00000000 11039013.00000000 27409298.00000000 4369.51220703   487329.12500000 387275.87500000 
0.15800    16737078.00000000 10851140.00000000 26940916.00000000 4258.95019531   475863.18750000 378105.09375000 
0.15900    16449658.00000000 10665895.00000000 26479540.00000000 4151.17919922   464631.56250000 369125.78125000 
0.16000    16166254.00000000 10483305.00000000 26024438.00000000 4046.10449219   453632.21875000 360323.15625000 
0.16100    15887273.00000000 10303383.00000000 25576650.00000000 3943.78295898   442854.40625000 351702.21875000 
0.16200    15612419.00000000 10126068.00000000 25135064.00000000 3844.13012695   432302.03125000 343258.37500000 
0.16300    15341658.00000000 9951545.00000000 24700212.00000000 3747.13964844   421963.50000000 334988.84375000 
0.16400    15075163.00000000 9779467.00000000 24271828.00000000 3652.80175781   411843.28125000 326891.09375000 
0.16500    14812607.00000000 9610079.00000000 23850352.00000000 3561.13964844   401935.78125000 318961.12500000 
0.16600    14554316.00000000 9443368.00000000 23435316.00000000 3472.02661133   392235.81250000 311199.90625000 
0.16700    14300007.00000000 9279239.00000000 23026522.00000000 3385.54663086   382743.03125000 303603.71875000 
0.16800    14049840.00000000 9117679.00000000 22624572.00000000 3301.63671875   373453.46875000 296164.75000000 
0.16900    13803726.00000000 8958736.00000000 22228974.00000000 3220.29199219   364368.75000000 288888.28125000 
0.17000    13561590.00000000 8802266.00000000 21839776.00000000 3141.44824219   355472.90625000 281763.87500000 
