# SAXS profile: number of points = 501, q_min = 0, q_max = 0.5, delta_q = 0.001
#    q    intensity 
0.00000    162236064.00000000 101201552.00000000 256270352.00000000 100556.38281250 8078164.00000000 6380104.50000000 
0.00100    162204080.00000000 101180832.00000000 256218272.00000000 100529.00781250 8076234.50000000 6378620.00000000 
0.00200    162107984.00000000 101119872.00000000 256061824.00000000 100448.94531250 8070498.00000000 6374078.00000000 
0.00300    161942384.00000000 101016952.00000000 255799808.00000000 100315.90625000 8061010.00000000 6366638.50000000 
0.00400    161709392.00000000 100873616.00000000 255433360.00000000 100130.00781250 8047682.50000000 6356181.00000000 
0.00500    161409184.00000000 100688472.00000000 254965584.00000000 99891.15625000  8030620.00000000 6342748.50000000 
0.00600    161042912.00000000 100462576.00000000 254390848.00000000 99600.83593750  8009814.00000000 6326417.50000000 
0.00700    160612592.00000000 100197008.00000000 253714816.00000000 99258.97656250  7985296.50000000 6307145.50000000 
0.00800    160114016.00000000 99892776.00000000 252938816.00000000 98865.74218750  7957139.00000000 6285012.50000000 
0.00900    159554384.00000000 99548672.00000000 252061648.00000000 98421.68750000  7925310.50000000 6259994.50000000 
0.01000    158932496.00000000 99165688.00000000 251084928.00000000 97928.35937500  7889916.00000000 6232218.50000000 
0.01100    158249920.00000000 98744920.00000000 250011712.00000000 97386.67187500  7851016.00000000 6201662.00000000 
0.01200    157506592.00000000 98285952.00000000 248841296.00000000 96797.32812500  7808682.00000000 6168416.00000000 
0.01300    156701232.00000000 97789880.00000000 247576720.00000000 96161.18750000  7762994.50000000 6132483.50000000 
0.01400    155836032.00000000 97257168.00000000 246220688.00000000 95479.68750000  7713921.00000000 6093989.50000000 
0.01500    154913424.00000000 96688192.00000000 244772768.00000000 94753.21875000  7661672.00000000 6052883.50000000 
0.01600    153934768.00000000 96085000.00000000 243235312.00000000 93983.67968750  7606241.50000000 6009348.50000000 
0.01700    152901872.00000000 95448096.00000000 241612608.00000000 93172.31250000  7547745.00000000 5963377.00000000 
0.01800    151813792.00000000 94778072.00000000 239905968.00000000 92321.17968750  7486283.00000000 5915064.50000000 
0.01900    150674512.00000000 94075888.00000000 238116896.00000000 91430.39843750  7421916.00000000 5864468.50000000 
0.02000    149484784.00000000 93341656.00000000 236245824.00000000 90502.08593750  7354793.50000000 5811705.50000000 
0.02100    148245232.00000000 92577656.00000000 234300960.00000000 89537.46875000  7284964.50000000 5756789.00000000 
0.02200    146959008.00000000 91784200.00000000 232280272.00000000 88539.07031250  7212557.50000000 5699904.50000000 
0.02300    145626848.00000000 90962560.00000000 230188128.00000000 87508.14843750  7137660.00000000 5641017.00000000 
0.02400    144250864.00000000 90114096.00000000 228026736.00000000 86445.29687500  7060438.50000000 5580296.00000000 
0.02500    142833696.00000000 89239680.00000000 225797776.00000000 85352.95312500  6980961.00000000 5517783.50000000 
0.02600    141375232.00000000 88339544.00000000 223507600.00000000 84233.94531250  6899333.50000000 5453622.00000000 
0.02700    139878496.00000000 87415808.00000000 221157872.00000000 83088.41406250  6815713.50000000 5387862.50000000 
0.02800    138347760.00000000 86469888.00000000 218748928.00000000 81918.81250000  6730180.50000000 5320584.00000000 
0.02900    136780560.00000000 85502336.00000000 216286864.00000000 80726.51562500  6642866.50000000 5251895.50000000 
0.03000    135181824.00000000 84514744.00000000 213773584.00000000 79514.25000000  6553925.50000000 5181916.00000000 
0.03100    133552032.00000000 83508232.00000000 211213072.00000000 78283.21093750  6463439.00000000 5110745.00000000 
0.03200    131894192.00000000 82484232.00000000 208605904.00000000 77035.47656250  6371548.50000000 5038470.00000000 
0.03300    130210728.00000000 81443776.00000000 205959744.00000000 75772.74218750  6278376.50000000 4965138.50000000 
0.03400    128503176.00000000 80387912.00000000 203273456.00000000 74496.10156250  6184060.00000000 4890918.00000000 
0.03500    126772712.00000000 79318520.00000000 200553856.00000000 73208.62500000  6088696.00000000 4815883.50000000 
0.03600    125023144.00000000 78236480.00000000 197800096.00000000 71910.75000000  5992432.00000000 4740096.50000000 
0.03700    123254760.00000000 77142440.00000000 195019632.00000000 70605.60156250  5895378.00000000 4663687.00000000 
0.03800    121470456.00000000 76039120.00000000 192212528.00000000 69294.70312500  5797629.50000000 4586722.50000000 
0.03900    119672368.00000000 74926720.00000000 189384544.00000000 67978.50000000  5699350.50000000 4509372.00000000 
0.04000    117863112.00000000 73806864.00000000 186536864.00000000 66660.60156250  5600673.00000000 4431643.00000000 
0.04100    116043400.00000000 72681080.00000000 183673376.00000000 65340.78906250  5501616.50000000 4353626.00000000 
0.04200    114215688.00000000 71548768.00000000 180795344.00000000 64021.51953125  5402406.50000000 4275508.50000000 
0.04300    112382072.00000000 70412784.00000000 177908528.00000000 62704.65625000  5303138.50000000 4197263.00000000 
0.04400    110544256.00000000 69273264.00000000 175016144.00000000 61391.17187500  5203825.50000000 4119019.25000000 
0.04500    108704000.00000000 68133368.00000000 172119104.00000000 60082.76953125  5104670.50000000 4040877.75000000 
0.04600    106863712.00000000 66992332.00000000 169221648.00000000 58780.92578125  5005777.00000000 3962931.00000000 
0.04700    105025568.00000000 65852032.00000000 166324944.00000000 57487.01562500  4907211.50000000 3885233.25000000 
0.04800    103190048.00000000 64713576.00000000 163434768.00000000 56202.52343750  4809100.00000000 3807869.75000000 
0.04900    101360080.00000000 63577560.00000000 160550240.00000000 54928.47265625  4711473.00000000 3730914.25000000 
0.05000    99535944.00000000 62445940.00000000 157676768.00000000 53666.17968750  4614476.50000000 3654439.75000000 
0.05100    97721032.00000000 61318868.00000000 154815712.00000000 52416.60937500  4518255.50000000 3578520.25000000 
0.05200    95915472.00000000 60197432.00000000 151968416.00000000 51181.09375000  4422773.00000000 3503217.75000000 
0.05300    94121744.00000000 59082600.00000000 149141216.00000000 49960.52343750  4328181.50000000 3428593.50000000 
0.05400    92340160.00000000 57975836.00000000 146332960.00000000 48756.13281250  4234554.50000000 3354700.50000000 
0.05500    90573624.00000000 56877512.00000000 143545568.00000000 47568.60546875  4141982.00000000 3281645.75000000 
0.05600    88822472.00000000 55788472.00000000 140784368.00000000 46398.92968750  4050476.75000000 3209420.50000000 
0.05700    87088936.00000000 54709488.00000000 138048672.00000000 45247.97656250  3960165.75000000 3138112.50000000 
0.05800    85372800.00000000 53641448.00000000 135341200.00000000 44115.96093750  3871055.00000000 3067739.50000000 
0.05900    83674976.00000000 52585692.00000000 132664208.00000000 43003.84375000  3783230.50000000 2998394.75000000 
0.06000    81999608.00000000 51541728.00000000 130019344.00000000 41912.37500000  3696760.75000000 2930096.75000000 
0.06100    80344744.00000000 50510868.00000000 127406960.00000000 40841.90625000  3611659.75000000 2862867.25000000 
0.06200    78712280.00000000 49494012.00000000 124830152.00000000 39792.83984375  3527988.00000000 2796743.75000000 
0.06300    77103832.00000000 48491112.00000000 122289152.00000000 38765.48046875  3445807.50000000 2731799.50000000 
0.06400    75519288.00000000 47502636.00000000 119786648.00000000 37760.56640625  3365101.25000000 2668005.25000000 
0.06500    73958992.00000000 46530028.00000000 117322832.00000000 36777.79687500  3285957.50000000 2605436.25000000 
0.06600    72425608.00000000 45572800.00000000 114899752.00000000 35818.11328125  3208341.75000000 2544073.75000000 
0.06700    70918704.00000000 44631888.00000000 112517296.00000000 34881.24609375  3132333.00000000 2483945.50000000 
0.06800    69437688.00000000 43707300.00000000 110177864.00000000 33967.08593750  3057933.75000000 2425122.25000000 
0.06900    67984328.00000000 42799884.00000000 107881104.00000000 33075.95703125  2985156.00000000 2367550.50000000 
0.07000    66559744.00000000 41909320.00000000 105628056.00000000 32208.25585938  2914038.25000000 2311255.25000000 
0.07100    65163088.00000000 41035940.00000000 103418720.00000000 31363.22460938  2844538.50000000 2256252.75000000 
0.07200    63794808.00000000 40180540.00000000 101255464.00000000 30541.19726562  2776681.00000000 2202554.75000000 
0.07300    62455692.00000000 39342916.00000000 99136704.00000000 29741.75585938  2710505.25000000 2150169.75000000 
0.07400    61145976.00000000 38523180.00000000 97063976.00000000 28964.77539062  2645967.00000000 2099065.50000000 
0.07500    59865092.00000000 37721668.00000000 95037336.00000000 28210.28320312  2583079.00000000 2049249.00000000 
0.07600    58613548.00000000 36937976.00000000 93057736.00000000 27477.78906250  2521803.50000000 2000733.00000000 
0.07700    57391508.00000000 36172712.00000000 91122824.00000000 26767.02734375  2462181.00000000 1953491.12500000 
0.07800    56199088.00000000 35425632.00000000 89234944.00000000 26077.61523438  2404143.00000000 1907525.50000000 
0.07900    55035568.00000000 34696376.00000000 87392592.00000000 25409.15429688  2347707.75000000 1862820.37500000 
0.08000    53901800.00000000 33985556.00000000 85597376.00000000 24761.64453125  2292865.50000000 1819352.12500000 
0.08100    52796956.00000000 33292740.00000000 83847544.00000000 24133.83789062  2239566.50000000 1777115.87500000 
0.08200    51720692.00000000 32617928.00000000 82143584.00000000 23526.18359375  2187805.75000000 1736062.37500000 
0.08300    50673088.00000000 31960706.00000000 80483488.00000000 22937.68359375  2137528.00000000 1696237.00000000 
0.08400    49653736.00000000 31321268.00000000 78869136.00000000 22367.87890625  2088756.12500000 1657544.75000000 
0.08500    48662748.00000000 30699318.00000000 77298464.00000000 21816.63281250  2041409.00000000 1620018.50000000 
0.08600    47699128.00000000 30094246.00000000 75771056.00000000 21282.93164062  1995490.00000000 1583617.00000000 
0.08700    46762516.00000000 29506586.00000000 74287280.00000000 20766.56640625  1950962.75000000 1548291.75000000 
0.08800    45852988.00000000 28935320.00000000 72845616.00000000 20266.82617188  1907775.62500000 1514046.00000000 
0.08900    44969220.00000000 28380526.00000000 71444928.00000000 19783.24414062  1865917.87500000 1480831.00000000 
0.09000    44111720.00000000 27841932.00000000 70085784.00000000 19315.32617188  1825323.50000000 1448639.00000000 
0.09100    43279212.00000000 27319268.00000000 68766488.00000000 18862.44726562  1785970.12500000 1417419.87500000 
0.09200    42471560.00000000 26811948.00000000 67485928.00000000 18424.02148438  1747828.50000000 1387170.75000000 
0.09300    41688072.00000000 26319880.00000000 66244232.00000000 17999.65625000  1710860.37500000 1357843.75000000 
0.09400    40927812.00000000 25842406.00000000 65039524.00000000 17588.28515625  1674992.50000000 1329400.37500000 
0.09500    40190644.00000000 25379486.00000000 63871060.00000000 17189.95312500  1640239.75000000 1301821.12500000 
0.09600    39475844.00000000 24930798.00000000 62738148.00000000 16804.01367188  1606525.87500000 1275089.12500000 
0.09700    38782848.00000000 24495826.00000000 61639984.00000000 16429.76171875  1573834.00000000 1249155.25000000 
0.09800    38110824.00000000 24073810.00000000 60574416.00000000 16066.66503906  1542100.25000000 1223994.62500000 
0.09900    37458844.00000000 23664844.00000000 59542032.00000000 15714.38671875  1511310.62500000 1199569.00000000 
0.10000    36826676.00000000 23268254.00000000 58540432.00000000 15372.27246094  1481407.25000000 1175854.87500000 
0.10100    36213580.00000000 22883896.00000000 57569604.00000000 15039.85937500  1452359.87500000 1152826.62500000 
0.10200    35618956.00000000 22510968.00000000 56627876.00000000 14716.64746094  1424146.00000000 1130445.87500000 
0.10300    35041800.00000000 22149338.00000000 55714000.00000000 14402.21093750  1396698.50000000 1108695.00000000 
0.10400    34482196.00000000 21798596.00000000 54827756.00000000 14096.23437500  1370000.25000000 1087530.87500000 
0.10500    33938592.00000000 21458398.00000000 53967456.00000000 13798.11718750  1344018.25000000 1066932.37500000 
0.10600    33410660.00000000 21128032.00000000 53132140.00000000 13507.47949219  1318696.75000000 1046877.68750000 
0.10700    32897808.00000000 20807344.00000000 52320904.00000000 13223.96875000  1294034.50000000 1027325.18750000 
0.10800    32399202.00000000 20495576.00000000 51532504.00000000 12947.03515625  1269966.00000000 1008261.00000000 
0.10900    31914578.00000000 20192794.00000000 50766124.00000000 12676.60546875  1246484.00000000 989657.43750000 
0.11000    31442956.00000000 19898364.00000000 50021088.00000000 12412.25488281  1223542.62500000 971488.50000000 
0.11100    30983800.00000000 19611976.00000000 49295852.00000000 12153.43066406  1201117.37500000 953734.81250000 
0.11200    30536600.00000000 19333226.00000000 48589268.00000000 11900.17187500  1179189.12500000 936362.81250000 
0.11300    30100680.00000000 19061728.00000000 47901160.00000000 11651.96679688  1157715.12500000 919359.75000000 
0.11400    29675418.00000000 18797108.00000000 47229996.00000000 11408.60156250  1136680.87500000 902707.43750000 
0.11500    29260286.00000000 18538950.00000000 46575596.00000000 11169.94921875  1116050.62500000 886376.68750000 
0.11600    28854868.00000000 18286872.00000000 45935572.00000000 10935.59863281  1095805.00000000 870356.93750000 
0.11700    28458574.00000000 18040676.00000000 45310816.00000000 10705.49609375  1075929.75000000 854630.37500000 
0.11800    28070398.00000000 17799926.00000000 44699816.00000000 10479.17968750  1056392.50000000 839168.12500000 
0.11900    27690588.00000000 17564388.00000000 44101304.00000000 10256.76269531  1037175.56250000 823972.25000000 
0.12000    27318286.00000000 17333800.00000000 43514948.00000000 10037.95605469  1018269.43750000 809005.68750000 
0.12100    26953140.00000000 17107750.00000000 42940428.00000000 9822.65332031   999650.50000000 794276.06250000 
0.12200    26594420.00000000 16885848.00000000 42375820.00000000 9610.72167969   981296.25000000 779753.25000000 
0.12300    26242056.00000000 16668079.00000000 41822072.00000000 9401.95996094   963203.43750000 765436.56250000 
0.12400    25895566.00000000 16454036.00000000 41277056.00000000 9196.32714844   945349.18750000 751310.50000000 
0.12500    25554618.00000000 16243475.00000000 40740892.00000000 8993.77441406   927719.62500000 737366.87500000 
0.12600    25218602.00000000 16036246.00000000 40213008.00000000 8794.16699219   910324.31250000 723596.81250000 
0.12700    24887360.00000000 15832038.00000000 39692748.00000000 8597.47167969   893125.25000000 709991.18750000 
0.12800    24560654.00000000 15630578.00000000 39179364.00000000 8403.47851562   876129.31250000 696537.50000000 
0.12900    24237938.00000000 15431869.00000000 38672728.00000000 8212.35351562   859325.93750000 683237.37500000 
0.13000    23918968.00000000 15235511.00000000 38172100.00000000 8023.98535156   842703.56250000 670075.68750000 
0.13100    23603642.00000000 15041485.00000000 37677340.00000000 7838.27783203   826255.37500000 657058.37500000 
0.13200    23291702.00000000 14849475.00000000 37187496.00000000 7655.29199219   809982.68750000 644168.50000000 
0.13300    22982876.00000000 14659457.00000000 36702688.00000000 7474.95751953   793874.93750000 631409.43750000 
0.13400    22676752.00000000 14471226.00000000 36222588.00000000 7297.29785156   777931.25000000 618780.43750000 
0.13500    22373592.00000000 14284676.00000000 35746616.00000000 7122.26611328   762152.31250000 606274.43750000 
0.13600    22072554.00000000 14099738.00000000 35274284.00000000 6949.89160156   746522.81250000 593888.43750000 
0.13700    21774172.00000000 13916083.00000000 34806124.00000000 6780.19628906   731055.00000000 581623.37500000 
0.13800    21477862.00000000 13733855.00000000 34341380.00000000 6613.08007812   715740.31250000 569476.00000000 
0.13900    21183786.00000000 13552882.00000000 33879432.00000000 6448.75732422   700582.00000000 557452.68750000 
0.14000    20891650.00000000 13373015.00000000 33420878.00000000 6287.06884766   685573.56250000 545546.56250000 
0.14100    20601160.00000000 13194343.00000000 32964998.00000000 6128.06933594   670731.56250000 533761.06250000 
0.14200    20312880.00000000 13016663.00000000 32512000.00000000 5971.81494141   656035.37500000 522089.68750000 
0.14300    20026058.00000000 12840054.00000000 32061668.00000000 5818.24316406   641501.68750000 510543.96875000 
0.14400    19740854.00000000 12664302.00000000 31613654.00000000 5667.40039062   627125.93750000 499121.71875000 
0.14500    19457412.00000000 12489469.00000000 31168226.00000000 5519.36621094   612908.12500000 487821.18750000 
0.14600    19175478.00000000 12315572.00000000 30725166.00000000 5374.07421875   598859.68750000 476644.09375000 
0.14700    18895460.00000000 12142527.00000000 30284620.00000000 5231.56787109   584975.00000000 465600.53125000 
0.14800    18616708.00000000 11970317.00000000 29846088.00000000 5091.85986328   571255.56250000 454680.43750000 
0.14900    18339506.00000000 11798883.00000000 29410124.00000000 4954.92675781   557710.62500000 443895.96875000 
0.15000    18063934.00000000 11628326.00000000 28976158.00000000 4820.78759766   544334.50000000 433243.21875000 
0.15100    17789932.00000000 11458692.00000000 28544648.00000000 4689.51025391   531139.31250000 422727.53125000 
0.15200    17517510.00000000 11289794.00000000 28115492.00000000 4561.01513672   518120.93750000 412350.59375000 
0.15300    17246684.00000000 11121842.00000000 27688612.00000000 4435.33105469   505287.28125000 402115.87500000 
0.15400    16977472.00000000 10954650.00000000 27264246.00000000 4312.46728516   492632.96875000 392019.96875000 
0.15500    16710103.00000000 10788442.00000000 26842438.00000000 4192.35888672   480168.75000000 382071.87500000 
0.15600    16444356.00000000 10623137.00000000 26423006.00000000 4075.10058594   467894.06250000 372270.68750000 
0.15700    16180449.00000000 10458781.00000000 26006254.00000000 3960.59399414   455814.09375000 362622.62500000 
0.15800    15918360.00000000 10295368.00000000 25591934.00000000 3848.84057617   443922.56250000 353118.37500000 
0.15900    15658246.00000000 10132956.00000000 25180752.00000000 3739.84716797   432232.34375000 343771.06250000 
0.16000    15399943.00000000 9971515.00000000 24772234.00000000 3633.55175781   420739.12500000 334581.03125000 
0.16100    15143758.00000000 9811288.00000000 24366766.00000000 3529.97290039   409444.56250000 325547.09375000 
0.16200    14889529.00000000 9652170.00000000 23964358.00000000 3429.10546875   398357.25000000 316673.81250000 
0.16300    14637467.00000000 9494167.00000000 23565070.00000000 3330.83984375   387467.96875000 307953.90625000 
0.16400    14387653.00000000 9337260.00000000 23168886.00000000 3235.18798828   376784.56250000 299397.87500000 
0.16500    14140018.00000000 9181708.00000000 22776054.00000000 3142.13793945   366308.71875000 291004.75000000 
0.16600    13894560.00000000 9027327.00000000 22386714.00000000 3051.61157227   356035.87500000 282774.37500000 
0.16700    13651655.00000000 8874265.00000000 22000862.00000000 2963.62304688   345972.84375000 274703.87500000 
0.16800    13411058.00000000 8722586.00000000 21618670.00000000 2878.03076172   336112.03125000 266798.12500000 
0.16900    13172961.00000000 8572399.00000000 21240158.00000000 2794.92822266   326462.50000000 259057.01562500 
0.17000    12937421.00000000 8423512.00000000 20865444.00000000 2714.18774414   317016.37500000 251478.25000000 
