# SAXS profile: number of points = 501, q_min = 0, q_max = 0.5, delta_q = 0.001
#    q    intensity 
0.00000    162234112.00000000 101202880.00000000 256269680.00000000 107897.03125000 8367831.00000000 6608895.00000000 
0.00100    162194848.00000000 101176656.00000000 256204032.00000000 107859.35156250 8365248.50000000 6606883.50000000 
0.00200    162075968.00000000 101099456.00000000 256009744.00000000 107745.53906250 8357584.00000000 6600870.50000000 
0.00300    161871808.00000000 100972240.00000000 255685632.00000000 107556.39843750 8344853.50000000 6590874.50000000 
0.00400    161582160.00000000 100794224.00000000 255230400.00000000 107292.88281250 8327051.50000000 6576891.50000000 
0.00500    161207392.00000000 100564640.00000000 254646080.00000000 106953.82812500 8304219.50000000 6558965.50000000 
0.00600    160752880.00000000 100285936.00000000 253937072.00000000 106542.91406250 8276449.00000000 6537113.50000000 
0.00700    160213680.00000000 99957688.00000000 253102336.00000000 106059.42187500 8243761.00000000 6511435.50000000 
0.00800    159598992.00000000 99581504.00000000 252139440.00000000 105504.76562500 8206236.00000000 6481984.50000000 
0.00900    158909648.00000000 99157432.00000000 251054544.00000000 104879.51562500 8163972.00000000 6448795.50000000 
0.01000    158144000.00000000 98685936.00000000 249851776.00000000 104186.92968750 8117053.50000000 6411960.50000000 
0.01100    157302432.00000000 98167240.00000000 248530288.00000000 103428.06250000 8065535.50000000 6371550.00000000 
0.01200    156383728.00000000 97602992.00000000 247091360.00000000 102603.79687500 8009631.50000000 6327600.00000000 
0.01300    155393904.00000000 96994280.00000000 245542064.00000000 101718.05468750 7949409.50000000 6280342.50000000 
0.01400    154335648.00000000 96343344.00000000 243878848.00000000 100771.29687500 7884996.50000000 6229706.50000000 
0.01500    153209168.00000000 95650528.00000000 242112096.00000000 99766.65625000  7816487.50000000 6175969.00000000 
0.01600    152015696.00000000 94917144.00000000 240239888.00000000 98706.08593750  7744172.50000000 6119105.50000000 
0.01700    150758272.00000000 94143696.00000000 238268656.00000000 97593.39062500  7668057.00000000 6059355.50000000 
0.01800    149440496.00000000 93332184.00000000 236199296.00000000 96429.17968750  7588385.50000000 5996714.00000000 
0.01900    148062592.00000000 92484952.00000000 234039280.00000000 95217.91406250  7505300.00000000 5931427.50000000 
0.02000    146629328.00000000 91601800.00000000 231788368.00000000 93961.48437500  7418944.50000000 5863568.50000000 
0.02100    145140480.00000000 90685656.00000000 229454112.00000000 92663.57031250  7329518.50000000 5793292.50000000 
0.02200    143602592.00000000 89738264.00000000 227036720.00000000 91325.95312500  7237212.50000000 5720710.50000000 
0.02300    142014880.00000000 88759264.00000000 224544976.00000000 89952.88281250  7142244.50000000 5646037.00000000 
0.02400    140379584.00000000 87752616.00000000 221979632.00000000 88545.65625000  7044746.50000000 5569407.50000000 
0.02500    138703472.00000000 86718928.00000000 219346464.00000000 87109.63281250  6944901.50000000 5490921.50000000 
0.02600    136987184.00000000 85659728.00000000 216650160.00000000 85646.29687500  6842988.00000000 5410706.50000000 
0.02700    135231248.00000000 84577960.00000000 213892816.00000000 84159.35937500  6739066.00000000 5328980.00000000 
0.02800    133443048.00000000 83473928.00000000 211082336.00000000 82651.46093750  6633474.00000000 5245893.00000000 
0.02900    131623080.00000000 82350656.00000000 208224224.00000000 81125.53906250  6526282.00000000 5161583.00000000 
0.03000    129774320.00000000 81209216.00000000 205317696.00000000 79585.38281250  6417753.00000000 5076217.50000000 
0.03100    127900160.00000000 80052096.00000000 202372144.00000000 78033.39843750  6308080.00000000 4989877.50000000 
0.03200    126003248.00000000 78880336.00000000 199389888.00000000 76472.89062500  6197386.00000000 4902793.00000000 
0.03300    124086368.00000000 77695696.00000000 196375632.00000000 74907.10937500  6086027.50000000 4815092.00000000 
0.03400    122152896.00000000 76500840.00000000 193335616.00000000 73337.50781250  5974015.50000000 4726888.50000000 
0.03500    120205472.00000000 75296600.00000000 190271536.00000000 71768.47656250  5861605.50000000 4638353.00000000 
0.03600    118246576.00000000 74084720.00000000 187190048.00000000 70201.46093750  5748916.50000000 4549651.00000000 
0.03700    116278944.00000000 72866376.00000000 184093104.00000000 68640.26562500  5636216.00000000 4460877.00000000 
0.03800    114306048.00000000 71644440.00000000 180988656.00000000 67085.11718750  5523640.50000000 4372139.00000000 
0.03900    112329968.00000000 70420136.00000000 177878064.00000000 65541.25000000  5411301.50000000 4283617.00000000 
0.04000    110353320.00000000 69194840.00000000 174766224.00000000 64008.45703125  5299396.50000000 4195417.00000000 
0.04100    108379064.00000000 67971208.00000000 171657888.00000000 62490.38281250  5188145.50000000 4107667.75000000 
0.04200    106409216.00000000 66749352.00000000 168554048.00000000 60988.88671875  5077572.00000000 4020478.00000000 
0.04300    104445624.00000000 65531328.00000000 165461072.00000000 59506.07031250  4967857.00000000 3933985.75000000 
0.04400    102492664.00000000 64318140.00000000 162381392.00000000 58042.83203125  4859209.50000000 3848247.00000000 
0.04500    100550064.00000000 63111580.00000000 159319280.00000000 56601.79296875  4751639.50000000 3763408.00000000 
0.04600    98621832.00000000 61913016.00000000 156278464.00000000 55184.14453125  4645392.00000000 3679508.25000000 
0.04700    96708336.00000000 60723788.00000000 153262064.00000000 53791.24218750  4540453.00000000 3596700.00000000 
0.04800    94811736.00000000 59545004.00000000 150270416.00000000 52424.47656250  4437008.50000000 3515005.00000000 
0.04900    92936136.00000000 58377200.00000000 147311616.00000000 51084.93750000  4335140.50000000 3434556.25000000 
0.05000    91080456.00000000 57221696.00000000 144382960.00000000 49773.17187500  4234868.50000000 3355368.50000000 
0.05100    89247416.00000000 56080372.00000000 141490256.00000000 48491.05078125  4136380.75000000 3277566.25000000 
0.05200    87438560.00000000 54952800.00000000 138634544.00000000 47238.59765625  4039661.50000000 3201126.25000000 
0.05300    85654680.00000000 53840912.00000000 135817488.00000000 46016.83203125  3944828.50000000 3126160.00000000 
0.05400    83898456.00000000 52745952.00000000 133043576.00000000 44825.88281250  3851929.00000000 3052724.25000000 
0.05500    82170176.00000000 51667412.00000000 130313320.00000000 43666.47265625  3761016.00000000 2980820.50000000 
0.05600    80470368.00000000 50606304.00000000 127627720.00000000 42538.76953125  3672086.00000000 2910501.75000000 
0.05700    78801848.00000000 49564148.00000000 124989752.00000000 41442.57421875  3585235.25000000 2841776.50000000 
0.05800    77163872.00000000 48540384.00000000 122399608.00000000 40378.61328125  3500443.75000000 2774704.50000000 
0.05900    75557232.00000000 47536272.00000000 119859440.00000000 39346.39843750  3417750.00000000 2709259.25000000 
0.06000    73983136.00000000 46552360.00000000 117369264.00000000 38345.43359375  3337182.25000000 2645481.00000000 
0.06100    72441744.00000000 45587764.00000000 114931896.00000000 37376.23828125  3258735.25000000 2583363.25000000 
0.06200    70934680.00000000 44644164.00000000 112546720.00000000 36437.93359375  3182392.50000000 2522919.75000000 
0.06300    69460136.00000000 43721224.00000000 110213752.00000000 35530.42578125  3108180.50000000 2464147.75000000 
0.06400    68020736.00000000 42818996.00000000 107934256.00000000 34652.65625000  3036067.25000000 2407035.50000000 
0.06500    66614408.00000000 41938456.00000000 105708312.00000000 33804.05859375  2966046.75000000 2351549.25000000 
0.06600    65244240.00000000 41078792.00000000 103537928.00000000 32984.91015625  2898078.00000000 2297693.75000000 
0.06700    63907176.00000000 40240836.00000000 101421080.00000000 32193.69726562  2832173.75000000 2245444.50000000 
0.06800    62604556.00000000 39423480.00000000 99357008.00000000 31429.82421875  2768227.75000000 2194792.75000000 
0.06900    61336312.00000000 38628012.00000000 97347112.00000000 30692.77734375  2706303.75000000 2145689.75000000 
0.07000    60101644.00000000 37853036.00000000 95392104.00000000 29980.96093750  2646292.75000000 2098123.75000000 
0.07100    58901008.00000000 37099468.00000000 93489584.00000000 29294.49804688  2588155.75000000 2052042.00000000 
0.07200    57733676.00000000 36366572.00000000 91639104.00000000 28631.47265625  2531906.00000000 2007406.25000000 
0.07300    56599128.00000000 35654444.00000000 89840832.00000000 27991.91210938  2477389.25000000 1964213.75000000 
0.07400    55497200.00000000 34962044.00000000 88094536.00000000 27374.20312500  2424662.25000000 1922402.75000000 
0.07500    54426588.00000000 34289976.00000000 86398688.00000000 26777.61523438  2373633.50000000 1881919.12500000 
0.07600    53387744.00000000 33637488.00000000 84751600.00000000 26201.21289062  2324239.25000000 1842750.62500000 
0.07700    52379640.00000000 33004882.00000000 83152944.00000000 25644.06640625  2276396.00000000 1804817.87500000 
0.07800    51401396.00000000 32390774.00000000 81603616.00000000 25105.07226562  2230103.50000000 1768119.62500000 
0.07900    50452976.00000000 31795160.00000000 80100752.00000000 24583.32226562  2185249.25000000 1732564.37500000 
0.08000    49532996.00000000 31217686.00000000 78641960.00000000 24078.07421875  2141832.00000000 1698148.12500000 
0.08100    48640924.00000000 30657976.00000000 77228888.00000000 23588.15234375  2099751.25000000 1664785.12500000 
0.08200    47775800.00000000 30115100.00000000 75858040.00000000 23112.81835938  2058941.00000000 1632451.37500000 
0.08300    46937212.00000000 29589110.00000000 74529392.00000000 22651.18945312  2019372.37500000 1601090.25000000 
0.08400    46124084.00000000 29079376.00000000 73241776.00000000 22202.31640625  1980984.75000000 1570679.87500000 
0.08500    45335328.00000000 28585462.00000000 71993352.00000000 21765.64843750  1943703.62500000 1541156.50000000 
0.08600    44570884.00000000 28106640.00000000 70783512.00000000 21339.99218750  1907478.25000000 1512464.50000000 
0.08700    43829276.00000000 27642572.00000000 69609984.00000000 20924.82031250  1872268.50000000 1484590.00000000 
0.08800    43109912.00000000 27192606.00000000 68472336.00000000 20519.44531250  1838008.75000000 1457449.12500000 
0.08900    42411964.00000000 26756152.00000000 67368856.00000000 20123.37500000  1804628.25000000 1431040.75000000 
0.09000    41735008.00000000 26333272.00000000 66298112.00000000 19735.77734375  1772108.75000000 1405309.12500000 
0.09100    41077100.00000000 25922536.00000000 65258592.00000000 19356.10742188  1740369.12500000 1380209.12500000 
0.09200    40438296.00000000 25524286.00000000 64249316.00000000 18983.62695312  1709379.87500000 1355705.37500000 
0.09300    39817772.00000000 25137432.00000000 63269532.00000000 18618.37695312  1679132.37500000 1331773.37500000 
0.09400    39214300.00000000 24762032.00000000 62316988.00000000 18259.07812500  1649512.75000000 1308366.75000000 
0.09500    38627132.00000000 24396700.00000000 61390896.00000000 17905.95507812  1620524.75000000 1285456.62500000 
0.09600    38055652.00000000 24041608.00000000 60490508.00000000 17558.41796875  1592121.12500000 1263024.37500000 
0.09700    37499904.00000000 23696418.00000000 59613612.00000000 17216.23828125  1564269.87500000 1241031.00000000 
0.09800    36957804.00000000 23360220.00000000 58759776.00000000 16878.89257812  1536922.25000000 1219435.62500000 
0.09900    36429432.00000000 23032826.00000000 57927856.00000000 16546.25976562  1510065.62500000 1198225.37500000 
0.10000    35913716.00000000 22713732.00000000 57116308.00000000 16218.01757812  1483662.00000000 1177379.75000000 
0.10100    35410292.00000000 22402460.00000000 56324368.00000000 15894.08300781  1457673.37500000 1156868.62500000 
0.10200    34918744.00000000 22098616.00000000 55551444.00000000 15574.18847656  1432104.12500000 1136690.75000000 
0.10300    34437960.00000000 21802022.00000000 54795468.00000000 15258.08105469  1406907.50000000 1116799.25000000 
0.10400    33967392.00000000 21511978.00000000 54056640.00000000 14946.02539062  1382068.37500000 1097197.37500000 
0.10500    33506800.00000000 21228236.00000000 53333860.00000000 14637.62011719  1357573.50000000 1077868.50000000 
0.10600    33055736.00000000 20950300.00000000 52625096.00000000 14332.83398438  1333395.00000000 1058789.75000000 
0.10700    32613094.00000000 20678242.00000000 51931196.00000000 14031.75292969  1309524.87500000 1039959.00000000 
0.10800    32178966.00000000 20411194.00000000 51249936.00000000 13734.34863281  1285966.62500000 1021361.31250000 
0.10900    31752486.00000000 20149276.00000000 50581324.00000000 13440.59667969  1262670.87500000 1002981.75000000 
0.11000    31333436.00000000 19892162.00000000 49924664.00000000 13150.57421875  1239679.12500000 984824.18750000 
0.11100    30921586.00000000 19639496.00000000 49279200.00000000 12864.09570312  1216930.75000000 966871.06250000 
0.11200    30516148.00000000 19390818.00000000 48643760.00000000 12581.41113281  1194471.25000000 949129.75000000 
0.11300    30117146.00000000 19146162.00000000 48018644.00000000 12302.56054688  1172263.37500000 931588.31250000 
0.11400    29723814.00000000 18905244.00000000 47402704.00000000 12027.47753906  1150304.00000000 914243.06250000 
0.11500    29336474.00000000 18667718.00000000 46795916.00000000 11756.50000000  1128591.50000000 897093.25000000 
0.11600    28954048.00000000 18433596.00000000 46197152.00000000 11489.43652344  1107147.25000000 880140.18750000 
0.11700    28577120.00000000 18202554.00000000 45606596.00000000 11226.49316406  1085939.37500000 863374.81250000 
0.11800    28204796.00000000 17974278.00000000 45022840.00000000 10967.72167969  1064987.50000000 846805.18750000 
0.11900    27836844.00000000 17748712.00000000 44446888.00000000 10713.17968750  1044269.31250000 830421.87500000 
0.12000    27473520.00000000 17525920.00000000 43877244.00000000 10462.88378906  1023827.62500000 814240.87500000 
0.12100    27114428.00000000 17305590.00000000 43314364.00000000 10217.15917969  1003640.93750000 798256.00000000 
0.12200    26758860.00000000 17087472.00000000 42757488.00000000 9975.79394531   983703.12500000 782465.56250000 
0.12300    26407420.00000000 16871766.00000000 42206408.00000000 9738.87011719   964036.43750000 766877.25000000 
0.12400    26059974.00000000 16658082.00000000 41661152.00000000 9506.63476562   944614.00000000 751484.56250000 
0.12500    25715530.00000000 16446262.00000000 41120776.00000000 9279.01855469   925470.50000000 736301.50000000 
0.12600    25374934.00000000 16236633.00000000 40585676.00000000 9056.06640625   906588.50000000 721327.50000000 
0.12700    25037520.00000000 16028602.00000000 40055860.00000000 8837.73925781   887985.50000000 706557.62500000 
0.12800    24703108.00000000 15822588.00000000 39530960.00000000 8624.19335938   869656.62500000 692001.75000000 
0.12900    24371958.00000000 15618170.00000000 39010504.00000000 8415.39550781   851607.06250000 677664.50000000 
0.13000    24044030.00000000 15415514.00000000 38494188.00000000 8211.27734375   833836.81250000 663538.06250000 
0.13100    23718872.00000000 15214377.00000000 37982316.00000000 8011.91650391   816344.93750000 649635.25000000 
0.13200    23396684.00000000 15014867.00000000 37475080.00000000 7817.18017578   799140.81250000 635944.93750000 
0.13300    23077296.00000000 14816874.00000000 36971856.00000000 7627.25585938   782223.68750000 622479.50000000 
0.13400    22760688.00000000 14620303.00000000 36473100.00000000 7441.96826172   765589.31250000 609240.62500000 
0.13500    22446954.00000000 14425215.00000000 35978084.00000000 7261.24755859   749257.43750000 596226.93750000 
0.13600    22135854.00000000 14231723.00000000 35486908.00000000 7085.14355469   733192.62500000 583433.68750000 
0.13700    21827476.00000000 14039446.00000000 34999948.00000000 6913.43750000   717436.00000000 570870.81250000 
0.13800    21521630.00000000 13848669.00000000 34516472.00000000 6746.23144531   701957.25000000 558528.18750000 
0.13900    21218390.00000000 13659270.00000000 34037064.00000000 6583.36181641   686773.62500000 546412.43750000 
0.14000    20917990.00000000 13471305.00000000 33561196.00000000 6424.71289062   671875.06250000 534520.50000000 
0.14100    20619936.00000000 13284527.00000000 33089600.00000000 6270.28417969   657264.68750000 522850.96875000 
0.14200    20324480.00000000 13099202.00000000 32621522.00000000 6119.94775391   642922.62500000 511404.34375000 
0.14300    20031568.00000000 12915187.00000000 32157030.00000000 5973.59179688   628877.06250000 500177.25000000 
0.14400    19741074.00000000 12732476.00000000 31696122.00000000 5831.09277344   615098.56250000 489164.56250000 
0.14500    19453190.00000000 12551155.00000000 31238958.00000000 5692.46044922   601595.12500000 478374.21875000 
0.14600    19167836.00000000 12371255.00000000 30785580.00000000 5557.36328125   588362.31250000 467792.40625000 
0.14700    18884718.00000000 12192584.00000000 30335928.00000000 5425.98339844   575397.75000000 457421.28125000 
0.14800    18604206.00000000 12015287.00000000 29889894.00000000 5297.88330078   562685.18750000 447256.65625000 
0.14900    18326174.00000000 11839259.00000000 29447240.00000000 5173.20068359   550235.75000000 437292.96875000 
0.15000    18050656.00000000 11664662.00000000 29008318.00000000 5051.68017578   538038.25000000 427529.43750000 
0.15100    17777288.00000000 11491453.00000000 28572794.00000000 4933.30761719   526081.06250000 417963.56250000 
0.15200    17506598.00000000 11319543.00000000 28141326.00000000 4817.93603516   514365.56250000 408589.46875000 
0.15300    17238046.00000000 11149065.00000000 27713468.00000000 4705.44140625   502890.40625000 399400.25000000 
0.15400    16972310.00000000 10979694.00000000 27289118.00000000 4595.70263672   491635.12500000 390392.34375000 
0.15500    16708708.00000000 10811857.00000000 26868372.00000000 4488.61816406   480609.34375000 381564.59375000 
0.15600    16447572.00000000 10645400.00000000 26451182.00000000 4384.05517578   469798.00000000 372908.93750000 
0.15700    16188804.00000000 10480306.00000000 26037846.00000000 4281.99804688   459196.71875000 364426.06250000 
0.15800    15932396.00000000 10316658.00000000 25627738.00000000 4182.29443359   448795.03125000 356100.31250000 
0.15900    15678300.00000000 10154278.00000000 25221722.00000000 4084.84497070   438601.43750000 347939.78125000 
0.16000    15426459.00000000 9993432.00000000 24819150.00000000 3989.57739258   428590.06250000 339930.15625000 
0.16100    15177232.00000000 9833929.00000000 24420306.00000000 3896.43920898   418773.78125000 332074.62500000 
0.16200    14930330.00000000 9675850.00000000 24025280.00000000 3805.28393555   409136.93750000 324362.56250000 
0.16300    14685687.00000000 9519156.00000000 23633714.00000000 3716.04296875   399672.90625000 316793.90625000 
0.16400    14443554.00000000 9364063.00000000 23245986.00000000 3628.73632812   390381.93750000 309361.46875000 
0.16500    14203873.00000000 9210307.00000000 22861994.00000000 3543.21240234   381254.15625000 302062.96875000 
0.16600    13966341.00000000 9057944.00000000 22481726.00000000 3459.42651367   372285.28125000 294891.81250000 
0.16700    13731340.00000000 8907255.00000000 22105164.00000000 3377.34448242   363470.43750000 287845.56250000 
0.16800    13498635.00000000 8757820.00000000 21732388.00000000 3296.85742188   354805.50000000 280918.68750000 
0.16900    13268479.00000000 8609981.00000000 21363450.00000000 3217.99145508   346290.28125000 274114.09375000 
0.17000    13040666.00000000 8463667.00000000 20998314.00000000 3140.68969727   337912.31250000 267421.56250000 
