# SAXS profile: number of points = 501, q_min = 0, q_max = 0.5, delta_q = 0.001
#    q    intensity 
0.00000    162237856.00000000 101202224.00000000 256271600.00000000 95758.62500000  7883093.00000000 6226065.50000000 
0.00100    162201024.00000000 101178040.00000000 256211056.00000000 95732.32031250  7881106.50000000 6224444.00000000 
0.00200    162090000.00000000 101106728.00000000 256031168.00000000 95654.76562500  7875098.00000000 6219724.00000000 
0.00300    161899648.00000000 100988904.00000000 255731760.00000000 95525.08593750  7865144.50000000 6211910.50000000 
0.00400    161633792.00000000 100823136.00000000 255312016.00000000 95344.07812500  7851229.50000000 6200934.00000000 
0.00500    161291024.00000000 100610120.00000000 254774912.00000000 95112.00000000  7833408.00000000 6186836.00000000 
0.00600    160874320.00000000 100350776.00000000 254115552.00000000 94829.66406250  7811625.00000000 6169656.00000000 
0.00700    160383984.00000000 100046016.00000000 253342144.00000000 94496.46093750  7786025.00000000 6149468.00000000 
0.00800    159818000.00000000 99695432.00000000 252454672.00000000 94113.39843750  7756595.00000000 6126245.50000000 
0.00900    159182080.00000000 99300040.00000000 251452592.00000000 93682.00781250  7723376.00000000 6100065.50000000 
0.01000    158475712.00000000 98860600.00000000 250336512.00000000 93202.87500000  7686473.00000000 6070950.00000000 
0.01100    157700736.00000000 98377968.00000000 249110704.00000000 92676.35156250  7645873.50000000 6038925.50000000 
0.01200    156855904.00000000 97851592.00000000 247776496.00000000 92103.18750000  7601808.50000000 6004113.50000000 
0.01300    155942272.00000000 97282840.00000000 246337008.00000000 91485.70312500  7554139.50000000 5966541.00000000 
0.01400    154962096.00000000 96673240.00000000 244792480.00000000 90823.90625000  7503063.00000000 5926261.00000000 
0.01500    153918784.00000000 96024272.00000000 243144768.00000000 90118.64062500  7448711.50000000 5883370.00000000 
0.01600    152812704.00000000 95336160.00000000 241400656.00000000 89371.90625000  7391049.00000000 5837872.00000000 
0.01700    151645136.00000000 94610296.00000000 239559344.00000000 88585.31250000  7330307.00000000 5789938.00000000 
0.01800    150419408.00000000 93846944.00000000 237625424.00000000 87759.27343750  7266508.00000000 5739607.00000000 
0.01900    149136992.00000000 93048216.00000000 235601680.00000000 86896.23437500  7199766.50000000 5686935.00000000 
0.02000    147797696.00000000 92215648.00000000 233489424.00000000 85997.43750000  7130173.50000000 5632047.00000000 
0.02100    146406880.00000000 91349704.00000000 231294704.00000000 85064.20312500  7057880.50000000 5575050.00000000 
0.02200    144965056.00000000 90452376.00000000 229019888.00000000 84098.03125000  6983043.50000000 5515990.00000000 
0.02300    143474784.00000000 89525432.00000000 226668224.00000000 83100.12500000  6905709.00000000 5454964.00000000 
0.02400    141938048.00000000 88568928.00000000 224242784.00000000 82073.39062500  6826013.00000000 5392116.00000000 
0.02500    140356320.00000000 87585352.00000000 221748992.00000000 81019.39843750  6744130.50000000 5327475.00000000 
0.02600    138732656.00000000 86575072.00000000 219187680.00000000 79938.54687500  6660134.00000000 5261210.00000000 
0.02700    137072688.00000000 85541576.00000000 216567488.00000000 78833.78125000  6574179.50000000 5193422.50000000 
0.02800    135373904.00000000 84484728.00000000 213887312.00000000 77706.53906250  6486412.00000000 5124202.50000000 
0.02900    133640544.00000000 83405760.00000000 211152640.00000000 76558.92968750  6396929.50000000 5053612.50000000 
0.03000    131876504.00000000 82307936.00000000 208369024.00000000 75392.35156250  6305923.00000000 4981791.50000000 
0.03100    130081792.00000000 81191368.00000000 205538864.00000000 74208.10937500  6213464.50000000 4908877.00000000 
0.03200    128261216.00000000 80058688.00000000 202666688.00000000 73008.88281250  6119706.50000000 4834937.50000000 
0.03300    126416968.00000000 78911136.00000000 199756592.00000000 71796.46093750  6024821.50000000 4760036.00000000 
0.03400    124550672.00000000 77749872.00000000 196812448.00000000 70571.80468750  5928976.00000000 4684400.00000000 
0.03500    122664504.00000000 76576312.00000000 193836784.00000000 69337.50781250  5832154.50000000 4608014.00000000 
0.03600    120762920.00000000 75392840.00000000 190836704.00000000 68095.35156250  5734602.00000000 4531099.50000000 
0.03700    118846560.00000000 74200256.00000000 187813808.00000000 66846.23437500  5636506.00000000 4453630.50000000 
0.03800    116918888.00000000 73001336.00000000 184773632.00000000 65593.02343750  5537840.50000000 4375813.50000000 
0.03900    114982440.00000000 71796008.00000000 181717280.00000000 64336.16796875  5438854.50000000 4297725.50000000 
0.04000    113039096.00000000 70586944.00000000 178650224.00000000 63078.07031250  5339619.00000000 4219437.00000000 
0.04100    111090960.00000000 69374976.00000000 175578576.00000000 61820.20703125  5240303.50000000 4141067.50000000 
0.04200    109141512.00000000 68161312.00000000 172501616.00000000 60564.00781250  5140971.50000000 4062708.00000000 
0.04300    107191840.00000000 66948804.00000000 169425840.00000000 59310.96093750  5041756.50000000 3984453.00000000 
0.04400    105244888.00000000 65737172.00000000 166355408.00000000 58062.55468750  4942820.00000000 3906392.75000000 
0.04500    103302768.00000000 64529116.00000000 163291344.00000000 56820.69140625  4844236.50000000 3828619.00000000 
0.04600    101367592.00000000 63324876.00000000 160238576.00000000 55586.01562500  4746128.00000000 3751218.50000000 
0.04700    99441752.00000000 62126660.00000000 157199760.00000000 54360.15234375  4648587.50000000 3674256.25000000 
0.04800    97526480.00000000 60935132.00000000 154178720.00000000 53144.34375000  4551708.50000000 3597840.00000000 
0.04900    95624504.00000000 59751700.00000000 151178160.00000000 51940.01171875  4455608.00000000 3522021.75000000 
0.05000    93737072.00000000 58577264.00000000 148199104.00000000 50747.76953125  4360366.50000000 3446876.50000000 
0.05100    91866248.00000000 57413632.00000000 145248816.00000000 49569.09375000  4266078.00000000 3372503.50000000 
0.05200    90013744.00000000 56260792.00000000 142325904.00000000 48404.67578125  4172862.50000000 3298920.50000000 
0.05300    88180848.00000000 55121144.00000000 139435456.00000000 47255.96875000  4080724.00000000 3226219.50000000 
0.05400    86369936.00000000 53994452.00000000 136578592.00000000 46123.39062500  3989756.00000000 3154466.75000000 
0.05500    84581352.00000000 52881956.00000000 133757536.00000000 45008.07421875  3900059.25000000 3083687.75000000 
0.05600    82817856.00000000 51784664.00000000 130975944.00000000 43910.10937500  3811674.75000000 3013966.50000000 
0.05700    81079344.00000000 50703584.00000000 128233304.00000000 42831.10546875  3724673.00000000 2945354.50000000 
0.05800    79367360.00000000 49639276.00000000 125533984.00000000 41771.21875000  3639101.25000000 2877835.25000000 
0.05900    77683736.00000000 48592232.00000000 122877864.00000000 40730.90234375  3555023.75000000 2811491.00000000 
0.06000    76029352.00000000 47563292.00000000 120268344.00000000 39710.88281250  3472473.50000000 2746383.75000000 
0.06100    74404568.00000000 46552808.00000000 117706208.00000000 38711.44140625  3391499.25000000 2682481.25000000 
0.06200    72810520.00000000 45561952.00000000 115191992.00000000 37732.91015625  3312139.75000000 2619877.75000000 
0.06300    71248552.00000000 44590312.00000000 112728368.00000000 36775.76562500  3234395.75000000 2558551.50000000 
0.06400    69718192.00000000 43639068.00000000 110315552.00000000 35840.14062500  3158347.50000000 2498557.00000000 
0.06500    68220496.00000000 42708156.00000000 107953592.00000000 34926.37500000  3083960.25000000 2439879.50000000 
0.06600    66756272.00000000 41798052.00000000 105644816.00000000 34034.12890625  3011288.50000000 2382549.75000000 
0.06700    65325936.00000000 40908736.00000000 103388920.00000000 33163.76171875  2940315.25000000 2326577.25000000 
0.06800    63929276.00000000 40041204.00000000 101188248.00000000 32315.62890625  2871090.75000000 2271947.25000000 
0.06900    62567708.00000000 39194760.00000000 99040176.00000000 31489.04687500  2803591.75000000 2218733.50000000 
0.07000    61239860.00000000 38369924.00000000 96947176.00000000 30684.49804688  2737831.50000000 2166845.50000000 
0.07100    59946912.00000000 37566752.00000000 94908448.00000000 29901.48437500  2673795.75000000 2116315.50000000 
0.07200    58688320.00000000 36785192.00000000 92925480.00000000 29140.00195312  2611464.00000000 2067164.75000000 
0.07300    57464516.00000000 36025132.00000000 90995896.00000000 28399.84179688  2550855.00000000 2019378.87500000 
0.07400    56275132.00000000 35286348.00000000 89120888.00000000 27680.75976562  2491953.25000000 1972909.75000000 
0.07500    55119908.00000000 34569092.00000000 87300856.00000000 26982.19921875  2434729.75000000 1927768.87500000 
0.07600    53998768.00000000 33873068.00000000 85533624.00000000 26304.26953125  2379150.25000000 1883948.87500000 
0.07700    52911336.00000000 33198074.00000000 83820552.00000000 25646.31835938  2325209.25000000 1841410.87500000 
0.07800    51857028.00000000 32543984.00000000 82158680.00000000 25007.90234375  2272875.25000000 1800154.37500000 
0.07900    50835592.00000000 31910454.00000000 80549776.00000000 24388.81445312  2222149.25000000 1760126.37500000 
0.08000    49846736.00000000 31297102.00000000 78992176.00000000 23788.49218750  2172954.75000000 1721353.87500000 
0.08100    48889420.00000000 30703524.00000000 77485088.00000000 23206.64257812  2125272.75000000 1683770.87500000 
0.08200    47963560.00000000 30129566.00000000 76026512.00000000 22642.47070312  2079097.00000000 1647359.25000000 
0.08300    47068264.00000000 29574706.00000000 74616360.00000000 22095.83398438  2034365.50000000 1612077.12500000 
0.08400    46202840.00000000 29038840.00000000 73254192.00000000 21565.85546875  1991038.87500000 1577913.25000000 
0.08500    45366772.00000000 28520792.00000000 71937960.00000000 21052.53320312  1949077.25000000 1544847.00000000 
0.08600    44559320.00000000 28021030.00000000 70667552.00000000 20554.90820312  1908452.12500000 1512827.87500000 
0.08700    43779676.00000000 27538064.00000000 69440264.00000000 20072.66015625  1869125.62500000 1481818.37500000 
0.08800    43026752.00000000 27072386.00000000 68255712.00000000 19604.94335938  1831039.00000000 1451800.87500000 
0.08900    42299928.00000000 26622898.00000000 67112312.00000000 19151.65039062  1794149.12500000 1422730.12500000 
0.09000    41598692.00000000 26189294.00000000 66009528.00000000 18711.96093750  1758422.75000000 1394578.37500000 
0.09100    40921536.00000000 25770978.00000000 64945164.00000000 18285.40820312  1723832.37500000 1367305.75000000 
0.09200    40268240.00000000 25367254.00000000 63917448.00000000 17871.29296875  1690281.00000000 1340877.75000000 
0.09300    39637560.00000000 24977858.00000000 62926548.00000000 17469.56054688  1657781.37500000 1315264.87500000 
0.09400    39028612.00000000 24602150.00000000 61969524.00000000 17079.23828125  1626248.87500000 1290431.00000000 
0.09500    38440424.00000000 24239350.00000000 61045728.00000000 16699.91796875  1595674.62500000 1266323.37500000 
0.09600    37872284.00000000 23889142.00000000 60153748.00000000 16331.18847656  1565990.25000000 1242938.62500000 
0.09700    37323456.00000000 23551012.00000000 59292064.00000000 15972.62402344  1537163.37500000 1220222.75000000 
0.09800    36792996.00000000 23224054.00000000 58458608.00000000 15623.38671875  1509148.75000000 1198156.12500000 
0.09900    36279796.00000000 22908208.00000000 57653144.00000000 15283.53417969  1481901.37500000 1176689.62500000 
0.10000    35783016.00000000 22602504.00000000 56873236.00000000 14952.25976562  1455396.50000000 1155814.50000000 
0.10100    35301652.00000000 22306414.00000000 56118484.00000000 14629.20117188  1429580.62500000 1135478.62500000 
0.10200    34835308.00000000 22019736.00000000 55386740.00000000 14313.95898438  1404418.75000000 1115640.75000000 
0.10300    34382592.00000000 21741576.00000000 54677252.00000000 14006.25292969  1379856.87500000 1096300.50000000 
0.10400    33943072.00000000 21471824.00000000 53988312.00000000 13705.45312500  1355893.62500000 1077426.37500000 
0.10500    33515988.00000000 21209624.00000000 53318716.00000000 13411.65722656  1332489.75000000 1058980.12500000 
0.10600    33100268.00000000 20954444.00000000 52667136.00000000 13123.91503906  1309574.37500000 1040919.00000000 
0.10700    32695398.00000000 20706050.00000000 52032496.00000000 12842.36621094  1287147.50000000 1023256.12500000 
0.10800    32300440.00000000 20463904.00000000 51413852.00000000 12566.55859375  1265172.37500000 1005935.93750000 
0.10900    31914572.00000000 20227504.00000000 50809980.00000000 12296.19042969  1243618.37500000 988948.50000000 
0.11000    31537616.00000000 19996374.00000000 50219428.00000000 12030.98144531  1222465.25000000 972277.43750000 
0.11100    31168278.00000000 19770332.00000000 49641104.00000000 11770.79199219  1201671.37500000 955890.25000000 
0.11200    30806220.00000000 19548704.00000000 49074548.00000000 11515.21484375  1181230.12500000 939772.12500000 
0.11300    30451056.00000000 19331060.00000000 48518604.00000000 11264.28125000  1161104.62500000 923908.18750000 
0.11400    30101840.00000000 19117418.00000000 47971772.00000000 11017.53808594  1141277.00000000 908274.75000000 
0.11500    29758054.00000000 18907168.00000000 47433876.00000000 10775.06933594  1121739.00000000 892859.62500000 
0.11600    29419464.00000000 18699852.00000000 46904296.00000000 10536.44140625  1102449.25000000 877648.37500000 
0.11700    29085306.00000000 18495400.00000000 46381196.00000000 10301.86328125  1083408.75000000 862631.18750000 
0.11800    28755338.00000000 18293298.00000000 45864308.00000000 10070.83691406  1064600.75000000 847784.43750000 
0.11900    28428768.00000000 18093394.00000000 45353660.00000000 9843.45507812   1046007.81250000 833104.62500000 
0.12000    28105320.00000000 17895652.00000000 44847324.00000000 9619.69726562   1027609.81250000 818579.93750000 
0.12100    27785172.00000000 17699336.00000000 44345812.00000000 9399.23632812   1009410.31250000 804209.37500000 
0.12200    27467164.00000000 17504536.00000000 43847876.00000000 9182.14746094   991389.37500000 789972.00000000 
0.12300    27151446.00000000 17311140.00000000 43353400.00000000 8968.47167969   973538.25000000 775868.62500000 
0.12400    26837468.00000000 17118764.00000000 42861856.00000000 8757.94531250   955862.93750000 761893.12500000 
0.12500    26525178.00000000 16927338.00000000 42372580.00000000 8550.56250000   938328.37500000 748037.43750000 
0.12600    26214584.00000000 16736422.00000000 41885604.00000000 8346.56542969   920955.56250000 734295.56250000 
0.12700    25904748.00000000 16546354.00000000 41400276.00000000 8145.55810547   903726.43750000 720668.50000000 
0.12800    25596010.00000000 16356894.00000000 40916360.00000000 7947.79541016   886652.87500000 707154.81250000 
0.12900    25288306.00000000 16167627.00000000 40433436.00000000 7753.17285156   869713.43750000 693746.50000000 
0.13000    24981188.00000000 15978718.00000000 39951308.00000000 7561.65917969   852918.81250000 680451.18750000 
0.13100    24674342.00000000 15790119.00000000 39470048.00000000 7373.25732422   836259.06250000 667252.68750000 
0.13200    24368302.00000000 15601637.00000000 38989780.00000000 7188.03515625   819745.75000000 654167.43750000 
0.13300    24062934.00000000 15413277.00000000 38509644.00000000 7005.97412109   803373.37500000 641188.25000000 
0.13400    23757426.00000000 15225013.00000000 38029984.00000000 6827.09228516   787148.50000000 628317.87500000 
0.13500    23452588.00000000 15036817.00000000 37550740.00000000 6651.40429688   771060.12500000 615556.00000000 
0.13600    23147856.00000000 14848696.00000000 37071632.00000000 6478.90478516   755117.31250000 602908.06250000 
0.13700    22843532.00000000 14660503.00000000 36593184.00000000 6309.67089844   739332.62500000 590374.37500000 
0.13800    22539592.00000000 14472598.00000000 36114592.00000000 6143.62353516   723691.18750000 577950.00000000 
0.13900    22235962.00000000 14284525.00000000 35636932.00000000 5980.87255859   708213.56250000 565653.00000000 
0.14000    21932698.00000000 14096655.00000000 35159300.00000000 5821.37109375   692888.37500000 553471.93750000 
0.14100    21629922.00000000 13908861.00000000 34682532.00000000 5665.15185547   677733.31250000 541419.93750000 
0.14200    21327898.00000000 13721298.00000000 34206136.00000000 5512.27539062   662743.18750000 529492.93750000 
0.14300    21026282.00000000 13533921.00000000 33730308.00000000 5362.66064453   647925.31250000 517697.84375000 
0.14400    20725270.00000000 13346633.00000000 33255534.00000000 5216.37109375   633277.50000000 506031.81250000 
0.14500    20425146.00000000 13159891.00000000 32781888.00000000 5073.44189453   618820.37500000 494514.93750000 
0.14600    20125904.00000000 12973421.00000000 32309118.00000000 4933.82470703   604540.43750000 483136.93750000 
0.14700    19827574.00000000 12787435.00000000 31838122.00000000 4797.57568359   590450.81250000 471897.90625000 
0.14800    19530548.00000000 12601929.00000000 31368372.00000000 4664.54101562   576546.87500000 460811.68750000 
0.14900    19234486.00000000 12417080.00000000 30900402.00000000 4534.86279297   562840.93750000 449876.62500000 
0.15000    18939820.00000000 12232689.00000000 30434210.00000000 4408.52587891   549337.56250000 439091.68750000 
0.15100    18646578.00000000 12049079.00000000 29970072.00000000 4285.41845703   536036.93750000 428467.34375000 
0.15200    18354940.00000000 11866493.00000000 29508228.00000000 4165.55273438   522939.18750000 418004.62500000 
0.15300    18065052.00000000 11684657.00000000 29048828.00000000 4048.94384766   510053.75000000 407699.31250000 
0.15400    17776802.00000000 11503555.00000000 28591794.00000000 3935.51904297   497375.06250000 397557.81250000 
0.15500    17490682.00000000 11323650.00000000 28137968.00000000 3825.25683594   484914.81250000 387588.00000000 
0.15600    17206316.00000000 11144799.00000000 27686748.00000000 3718.12622070   472666.53125000 377781.37500000 
0.15700    16924200.00000000 10967232.00000000 27238994.00000000 3614.09057617   460637.03125000 368145.21875000 
0.15800    16644108.00000000 10790754.00000000 26794378.00000000 3513.07690430   448827.65625000 358681.68750000 
0.15900    16366809.00000000 10615639.00000000 26353490.00000000 3415.03979492   437242.00000000 349390.96875000 
0.16000    16091603.00000000 10441922.00000000 25916000.00000000 3319.97998047   425870.71875000 340272.00000000 
0.16100    15819082.00000000 10269686.00000000 25482736.00000000 3227.82617188   414726.53125000 331326.56250000 
0.16200    15549386.00000000 10098982.00000000 25053226.00000000 3138.48510742   403806.50000000 322555.68750000 
0.16300    15282317.00000000 9929759.00000000 24627932.00000000 3051.87963867   393100.31250000 313957.37500000 
0.16400    15018015.00000000 9762196.00000000 24206890.00000000 2968.05493164   382620.15625000 305536.28125000 
0.16500    14756683.00000000 9596322.00000000 23790438.00000000 2886.83959961   372361.62500000 297288.93750000 
0.16600    14498393.00000000 9432217.00000000 23378388.00000000 2808.22631836   362322.06250000 289213.62500000 
0.16700    14243125.00000000 9269859.00000000 22971108.00000000 2732.08593750   352499.68750000 281310.53125000 
0.16800    13990853.00000000 9109191.00000000 22568576.00000000 2658.43896484   342893.00000000 273577.34375000 
0.16900    13741979.00000000 8950558.00000000 22170982.00000000 2587.17382812   333507.87500000 266015.81250000 
0.17000    13496161.00000000 8793839.00000000 21778378.00000000 2518.20751953   324331.09375000 258621.06250000 
