# SAXS profile: number of points = 501, q_min = 0, q_max = 0.5, delta_q = 0.001
#    q    intensity 
0.00000    162238272.00000000 101202184.00000000 256272176.00000000 104260.03906250 8225609.50000000 6496559.00000000 
0.00100    162208736.00000000 101183192.00000000 256224624.00000000 104236.51562500 8223877.00000000 6495211.00000000 
0.00200    162120224.00000000 101127848.00000000 256084704.00000000 104164.14062500 8218754.00000000 6491173.50000000 
0.00300    161972512.00000000 101035328.00000000 255849536.00000000 104045.06250000 8210202.50000000 6484427.00000000 
0.00400    161764512.00000000 100906296.00000000 255521792.00000000 103877.85937500 8198328.00000000 6475065.50000000 
0.00500    161496608.00000000 100740256.00000000 255099888.00000000 103663.82812500 8183024.50000000 6463010.50000000 
0.00600    161169696.00000000 100537352.00000000 254586160.00000000 103402.07031250 8164379.50000000 6448280.50000000 
0.00700    160785184.00000000 100298320.00000000 253978288.00000000 103094.38281250 8142411.00000000 6430960.00000000 
0.00800    160341792.00000000 100023736.00000000 253280496.00000000 102739.94531250 8117099.00000000 6411016.50000000 
0.00900    159839968.00000000 99713088.00000000 252493104.00000000 102340.29687500 8088511.50000000 6388507.00000000 
0.01000    159281744.00000000 99366832.00000000 251614896.00000000 101895.50781250 8056699.50000000 6363406.00000000 
0.01100    158668576.00000000 98986048.00000000 250648720.00000000 101405.09375000 8021694.00000000 6335826.50000000 
0.01200    158001008.00000000 98571360.00000000 249595296.00000000 100871.54687500 7983531.00000000 6305744.00000000 
0.01300    157277120.00000000 98122624.00000000 248453840.00000000 100294.39843750 7942254.00000000 6273202.50000000 
0.01400    156500176.00000000 97639856.00000000 247228896.00000000 99675.21875000  7897923.50000000 6238261.50000000 
0.01500    155668880.00000000 97124544.00000000 245920752.00000000 99013.71093750  7850605.00000000 6200944.50000000 
0.01600    154785728.00000000 96576512.00000000 244530336.00000000 98312.10937500  7800333.00000000 6161324.00000000 
0.01700    153852384.00000000 95996456.00000000 243058304.00000000 97570.58593750  7747167.50000000 6119414.50000000 
0.01800    152868928.00000000 95385696.00000000 241507856.00000000 96790.30468750  7691211.00000000 6075297.50000000 
0.01900    151835680.00000000 94745744.00000000 239880784.00000000 95971.72656250  7632523.50000000 6028994.00000000 
0.02000    150756032.00000000 94074928.00000000 238178656.00000000 95117.31250000  7571103.00000000 5980625.50000000 
0.02100    149629184.00000000 93375312.00000000 236402992.00000000 94226.82812500  7507118.00000000 5930175.00000000 
0.02200    148456544.00000000 92647624.00000000 234555840.00000000 93301.74218750  7440593.00000000 5877759.50000000 
0.02300    147240832.00000000 91892920.00000000 232639616.00000000 92344.10937500  7371691.50000000 5823417.00000000 
0.02400    145982832.00000000 91111816.00000000 230657520.00000000 91354.43750000  7300353.50000000 5767197.50000000 
0.02500    144681952.00000000 90304768.00000000 228609040.00000000 90333.64062500  7226787.50000000 5709201.50000000 
0.02600    143342480.00000000 89473640.00000000 226498160.00000000 89283.40625000  7151014.50000000 5649461.00000000 
0.02700    141965792.00000000 88618456.00000000 224326576.00000000 88204.76562500  7073148.50000000 5588093.00000000 
0.02800    140550720.00000000 87740512.00000000 222098416.00000000 87100.07812500  6993332.50000000 5525120.00000000 
0.02900    139100928.00000000 86840448.00000000 219813376.00000000 85969.59375000  6911525.50000000 5460665.00000000 
0.03000    137617056.00000000 85919528.00000000 217475856.00000000 84815.48437500  6827939.50000000 5394760.00000000 
0.03100    136101216.00000000 84978776.00000000 215086768.00000000 83638.99218750  6742636.50000000 5327512.50000000 
0.03200    134555024.00000000 84019032.00000000 212651280.00000000 82441.21875000  6655672.50000000 5258966.50000000 
0.03300    132980080.00000000 83040984.00000000 210168912.00000000 81223.68750000  6567235.50000000 5189201.00000000 
0.03400    131377512.00000000 82046928.00000000 207643456.00000000 79988.21875000  6477317.50000000 5118356.00000000 
0.03500    129749624.00000000 81036176.00000000 205079216.00000000 78735.85937500  6386112.00000000 5046439.00000000 
0.03600    128097792.00000000 80010232.00000000 202475824.00000000 77468.07031250  6293635.00000000 4973514.50000000 
0.03700    126423144.00000000 78971184.00000000 199837232.00000000 76186.67187500  6200084.50000000 4899762.50000000 
0.03800    124728632.00000000 77918968.00000000 197166288.00000000 74892.67968750  6105454.00000000 4825161.50000000 
0.03900    123014280.00000000 76855112.00000000 194466880.00000000 73588.56250000  6009943.00000000 4749846.50000000 
0.04000    121283840.00000000 75780576.00000000 191738352.00000000 72274.50000000  5913579.50000000 4673878.00000000 
0.04100    119537552.00000000 74696528.00000000 188985200.00000000 70952.52343750  5816474.00000000 4597320.50000000 
0.04200    117777928.00000000 73603424.00000000 186212048.00000000 69623.78125000  5718784.50000000 4520283.50000000 
0.04300    116004648.00000000 72502680.00000000 183418896.00000000 68290.29687500  5620532.50000000 4442820.00000000 
0.04400    114221816.00000000 71396272.00000000 180609440.00000000 66952.97656250  5521846.00000000 4365027.50000000 
0.04500    112430096.00000000 70283912.00000000 177785312.00000000 65613.41406250  5422871.50000000 4286975.50000000 
0.04600    110631568.00000000 69167024.00000000 174950576.00000000 64273.00390625  5323628.50000000 4208749.50000000 
0.04700    108826824.00000000 68046752.00000000 172106928.00000000 62932.83984375  5224288.50000000 4130383.75000000 
0.04800    107018208.00000000 66923424.00000000 169257168.00000000 61594.69140625  5124845.50000000 4051982.25000000 
0.04900    105208040.00000000 65799204.00000000 166402416.00000000 60259.21093750  5025464.50000000 3973617.25000000 
0.05000    103395944.00000000 64674328.00000000 163547744.00000000 58928.53125000  4926225.00000000 3895357.00000000 
0.05100    101585264.00000000 63549568.00000000 160693984.00000000 57603.11328125  4827213.50000000 3817269.25000000 
0.05200    99776136.00000000 62426452.00000000 157843040.00000000 56284.28125000  4728504.00000000 3739421.50000000 
0.05300    97971592.00000000 61305756.00000000 154996816.00000000 54973.65625000  4630179.00000000 3661893.75000000 
0.05400    96172184.00000000 60188052.00000000 152161136.00000000 53672.15625000  4532321.50000000 3584736.50000000 
0.05500    94378776.00000000 59074588.00000000 149334896.00000000 52380.39062500  4435044.00000000 3508002.25000000 
0.05600    92593808.00000000 57965656.00000000 146521216.00000000 51100.33203125  4338408.50000000 3431780.25000000 
0.05700    90817896.00000000 56863056.00000000 143723584.00000000 49832.23437500  4242436.00000000 3356116.00000000 
0.05800    89053104.00000000 55766628.00000000 140940896.00000000 48577.37890625  4147272.25000000 3281065.75000000 
0.05900    87300248.00000000 54677560.00000000 138176896.00000000 47336.52734375  4052961.75000000 3206668.50000000 
0.06000    85560096.00000000 53596680.00000000 135433776.00000000 46110.81250000  3959566.25000000 3132997.25000000 
0.06100    83834096.00000000 52524700.00000000 132713736.00000000 44901.12500000  3867157.50000000 3060128.50000000 
0.06200    82123792.00000000 51462364.00000000 130017920.00000000 43707.89453125  3775776.25000000 2988041.75000000 
0.06300    80430432.00000000 50410080.00000000 127348232.00000000 42532.25390625  3685534.25000000 2916850.75000000 
0.06400    78754360.00000000 49369128.00000000 124705880.00000000 41374.44140625  3596410.25000000 2846547.25000000 
0.06500    77096496.00000000 48339196.00000000 122093024.00000000 40235.79296875  3508504.00000000 2777213.00000000 
0.06600    75458928.00000000 47321776.00000000 119510960.00000000 39116.44140625  3421875.75000000 2708861.75000000 
0.06700    73841232.00000000 46317104.00000000 116960864.00000000 38017.19531250  3336537.25000000 2641544.25000000 
0.06800    72244872.00000000 45325292.00000000 114444560.00000000 36938.43359375  3252565.00000000 2575276.00000000 
0.06900    70671648.00000000 44347500.00000000 111963808.00000000 35880.71484375  3169972.50000000 2510130.00000000 
0.07000    69120560.00000000 43384212.00000000 109518672.00000000 34844.35937500  3088810.50000000 2446087.75000000 
0.07100    67593488.00000000 42435040.00000000 107111192.00000000 33830.08593750  3009120.25000000 2383211.75000000 
0.07200    66090496.00000000 41500936.00000000 104741504.00000000 32837.57031250  2930916.75000000 2321484.25000000 
0.07300    64612928.00000000 40582972.00000000 102411816.00000000 31867.75390625  2854246.25000000 2260994.75000000 
0.07400    63160944.00000000 39680516.00000000 100122344.00000000 30920.64257812  2779109.75000000 2201701.75000000 
0.07500    61734676.00000000 38793696.00000000 97873048.00000000 29996.53320312  2705546.00000000 2143648.75000000 
0.07600    60335176.00000000 37924076.00000000 95666552.00000000 29095.35156250  2633569.00000000 2086843.25000000 
0.07700    58962436.00000000 37070936.00000000 93501968.00000000 28217.60546875  2563227.25000000 2031317.37500000 
0.07800    57617140.00000000 36234708.00000000 91380032.00000000 27362.92773438  2494467.00000000 1977049.75000000 
0.07900    56299236.00000000 35415332.00000000 89302128.00000000 26531.48242188  2427359.00000000 1924070.25000000 
0.08000    55009548.00000000 34613712.00000000 87267984.00000000 25723.66601562  2361881.25000000 1872379.62500000 
0.08100    53747908.00000000 33829368.00000000 85278584.00000000 24938.91015625  2298056.00000000 1821977.37500000 
0.08200    52514628.00000000 33062376.00000000 83333824.00000000 24177.43750000  2235842.00000000 1772870.50000000 
0.08300    51309988.00000000 32313344.00000000 81433416.00000000 23439.04492188  2175303.75000000 1725054.50000000 
0.08400    50133524.00000000 31581964.00000000 79578464.00000000 22723.54101562  2116388.00000000 1678536.00000000 
0.08500    48985836.00000000 30868560.00000000 77768368.00000000 22030.77929688  2059117.62500000 1633310.25000000 
0.08600    47867016.00000000 30172396.00000000 76003752.00000000 21360.59179688  2003463.75000000 1589342.87500000 
0.08700    46776620.00000000 29494354.00000000 74283336.00000000 20712.62109375  1949432.25000000 1546668.62500000 
0.08800    45714708.00000000 28833908.00000000 72608136.00000000 20086.73046875  1896997.12500000 1505256.87500000 
0.08900    44681212.00000000 28191182.00000000 70978096.00000000 19482.45117188  1846158.25000000 1465091.25000000 
0.09000    43675980.00000000 27565792.00000000 69391968.00000000 18899.53320312  1796891.00000000 1426161.12500000 
0.09100    42698696.00000000 26957862.00000000 67850280.00000000 18337.62304688  1749174.50000000 1388444.12500000 
0.09200    41749128.00000000 26367242.00000000 66352904.00000000 17796.24414062  1702980.37500000 1351947.75000000 
0.09300    40827364.00000000 25793660.00000000 64897952.00000000 17275.24218750  1658313.37500000 1316632.87500000 
0.09400    39932672.00000000 25237068.00000000 63486648.00000000 16773.89062500  1615121.50000000 1282499.12500000 
0.09500    39065088.00000000 24697112.00000000 62117392.00000000 16291.77636719  1573387.00000000 1249502.50000000 
0.09600    38223696.00000000 24173738.00000000 60790352.00000000 15828.70605469  1533088.87500000 1217638.62500000 
0.09700    37408896.00000000 23666586.00000000 59504636.00000000 15383.99316406  1494198.50000000 1186875.25000000 
0.09800    36619792.00000000 23175446.00000000 58259324.00000000 14957.19824219  1456680.50000000 1157201.87500000 
0.09900    35856060.00000000 22700130.00000000 57053876.00000000 14547.75390625  1420507.00000000 1128579.37500000 
0.10000    35117168.00000000 22240176.00000000 55887804.00000000 14155.42089844  1385642.12500000 1100994.37500000 
0.10100    34402352.00000000 21795302.00000000 54760240.00000000 13779.12304688  1352036.87500000 1074419.25000000 
0.10200    33711764.00000000 21365274.00000000 53669936.00000000 13418.83593750  1319698.12500000 1048809.12500000 
0.10300    33044542.00000000 20949788.00000000 52617056.00000000 13073.76757812  1288551.37500000 1024158.43750000 
0.10400    32399962.00000000 20548618.00000000 51599660.00000000 12743.47265625  1258591.87500000 1000426.50000000 
0.10500    31777890.00000000 20161206.00000000 50617572.00000000 12427.57324219  1229764.25000000 977599.68750000 
0.10600    31177168.00000000 19787282.00000000 49669608.00000000 12125.18554688  1202038.00000000 955627.37500000 
0.10700    30597640.00000000 19426396.00000000 48755052.00000000 11835.87500000  1175369.62500000 934505.37500000 
0.10800    30038846.00000000 19078222.00000000 47872648.00000000 11559.19921875  1149735.62500000 914179.50000000 
0.10900    29499874.00000000 18742578.00000000 47021736.00000000 11294.52343750  1125080.75000000 894640.93750000 
0.11000    28980068.00000000 18418898.00000000 46200972.00000000 11041.36523438  1101376.12500000 875843.75000000 
0.11100    28479114.00000000 18106768.00000000 45410088.00000000 10799.12792969  1078586.25000000 857771.50000000 
0.11200    27996000.00000000 17805914.00000000 44647220.00000000 10567.25878906  1056672.62500000 840386.93750000 
0.11300    27530512.00000000 17515770.00000000 43912032.00000000 10345.36328125  1035596.50000000 823664.81250000 
0.11400    27081618.00000000 17236224.00000000 43203464.00000000 10132.86816406  1015320.31250000 807566.18750000 
0.11500    26648986.00000000 16966592.00000000 42520344.00000000 9929.17675781   995815.50000000 792082.56250000 
0.11600    26231958.00000000 16706664.00000000 41861700.00000000 9733.85546875   977035.12500000 777166.00000000 
0.11700    25829732.00000000 16456010.00000000 41226428.00000000 9546.45898438   958949.00000000 762797.18750000 
0.11800    25441690.00000000 16214184.00000000 40613500.00000000 9366.40039062   941508.25000000 748939.25000000 
0.11900    25067380.00000000 15980833.00000000 40022116.00000000 9193.26855469   924702.06250000 735570.68750000 
0.12000    24705774.00000000 15755570.00000000 39451220.00000000 9026.60156250   908468.37500000 722666.93750000 
0.12100    24356862.00000000 15537987.00000000 38900056.00000000 8866.12402344   892798.50000000 710207.37500000 
0.12200    24019596.00000000 15327812.00000000 38367248.00000000 8711.17285156   877650.75000000 698148.56250000 
0.12300    23693550.00000000 15124560.00000000 37852460.00000000 8561.44531250   862983.31250000 686477.56250000 
0.12400    23378166.00000000 14927893.00000000 37353944.00000000 8416.60839844   848776.81250000 675167.12500000 
0.12500    23072672.00000000 14737426.00000000 36871368.00000000 8276.16503906   834997.18750000 664189.87500000 
0.12600    22776758.00000000 14552905.00000000 36404008.00000000 8139.82861328   821618.81250000 653535.12500000 
0.12700    22489738.00000000 14373952.00000000 35950184.00000000 8007.18798828   808610.93750000 643163.25000000 
0.12800    22211052.00000000 14200106.00000000 35509884.00000000 7877.93457031   795936.25000000 633066.37500000 
0.12900    21940182.00000000 14031130.00000000 35081768.00000000 7751.83837891   783585.00000000 623215.18750000 
0.13000    21676568.00000000 13866822.00000000 34665304.00000000 7628.45996094   771517.00000000 613594.43750000 
0.13100    21419754.00000000 13706589.00000000 34259692.00000000 7507.64013672   759722.81250000 604181.50000000 
0.13200    21169224.00000000 13550391.00000000 33863744.00000000 7389.01513672   748165.81250000 594960.56250000 
0.13300    20924742.00000000 13397753.00000000 33477162.00000000 7272.45654297   736833.00000000 585917.62500000 
0.13400    20685626.00000000 13248506.00000000 33099100.00000000 7157.62744141   725695.43750000 577029.75000000 
0.13500    20451386.00000000 13102376.00000000 32729006.00000000 7044.34814453   714738.62500000 568280.50000000 
0.13600    20221574.00000000 12959022.00000000 32365956.00000000 6932.38281250   703940.68750000 559666.12500000 
0.13700    19996200.00000000 12818226.00000000 32009318.00000000 6821.62402344   693287.12500000 551158.50000000 
0.13800    19774214.00000000 12679793.00000000 31658788.00000000 6711.78710938   682760.43750000 542748.62500000 
0.13900    19555844.00000000 12543411.00000000 31313488.00000000 6602.85986328   672343.25000000 534430.25000000 
0.14000    19340550.00000000 12409021.00000000 30972956.00000000 6494.62792969   662027.50000000 526186.81250000 
0.14100    19127824.00000000 12276272.00000000 30636690.00000000 6386.95507812   651793.87500000 518012.21875000 
0.14200    18917592.00000000 12144884.00000000 30304252.00000000 6279.75195312   641629.62500000 509895.18750000 
0.14300    18709422.00000000 12014881.00000000 29975148.00000000 6172.94091797   631523.25000000 501822.40625000 
0.14400    18502996.00000000 11885989.00000000 29648738.00000000 6066.44335938   621469.56250000 493789.93750000 
0.14500    18298278.00000000 11757985.00000000 29324958.00000000 5960.15527344   611456.37500000 485790.56250000 
0.14600    18094836.00000000 11630877.00000000 29003044.00000000 5854.09375000   601474.93750000 477818.31250000 
0.14700    17892568.00000000 11504434.00000000 28682926.00000000 5748.08007812   591523.18750000 469869.00000000 
0.14800    17691096.00000000 11378400.00000000 28364186.00000000 5642.17480469   581585.62500000 461933.03125000 
0.14900    17490324.00000000 11252875.00000000 28046524.00000000 5536.36132812   571663.31250000 454006.59375000 
0.15000    17290096.00000000 11127560.00000000 27729660.00000000 5430.62060547   561750.68750000 446089.37500000 
0.15100    17090140.00000000 11002565.00000000 27413232.00000000 5324.90429688   551845.87500000 438178.50000000 
0.15200    16890648.00000000 10877620.00000000 27097280.00000000 5219.30126953   541945.68750000 430276.37500000 
0.15300    16691084.00000000 10752786.00000000 26781494.00000000 5113.74267578   532046.37500000 422370.40625000 
0.15400    16491455.00000000 10627743.00000000 26465524.00000000 5008.28808594   522141.65625000 414463.09375000 
0.15500    16291839.00000000 10502698.00000000 26149316.00000000 4902.98193359   512245.03125000 406560.78125000 
0.15600    16091989.00000000 10377480.00000000 25832714.00000000 4797.81835938   502341.12500000 398656.78125000 
0.15700    15891895.00000000 10252156.00000000 25516020.00000000 4692.94384766   492445.12500000 390754.81250000 
0.15800    15691511.00000000 10126454.00000000 25198420.00000000 4588.22021484   482545.93750000 382852.12500000 
0.15900    15490772.00000000 10000569.00000000 24880466.00000000 4483.88671875   472652.34375000 374957.28125000 
0.16000    15289650.00000000 9874373.00000000 24561692.00000000 4379.90576172   462766.25000000 367065.37500000 
0.16100    15088204.00000000 9747899.00000000 24242322.00000000 4276.39599609   452890.71875000 359185.78125000 
0.16200    14886361.00000000 9621158.00000000 23922336.00000000 4173.35351562   443028.18750000 351312.87500000 
0.16300    14684081.00000000 9494117.00000000 23601704.00000000 4070.89599609   433179.56250000 343457.71875000 
0.16400    14481502.00000000 9366774.00000000 23280332.00000000 3969.09985352   423356.28125000 335618.78125000 
0.16500    14278547.00000000 9239158.00000000 22958336.00000000 3867.99291992   413556.62500000 327800.65625000 
0.16600    14075210.00000000 9111298.00000000 22635790.00000000 3767.66821289   403790.34375000 320008.28125000 
0.16700    13871640.00000000 8983234.00000000 22312816.00000000 3668.24267578   394053.62500000 312242.56250000 
0.16800    13667874.00000000 8854929.00000000 21989330.00000000 3569.70703125   384362.12500000 304508.56250000 
0.16900    13463948.00000000 8726553.00000000 21665780.00000000 3472.23901367   374719.06250000 296815.78125000 
0.17000    13259961.00000000 8597976.00000000 21341818.00000000 3375.83154297   365123.28125000 289163.59375000 
