# SAXS profile: number of points = 501, q_min = 0, q_max = 0.5, delta_q = 0.001
#    q    intensity 
0.00000    162235936.00000000 101202648.00000000 256270432.00000000 111545.67187500 8508093.00000000 6719655.00000000 
0.00100    162204864.00000000 101181312.00000000 256218576.00000000 111514.70312500 8506066.00000000 6718072.00000000 
0.00200    162107248.00000000 101121200.00000000 256064336.00000000 111423.86718750 8499994.00000000 6713281.50000000 
0.00300    161945680.00000000 101019240.00000000 255804832.00000000 111271.73437500 8489808.00000000 6705316.50000000 
0.00400    161715088.00000000 100878352.00000000 255442880.00000000 111059.35156250 8475611.00000000 6694164.50000000 
0.00500    161417888.00000000 100695768.00000000 254978208.00000000 110786.99218750 8457357.00000000 6679883.00000000 
0.00600    161054672.00000000 100472064.00000000 254409824.00000000 110455.71875000 8435117.00000000 6662501.00000000 
0.00700    160625104.00000000 100211328.00000000 253742592.00000000 110064.38281250 8408969.00000000 6641930.00000000 
0.00800    160129696.00000000 99910928.00000000 252975152.00000000 109616.42187500 8378816.50000000 6618390.50000000 
0.00900    159573664.00000000 99571240.00000000 252107056.00000000 109110.45312500 8344857.50000000 6591725.00000000 
0.01000    158957376.00000000 99194848.00000000 251140608.00000000 108547.91406250 8307080.00000000 6562123.00000000 
0.01100    158282240.00000000 98779376.00000000 250078768.00000000 107930.13281250 8265576.50000000 6529568.00000000 
0.01200    157542864.00000000 98326368.00000000 248920096.00000000 107258.32031250 8220387.00000000 6494127.00000000 
0.01300    156742368.00000000 97835704.00000000 247667808.00000000 106533.40625000 8171578.50000000 6455838.00000000 
0.01400    155883600.00000000 97309960.00000000 246324992.00000000 105756.62500000 8119217.50000000 6414782.00000000 
0.01500    154966800.00000000 96748680.00000000 244892256.00000000 104929.05468750 8063379.00000000 6371027.50000000 
0.01600    153995328.00000000 96153032.00000000 243370000.00000000 104052.93750000 8004225.00000000 6324618.00000000 
0.01700    152967696.00000000 95523496.00000000 241761296.00000000 103129.26562500 7941758.50000000 6275660.00000000 
0.01800    151887408.00000000 94861992.00000000 240068784.00000000 102159.72656250 7876123.50000000 6224170.50000000 
0.01900    150754144.00000000 94167128.00000000 238294880.00000000 101146.11718750 7807427.50000000 6170304.00000000 
0.02000    149571504.00000000 93441864.00000000 236441728.00000000 100090.14062500 7735756.00000000 6114089.00000000 
0.02100    148339488.00000000 92686424.00000000 234511664.00000000 98993.50000000  7661195.50000000 6055607.50000000 
0.02200    147059328.00000000 91901872.00000000 232507088.00000000 97858.60156250  7583941.00000000 5994940.00000000 
0.02300    145732512.00000000 91088336.00000000 230430480.00000000 96686.75000000  7504034.00000000 5932247.00000000 
0.02400    144363760.00000000 90248584.00000000 228284048.00000000 95479.88281250  7421598.50000000 5867577.00000000 
0.02500    142952432.00000000 89381696.00000000 226072448.00000000 94239.89843750  7336757.00000000 5801006.50000000 
0.02600    141499936.00000000 88490264.00000000 223796512.00000000 92968.98437500  7249651.00000000 5732647.50000000 
0.02700    140008928.00000000 87575128.00000000 221460896.00000000 91669.00000000  7160429.00000000 5662588.00000000 
0.02800    138482000.00000000 86636448.00000000 219065968.00000000 90342.41406250  7069124.00000000 5590945.50000000 
0.02900    136918272.00000000 85676688.00000000 216616544.00000000 88991.18750000  6976016.50000000 5517795.00000000 
0.03000    135324032.00000000 84696752.00000000 214115216.00000000 87617.70312500  6881054.00000000 5443246.50000000 
0.03100    133698528.00000000 83697680.00000000 211566592.00000000 86223.10937500  6784555.50000000 5367453.50000000 
0.03200    132042360.00000000 82679648.00000000 208970032.00000000 84810.10937500  6686484.50000000 5290428.50000000 
0.03300    130360592.00000000 81645392.00000000 206331856.00000000 83380.78125000  6587093.00000000 5212325.50000000 
0.03400    128653264.00000000 80595504.00000000 203654208.00000000 81937.02343750  6486439.00000000 5133231.50000000 
0.03500    126923880.00000000 79530984.00000000 200939776.00000000 80480.68750000  6384679.50000000 5053259.00000000 
0.03600    125172056.00000000 78452808.00000000 198191696.00000000 79014.39062500  6281937.00000000 4972546.50000000 
0.03700    123401888.00000000 77363208.00000000 195413904.00000000 77539.72656250  6178403.00000000 4891127.50000000 
0.03800    121615504.00000000 76263400.00000000 192608448.00000000 76058.25000000  6074092.00000000 4809153.00000000 
0.03900    119813216.00000000 75152704.00000000 189780928.00000000 74573.80468750  5969216.00000000 4726699.00000000 
0.04000    117998128.00000000 74035072.00000000 186929648.00000000 73085.93750000  5863880.00000000 4643886.50000000 
0.04100    116171552.00000000 72909352.00000000 184063040.00000000 71597.67968750  5758199.00000000 4560748.00000000 
0.04200    114336720.00000000 71777056.00000000 181179136.00000000 70110.27343750  5652347.50000000 4477455.50000000 
0.04300    112494272.00000000 70639880.00000000 178283104.00000000 68626.52343750  5546294.00000000 4394027.00000000 
0.04400    110645760.00000000 69498864.00000000 175379632.00000000 67146.46093750  5440313.00000000 4310634.50000000 
0.04500    108794168.00000000 68355576.00000000 172470000.00000000 65673.71093750  5334429.00000000 4227250.50000000 
0.04600    106941064.00000000 67211040.00000000 169556832.00000000 64208.07812500  5228819.00000000 4144114.50000000 
0.04700    105088520.00000000 66065448.00000000 166641920.00000000 62752.44531250  5123560.00000000 4061210.75000000 
0.04800    103236368.00000000 64920972.00000000 163730768.00000000 61307.70703125  5018755.50000000 3978665.50000000 
0.04900    101388840.00000000 63778220.00000000 160823504.00000000 59875.41796875  4914490.50000000 3896511.00000000 
0.05000    99545864.00000000 62638360.00000000 157925088.00000000 58456.22656250  4810867.50000000 3814881.50000000 
0.05100    97710400.00000000 61501840.00000000 155035760.00000000 57052.60546875  4707992.50000000 3733794.00000000 
0.05200    95882808.00000000 60369888.00000000 152158864.00000000 55664.67187500  4605945.50000000 3653332.75000000 
0.05300    94065344.00000000 59243780.00000000 149297008.00000000 54294.46484375  4504780.00000000 3573596.25000000 
0.05400    92259160.00000000 58123788.00000000 146451936.00000000 52942.45312500  4404632.50000000 3494622.25000000 
0.05500    90464928.00000000 57011508.00000000 143627552.00000000 51609.55859375  4305599.00000000 3416488.50000000 
0.05600    88685280.00000000 55907484.00000000 140823712.00000000 50296.94140625  4207675.50000000 3339233.50000000 
0.05700    86920872.00000000 54812584.00000000 138044176.00000000 49006.06640625  4110965.50000000 3262889.50000000 
0.05800    85174392.00000000 53727332.00000000 135290656.00000000 47736.14062500  4015546.75000000 3187561.75000000 
0.05900    83444512.00000000 52652772.00000000 132564136.00000000 46489.41015625  3921460.25000000 3113264.25000000 
0.06000    81733168.00000000 51589296.00000000 129865968.00000000 45265.24609375  3828765.75000000 3040053.50000000 
0.06100    80042880.00000000 50537452.00000000 127199328.00000000 44065.14062500  3737530.00000000 2967981.00000000 
0.06200    78373488.00000000 49498552.00000000 124564560.00000000 42889.42968750  3647771.00000000 2897067.25000000 
0.06300    76726080.00000000 48472752.00000000 121964792.00000000 41738.01562500  3559550.50000000 2827346.75000000 
0.06400    75101032.00000000 47460820.00000000 119399432.00000000 40612.04687500  3472913.25000000 2758839.00000000 
0.06500    73499784.00000000 46462964.00000000 116871368.00000000 39510.75000000  3387875.50000000 2691583.25000000 
0.06600    71923320.00000000 45479872.00000000 114381336.00000000 38435.15234375  3304457.50000000 2625644.00000000 
0.06700    70372072.00000000 44511692.00000000 111930656.00000000 37385.06640625  3222743.00000000 2560965.25000000 
0.06800    68846560.00000000 43559148.00000000 109519240.00000000 36360.86328125  3142686.25000000 2497601.00000000 
0.06900    67347168.00000000 42622960.00000000 107149464.00000000 35362.66796875  3064356.75000000 2435573.25000000 
0.07000    65875212.00000000 41702740.00000000 104821504.00000000 34389.97656250  2987726.00000000 2374904.25000000 
0.07100    64429848.00000000 40799368.00000000 102536104.00000000 33442.60156250  2912820.00000000 2315583.75000000 
0.07200    63013152.00000000 39912516.00000000 100294000.00000000 32521.24218750  2839651.50000000 2257605.25000000 
0.07300    61623992.00000000 39042912.00000000 98096072.00000000 31625.48437500  2768229.00000000 2200998.25000000 
0.07400    60263324.00000000 38190604.00000000 95941696.00000000 30754.63476562  2698541.25000000 2145771.25000000 
0.07500    58931376.00000000 37356096.00000000 93833256.00000000 29908.81250000  2630599.50000000 2091887.12500000 
0.07600    57628160.00000000 36539040.00000000 91768960.00000000 29087.73828125  2564361.75000000 2039362.25000000 
0.07700    56354184.00000000 35739380.00000000 89750704.00000000 28291.10742188  2499877.25000000 1988186.62500000 
0.07800    55109144.00000000 34957588.00000000 87777616.00000000 27518.23437500  2437075.25000000 1938349.00000000 
0.07900    53893292.00000000 34193900.00000000 85850392.00000000 26769.21679688  2375983.25000000 1889845.00000000 
0.08000    52706288.00000000 33448178.00000000 83968048.00000000 26043.18554688  2316537.25000000 1842665.75000000 
0.08100    51548508.00000000 32720286.00000000 82132000.00000000 25340.14453125  2258799.00000000 1796773.62500000 
0.08200    50419716.00000000 32010016.00000000 80341352.00000000 24659.13085938  2202647.00000000 1752186.00000000 
0.08300    49319436.00000000 31317606.00000000 78595024.00000000 23999.84765625  2148117.00000000 1708858.00000000 
0.08400    48247816.00000000 30642754.00000000 76894408.00000000 23361.93359375  2095184.75000000 1666768.37500000 
0.08500    47204808.00000000 29985280.00000000 75238064.00000000 22744.71875000  2043804.37500000 1625922.37500000 
0.08600    46189904.00000000 29345446.00000000 73625240.00000000 22147.75781250  1993952.12500000 1586265.62500000 
0.08700    45202644.00000000 28722778.00000000 72057008.00000000 21570.28710938  1945573.00000000 1547803.37500000 
0.08800    44242688.00000000 28116950.00000000 70532096.00000000 21012.07031250  1898686.12500000 1510486.87500000 
0.08900    43309532.00000000 27527830.00000000 69049224.00000000 20472.25390625  1853225.25000000 1474297.37500000 
0.09000    42403836.00000000 26955614.00000000 67609744.00000000 19950.43554688  1809154.50000000 1439222.62500000 
0.09100    41523636.00000000 26399706.00000000 66210616.00000000 19445.96484375  1766444.62500000 1405213.37500000 
0.09200    40670064.00000000 25859868.00000000 64852276.00000000 18958.17187500  1725058.37500000 1372248.25000000 
0.09300    39841312.00000000 25335948.00000000 63534576.00000000 18486.78125000  1684954.37500000 1340319.50000000 
0.09400    39037500.00000000 24827286.00000000 62256064.00000000 18030.81250000  1646110.50000000 1309362.62500000 
0.09500    38258284.00000000 24333908.00000000 61015464.00000000 17589.91601562  1608474.62500000 1279382.87500000 
0.09600    37502544.00000000 23855732.00000000 59813136.00000000 17163.59375000  1572015.25000000 1250323.00000000 
0.09700    36770516.00000000 23391932.00000000 58647556.00000000 16751.24023438  1536692.25000000 1222166.25000000 
0.09800    36061032.00000000 22942534.00000000 57518404.00000000 16352.34082031  1502476.12500000 1194889.50000000 
0.09900    35373980.00000000 22506988.00000000 56424196.00000000 15966.11718750  1469315.62500000 1168445.50000000 
0.10000    34708116.00000000 22085096.00000000 55364180.00000000 15592.36718750  1437183.62500000 1142822.87500000 
0.10100    34063524.00000000 21676440.00000000 54337244.00000000 15230.41406250  1406024.25000000 1117969.37500000 
0.10200    33438834.00000000 21280584.00000000 53342852.00000000 14879.73046875  1375820.62500000 1093890.37500000 
0.10300    32834528.00000000 20897166.00000000 52379944.00000000 14540.02929688  1346544.37500000 1070524.25000000 
0.10400    32249262.00000000 20525986.00000000 51448008.00000000 14210.38085938  1318123.87500000 1047855.50000000 
0.10500    31682352.00000000 20166586.00000000 50545224.00000000 13890.91210938  1290559.12500000 1025873.62500000 
0.10600    31133616.00000000 19818572.00000000 49670908.00000000 13580.68066406  1263793.87500000 1004521.06250000 
0.10700    30602360.00000000 19481426.00000000 48824476.00000000 13279.72265625  1237801.25000000 983782.87500000 
0.10800    30087548.00000000 19155216.00000000 48004832.00000000 12987.14257812  1212548.50000000 963639.62500000 
0.10900    29588998.00000000 18839164.00000000 47210912.00000000 12702.88378906  1188000.87500000 944051.87500000 
0.11000    29105986.00000000 18532882.00000000 46441848.00000000 12426.37109375  1164130.87500000 925012.43750000 
0.11100    28637808.00000000 18236432.00000000 45696420.00000000 12157.37207031  1140908.75000000 906484.81250000 
0.11200    28184262.00000000 17948920.00000000 44974188.00000000 11895.53906250  1118295.62500000 888451.93750000 
0.11300    27744312.00000000 17670280.00000000 44273900.00000000 11640.34667969  1096273.00000000 870878.93750000 
0.11400    27317668.00000000 17399938.00000000 43594672.00000000 11391.78320312  1074810.12500000 853769.50000000 
0.11500    26903550.00000000 17138030.00000000 42935992.00000000 11149.36718750  1053885.25000000 837072.50000000 
0.11600    26501674.00000000 16883706.00000000 42296452.00000000 10912.79101562  1033466.25000000 820791.12500000 
0.11700    26111306.00000000 16636958.00000000 41675360.00000000 10681.78222656  1013525.31250000 804894.56250000 
0.11800    25731680.00000000 16397000.00000000 41071996.00000000 10456.19238281  994043.25000000 789363.18750000 
0.11900    25362652.00000000 16164023.00000000 40485388.00000000 10235.72656250  975001.50000000 774183.75000000 
0.12000    25003620.00000000 15937379.00000000 39914712.00000000 10020.08105469  956366.06250000 759336.62500000 
0.12100    24654184.00000000 15716975.00000000 39360072.00000000 9809.38476562   938145.25000000 744805.12500000 
0.12200    24313662.00000000 15502363.00000000 38818776.00000000 9602.89453125   920286.18750000 730582.75000000 
0.12300    23981610.00000000 15293257.00000000 38292432.00000000 9400.87500000   902791.25000000 716649.12500000 
0.12400    23657702.00000000 15089300.00000000 37778176.00000000 9202.86132812   885639.93750000 702981.00000000 
0.12500    23341396.00000000 14890526.00000000 37276596.00000000 9008.87304688   868816.81250000 689581.87500000 
0.12600    23032350.00000000 14696313.00000000 36786580.00000000 8818.80468750   852301.06250000 676433.56250000 
0.12700    22730288.00000000 14506566.00000000 36307224.00000000 8632.34863281   836084.68750000 663521.37500000 
0.12800    22434476.00000000 14321002.00000000 35839040.00000000 8449.52734375   820155.93750000 650837.81250000 
0.12900    22144954.00000000 14139418.00000000 35380208.00000000 8270.08398438   804493.25000000 638373.31250000 
0.13000    21860796.00000000 13961497.00000000 34930684.00000000 8094.00537109   789092.50000000 626117.06250000 
0.13100    21582128.00000000 13787029.00000000 34489516.00000000 7921.18505859   773940.31250000 614063.50000000 
0.13200    21308470.00000000 13615871.00000000 34057064.00000000 7751.49707031   759032.00000000 602204.75000000 
0.13300    21039534.00000000 13447860.00000000 33631272.00000000 7584.88623047   744357.93750000 590527.31250000 
0.13400    20775012.00000000 13282657.00000000 33213442.00000000 7421.27294922   729906.50000000 579030.12500000 
0.13500    20514628.00000000 13120202.00000000 32802052.00000000 7260.57128906   715667.62500000 567710.62500000 
0.13600    20258100.00000000 12960298.00000000 32396912.00000000 7102.74902344   701643.31250000 556555.18750000 
0.13700    20005234.00000000 12802609.00000000 31997482.00000000 6947.63916016   687817.37500000 545565.06250000 
0.13800    19755764.00000000 12647174.00000000 31603438.00000000 6795.39355469   674190.12500000 534727.62500000 
0.13900    19509310.00000000 12493772.00000000 31214940.00000000 6645.79248047   660760.37500000 524054.43750000 
0.14000    19265952.00000000 12342383.00000000 30830714.00000000 6498.88085938   647520.75000000 513525.81250000 
0.14100    19025442.00000000 12192771.00000000 30450824.00000000 6354.56640625   634467.43750000 503148.06250000 
0.14200    18787268.00000000 12044749.00000000 30075460.00000000 6212.81689453   621587.31250000 492913.34375000 
0.14300    18551516.00000000 11898196.00000000 29704020.00000000 6073.67480469   608893.50000000 482824.96875000 
0.14400    18318060.00000000 11753189.00000000 29335868.00000000 5936.99023438   596373.18750000 472871.34375000 
0.14500    18086748.00000000 11609472.00000000 28971112.00000000 5802.80615234   584031.68750000 463062.78125000 
0.14600    17857482.00000000 11467000.00000000 28609674.00000000 5671.14306641   571856.68750000 453389.75000000 
0.14700    17629936.00000000 11325771.00000000 28250946.00000000 5541.91113281   559855.56250000 443853.84375000 
0.14800    17404228.00000000 11185526.00000000 27894828.00000000 5415.06787109   548024.12500000 434448.18750000 
0.14900    17180156.00000000 11046258.00000000 27541656.00000000 5290.60986328   536362.06250000 425176.71875000 
0.15000    16957530.00000000 10908121.00000000 27190824.00000000 5168.54248047   524860.56250000 416040.12500000 
0.15100    16736559.00000000 10770697.00000000 26842204.00000000 5048.86767578   513530.56250000 407033.28125000 
0.15200    16516960.00000000 10634270.00000000 26495924.00000000 4931.55273438   502370.46875000 398160.90625000 
0.15300    16298682.00000000 10498608.00000000 26151828.00000000 4816.52685547   491370.50000000 389418.28125000 
0.15400    16081703.00000000 10363660.00000000 25809448.00000000 4703.80175781   480536.75000000 380807.53125000 
0.15500    15866041.00000000 10229516.00000000 25469014.00000000 4593.36132812   469865.84375000 372326.25000000 
0.15600    15651463.00000000 10096010.00000000 25130646.00000000 4485.23535156   459361.65625000 363976.62500000 
0.15700    15438268.00000000 9963249.00000000 24794112.00000000 4379.33789062   449024.65625000 355755.46875000 
0.15800    15226163.00000000 9831014.00000000 24459014.00000000 4275.67431641   438845.68750000 347665.12500000 
0.15900    15015092.00000000 9699672.00000000 24126062.00000000 4174.21142578   428836.75000000 339705.90625000 
0.16000    14805326.00000000 9568774.00000000 23794426.00000000 4074.95776367   418986.96875000 331873.18750000 
0.16100    14596742.00000000 9438574.00000000 23464720.00000000 3977.92626953   409306.96875000 324172.65625000 
0.16200    14389220.00000000 9309082.00000000 23136818.00000000 3883.05712891   399785.40625000 316598.50000000 
0.16300    14182868.00000000 9180071.00000000 22810412.00000000 3790.26489258   390427.84375000 309157.87500000 
0.16400    13977777.00000000 9051715.00000000 22485918.00000000 3699.62011719   381234.90625000 301841.81250000 
0.16500    13773692.00000000 8924103.00000000 22163216.00000000 3611.10424805   372203.46875000 294655.68750000 
0.16600    13570996.00000000 8797096.00000000 21842020.00000000 3524.64794922   363332.25000000 287596.71875000 
0.16700    13369361.00000000 8670718.00000000 21522880.00000000 3440.23022461   354622.18750000 280662.25000000 
0.16800    13169149.00000000 8545041.00000000 21205376.00000000 3357.82080078   346072.93750000 273857.90625000 
0.16900    12970069.00000000 8420087.00000000 20890020.00000000 3277.45361328   337685.93750000 267176.87500000 
0.17000    12772300.00000000 8295727.50000000 20576300.00000000 3199.04516602   329456.93750000 260624.67187500 
