# SAXS profile: number of points = 501, q_min = 0, q_max = 0.5, delta_q = 0.001
#    q    intensity 
0.00000    162232480.00000000 101202104.00000000 256269568.00000000 109446.29687500 8427683.00000000 6656156.50000000 
0.00100    162192160.00000000 101174016.00000000 256200592.00000000 109409.42968750 8425081.00000000 6654117.50000000 
0.00200    162064032.00000000 101091584.00000000 255990976.00000000 109299.09375000 8417273.00000000 6647968.00000000 
0.00300    161844656.00000000 100954640.00000000 255642176.00000000 109116.15625000 8404352.00000000 6637744.50000000 
0.00400    161532112.00000000 100762024.00000000 255154480.00000000 108860.70312500 8386218.50000000 6623508.50000000 
0.00500    161132752.00000000 100514544.00000000 254525568.00000000 108533.46093750 8362983.50000000 6605301.50000000 
0.00600    160647024.00000000 100214448.00000000 253762416.00000000 108134.04687500 8334801.00000000 6583003.00000000 
0.00700    160069328.00000000 99861048.00000000 252864480.00000000 107664.75000000 8301502.50000000 6556846.00000000 
0.00800    159413456.00000000 99456960.00000000 251833296.00000000 107127.36718750 8263359.00000000 6526805.00000000 
0.00900    158675408.00000000 99000848.00000000 250670928.00000000 106522.39843750 8220401.00000000 6492983.00000000 
0.01000    157855824.00000000 98493096.00000000 249379616.00000000 105850.28906250 8172744.50000000 6455424.50000000 
0.01100    156956192.00000000 97935656.00000000 247962816.00000000 105114.42968750 8120456.50000000 6414281.50000000 
0.01200    155975008.00000000 97328672.00000000 246422192.00000000 104315.83593750 8063677.50000000 6369572.50000000 
0.01300    154918528.00000000 96675816.00000000 244761408.00000000 103455.88281250 8002544.50000000 6321399.50000000 
0.01400    153789456.00000000 95977856.00000000 242983808.00000000 102537.45312500 7937181.00000000 6269936.00000000 
0.01500    152586496.00000000 95235056.00000000 241094464.00000000 101562.76562500 7867728.00000000 6215279.00000000 
0.01600    151315776.00000000 94447392.00000000 239094880.00000000 100534.29687500 7794314.50000000 6157478.00000000 
0.01700    149978336.00000000 93620328.00000000 236990096.00000000 99453.84375000  7717189.00000000 6096745.00000000 
0.01800    148576160.00000000 92752656.00000000 234783872.00000000 98323.02343750  7636428.50000000 6033144.50000000 
0.01900    147111824.00000000 91847040.00000000 232479872.00000000 97146.45312500  7552300.50000000 5966869.00000000 
0.02000    145590256.00000000 90905608.00000000 230083744.00000000 95926.03906250  7464892.50000000 5897968.00000000 
0.02100    144011600.00000000 89927760.00000000 227600528.00000000 94664.05468750  7374402.50000000 5826735.00000000 
0.02200    142380112.00000000 88918104.00000000 225034688.00000000 93364.09375000  7281126.50000000 5753250.00000000 
0.02300    140700928.00000000 87877136.00000000 222389424.00000000 92028.00781250  7185107.00000000 5677577.50000000 
0.02400    138973472.00000000 86807208.00000000 219671408.00000000 90659.52343750  7086620.00000000 5599994.50000000 
0.02500    137202816.00000000 85710280.00000000 216883248.00000000 89261.97656250  6985830.50000000 5520640.00000000 
0.02600    135390624.00000000 84587792.00000000 214033024.00000000 87836.38281250  6883008.50000000 5439524.50000000 
0.02700    133543976.00000000 83443072.00000000 211122240.00000000 86387.49218750  6778288.00000000 5357039.00000000 
0.02800    131662904.00000000 82276848.00000000 208161440.00000000 84917.49218750  6671847.00000000 5273145.50000000 
0.02900    129751688.00000000 81091296.00000000 205150464.00000000 83429.35156250  6563958.00000000 5188106.00000000 
0.03000    127813184.00000000 79888824.00000000 202097856.00000000 81926.43750000  6454805.50000000 5102037.00000000 
0.03100    125850936.00000000 78671872.00000000 199005664.00000000 80410.82812500  6344495.00000000 5015088.50000000 
0.03200    123868032.00000000 77441392.00000000 195881680.00000000 78885.92187500  6233370.50000000 4927517.50000000 
0.03300    121867864.00000000 76200832.00000000 192731664.00000000 77354.75781250  6121548.00000000 4839338.50000000 
0.03400    119853408.00000000 74950768.00000000 189556608.00000000 75819.18750000  6009182.00000000 4750785.50000000 
0.03500    117828216.00000000 73692600.00000000 186363376.00000000 74282.32031250  5896482.00000000 4661913.00000000 
0.03600    115795368.00000000 72429608.00000000 183159744.00000000 72747.37500000  5783693.50000000 4572960.50000000 
0.03700    113757104.00000000 71162936.00000000 179946048.00000000 71215.02343750  5670918.00000000 4484000.50000000 
0.03800    111717000.00000000 69894744.00000000 176729488.00000000 69689.00000000  5558338.50000000 4395212.00000000 
0.03900    109678472.00000000 68627496.00000000 173514208.00000000 68171.25781250  5446164.00000000 4306676.00000000 
0.04000    107643336.00000000 67362312.00000000 170304512.00000000 66664.19531250  5334520.50000000 4218628.00000000 
0.04100    105615352.00000000 66100352.00000000 167106000.00000000 65168.97656250  5223539.50000000 4131063.75000000 
0.04200    103596200.00000000 64844332.00000000 163921680.00000000 63688.37109375  5113413.00000000 4044159.50000000 
0.04300    101588536.00000000 63594760.00000000 160753312.00000000 62224.36718750  5004253.50000000 3957985.00000000 
0.04400    99595656.00000000 62354276.00000000 157607056.00000000 60778.70703125  4896168.00000000 3872721.50000000 
0.04500    97619072.00000000 61122996.00000000 154487024.00000000 59352.43359375  4789326.00000000 3788399.75000000 
0.04600    95661296.00000000 59903500.00000000 151396208.00000000 57947.11328125  4683810.50000000 3705112.25000000 
0.04700    93723040.00000000 58696520.00000000 148338768.00000000 56564.84765625  4579758.00000000 3622951.00000000 
0.04800    91808616.00000000 57503388.00000000 145315648.00000000 55205.91015625  4477240.00000000 3542019.75000000 
0.04900    89917984.00000000 56325116.00000000 142330912.00000000 53871.93359375  4376403.50000000 3462401.50000000 
0.05000    88055088.00000000 55163132.00000000 139388496.00000000 52564.09375000  4277179.50000000 3384081.25000000 
0.05100    86219808.00000000 54018368.00000000 136487744.00000000 51282.48828125  4179886.00000000 3307212.00000000 
0.05200    84412816.00000000 52891240.00000000 133634960.00000000 50028.66406250  4084361.75000000 3231790.00000000 
0.05300    82638128.00000000 51783756.00000000 130830848.00000000 48802.97656250  3990809.25000000 3157906.25000000 
0.05400    80894280.00000000 50695932.00000000 128076352.00000000 47605.51562500  3899203.75000000 3085525.50000000 
0.05500    79183560.00000000 49628524.00000000 125374160.00000000 46437.26171875  3809621.50000000 3014754.25000000 
0.05600    77508304.00000000 48582164.00000000 122725528.00000000 45298.08593750  3722094.50000000 2945599.75000000 
0.05700    75867376.00000000 47557480.00000000 120132248.00000000 44188.36718750  3636610.75000000 2878086.75000000 
0.05800    74261912.00000000 46555024.00000000 117595568.00000000 43108.08984375  3553243.50000000 2812224.75000000 
0.05900    72693248.00000000 45575024.00000000 115114976.00000000 42057.47656250  3471992.50000000 2748016.50000000 
0.06000    71161184.00000000 44618312.00000000 112694200.00000000 41035.59375000  3392853.25000000 2685491.25000000 
0.06100    69666208.00000000 43684344.00000000 110330784.00000000 40043.09765625  3315828.25000000 2624604.75000000 
0.06200    68209120.00000000 42773904.00000000 108027336.00000000 39079.53906250  3240890.50000000 2565418.25000000 
0.06300    66789880.00000000 41886832.00000000 105783360.00000000 38144.89843750  3168080.00000000 2507850.25000000 
0.06400    65408120.00000000 41023620.00000000 103598864.00000000 37237.30078125  3097311.75000000 2451937.50000000 
0.06500    64064528.00000000 40183920.00000000 101475272.00000000 36357.98828125  3028591.25000000 2397647.50000000 
0.06600    62758420.00000000 39368040.00000000 99409856.00000000 35504.70703125  2961912.75000000 2344960.50000000 
0.06700    61489652.00000000 38575052.00000000 97404848.00000000 34678.51171875  2897236.75000000 2293827.50000000 
0.06800    60258196.00000000 37805964.00000000 95458056.00000000 33876.93750000  2834492.25000000 2244251.75000000 
0.06900    59063328.00000000 37059908.00000000 93568832.00000000 33101.22265625  2773658.50000000 2196196.75000000 
0.07000    57904516.00000000 36336356.00000000 91738656.00000000 32349.48242188  2714692.50000000 2149585.25000000 
0.07100    56782048.00000000 35635864.00000000 89964456.00000000 31620.60156250  2657570.00000000 2104436.25000000 
0.07200    55694356.00000000 34957064.00000000 88246680.00000000 30914.87500000  2602178.00000000 2060694.12500000 
0.07300    54641480.00000000 34300612.00000000 86582608.00000000 30230.80664062  2548514.75000000 2018287.00000000 
0.07400    53622180.00000000 33664980.00000000 84973152.00000000 29567.18554688  2496482.25000000 1977217.25000000 
0.07500    52636220.00000000 33050414.00000000 83415880.00000000 28923.96289062  2446080.25000000 1937398.00000000 
0.07600    51682144.00000000 32456340.00000000 81909888.00000000 28299.80664062  2397225.25000000 1898805.62500000 
0.07700    50759784.00000000 31882160.00000000 80454368.00000000 27693.90820312  2349825.00000000 1861400.12500000 
0.07800    49867524.00000000 31327250.00000000 79046416.00000000 27105.67578125  2303863.00000000 1825107.00000000 
0.07900    49005156.00000000 30791308.00000000 77686760.00000000 26533.95312500  2259278.00000000 1789906.75000000 
0.08000    48171160.00000000 30273072.00000000 76372344.00000000 25977.98828125  2215986.75000000 1755731.25000000 
0.08100    47364784.00000000 29773112.00000000 75102000.00000000 25437.12109375  2173943.25000000 1722546.00000000 
0.08200    46585168.00000000 29289712.00000000 73874200.00000000 24910.49609375  2133078.75000000 1690302.25000000 
0.08300    45831312.00000000 28822790.00000000 72687640.00000000 24397.35351562  2093342.12500000 1658951.75000000 
0.08400    45102092.00000000 28371718.00000000 71540400.00000000 23896.97460938  2054662.00000000 1628467.75000000 
0.08500    44396760.00000000 27935672.00000000 70430296.00000000 23408.60937500  2017013.37500000 1598765.12500000 
0.08600    43713200.00000000 27514094.00000000 69357352.00000000 22931.62500000  1980324.37500000 1569818.12500000 
0.08700    43052464.00000000 27106304.00000000 68318392.00000000 22465.26953125  1944524.00000000 1541607.37500000 
0.08800    42411828.00000000 26711884.00000000 67312624.00000000 22008.87109375  1909592.00000000 1514060.75000000 
0.08900    41790792.00000000 26330096.00000000 66339064.00000000 21562.32031250  1875464.75000000 1487150.75000000 
0.09000    41189160.00000000 25960176.00000000 65395000.00000000 21124.70117188  1842083.50000000 1460850.12500000 
0.09100    40604588.00000000 25601626.00000000 64479156.00000000 20695.38281250  1809415.87500000 1435103.50000000 
0.09200    40037100.00000000 25253970.00000000 63590776.00000000 20274.27148438  1777422.50000000 1409887.25000000 
0.09300    39485640.00000000 24916592.00000000 62727352.00000000 19860.65625000  1746050.87500000 1385175.12500000 
0.09400    38949004.00000000 24588616.00000000 61888184.00000000 19454.21093750  1715263.87500000 1360924.62500000 
0.09500    38426352.00000000 24269764.00000000 61071632.00000000 19054.70312500  1685044.62500000 1337090.50000000 
0.09600    37917652.00000000 23959666.00000000 60276540.00000000 18661.68359375  1655344.75000000 1313692.50000000 
0.09700    37420824.00000000 23657296.00000000 59501420.00000000 18275.07031250  1626111.75000000 1290678.50000000 
0.09800    36936264.00000000 23362298.00000000 58744480.00000000 17894.18164062  1597376.87500000 1268024.25000000 
0.09900    36462440.00000000 23074680.00000000 58005896.00000000 17519.28710938  1569058.25000000 1245712.75000000 
0.10000    35998456.00000000 22793394.00000000 57283252.00000000 17150.11523438  1541140.12500000 1223719.12500000 
0.10100    35544736.00000000 22518190.00000000 56575664.00000000 16786.07421875  1513629.12500000 1202021.75000000 
0.10200    35099712.00000000 22248664.00000000 55882660.00000000 16427.49609375  1486478.00000000 1180625.75000000 
0.10300    34662920.00000000 21984218.00000000 55202424.00000000 16074.09667969  1459683.75000000 1159494.75000000 
0.10400    34233924.00000000 21724738.00000000 54534972.00000000 15725.74218750  1433218.00000000 1138638.75000000 
0.10500    33812572.00000000 21469814.00000000 53878900.00000000 15382.57714844  1407081.12500000 1118023.12500000 
0.10600    33397306.00000000 21218974.00000000 53232996.00000000 15044.23730469  1381268.87500000 1097656.37500000 
0.10700    32988622.00000000 20971928.00000000 52597164.00000000 14710.93750000  1355755.75000000 1077523.37500000 
0.10800    32585324.00000000 20728226.00000000 51969776.00000000 14382.77734375  1330534.87500000 1057622.00000000 
0.10900    32187470.00000000 20488170.00000000 51351036.00000000 14059.24218750  1305606.50000000 1037933.12500000 
0.11000    31794778.00000000 20250594.00000000 50739872.00000000 13740.98632812  1280967.25000000 1018475.18750000 
0.11100    31406500.00000000 20015820.00000000 50135724.00000000 13427.59960938  1256599.37500000 999229.25000000 
0.11200    31022234.00000000 19783954.00000000 49537864.00000000 13119.29101562  1232508.50000000 980191.75000000 
0.11300    30642578.00000000 19553778.00000000 48946468.00000000 12816.02441406  1208709.12500000 961370.00000000 
0.11400    30266006.00000000 19325944.00000000 48360352.00000000 12517.95117188  1185186.25000000 942768.62500000 
0.11500    29892936.00000000 19100124.00000000 47779368.00000000 12224.93652344  1161939.37500000 924375.00000000 
0.11600    29523350.00000000 18876088.00000000 47203156.00000000 11937.21484375  1138982.25000000 906199.43750000 
0.11700    29156604.00000000 18653622.00000000 46631672.00000000 11654.69628906  1116299.12500000 888241.25000000 
0.11800    28792824.00000000 18432448.00000000 46063924.00000000 11377.43847656  1093891.37500000 870492.18750000 
0.11900    28431516.00000000 18212546.00000000 45500024.00000000 11105.45800781  1071779.12500000 852980.31250000 
0.12000    28072960.00000000 17994258.00000000 44939900.00000000 10838.90429688  1049953.00000000 835677.25000000 
0.12100    27716794.00000000 17776902.00000000 44383360.00000000 10577.76269531  1028431.18750000 818605.00000000 
0.12200    27362964.00000000 17561012.00000000 43829660.00000000 10321.87695312  1007195.00000000 801763.00000000 
0.12300    27011570.00000000 17345766.00000000 43279780.00000000 10071.51074219  986268.87500000 785150.37500000 
0.12400    26662240.00000000 17131736.00000000 42732804.00000000 9826.57910156   965645.06250000 768773.50000000 
0.12500    26314694.00000000 16918848.00000000 42188228.00000000 9587.02734375   945324.06250000 752632.50000000 
0.12600    25969756.00000000 16706641.00000000 41646444.00000000 9352.83789062   925320.00000000 736737.62500000 
0.12700    25626574.00000000 16495383.00000000 41108300.00000000 9124.06250000   905628.06250000 721085.62500000 
0.12800    25285474.00000000 16285165.00000000 40572372.00000000 8900.64257812   886250.62500000 705679.43750000 
0.12900    24946670.00000000 16075804.00000000 40039284.00000000 8682.53710938   867191.12500000 690507.18750000 
0.13000    24609694.00000000 15867282.00000000 39508804.00000000 8469.72753906   848456.12500000 675595.50000000 
0.13100    24274920.00000000 15659629.00000000 38981392.00000000 8262.03027344   830040.31250000 660934.12500000 
0.13200    23942030.00000000 15452883.00000000 38456492.00000000 8059.56201172   811941.62500000 646518.87500000 
0.13300    23611354.00000000 15247176.00000000 37935184.00000000 7862.04199219   794172.00000000 632360.43750000 
0.13400    23282730.00000000 15042346.00000000 37415860.00000000 7669.49218750   776721.68750000 618453.87500000 
0.13500    22956188.00000000 14838532.00000000 36899384.00000000 7481.99658203   759592.56250000 604799.43750000 
0.13600    22631792.00000000 14635670.00000000 36386488.00000000 7299.13720703   742782.31250000 591398.87500000 
0.13700    22309712.00000000 14433914.00000000 35876592.00000000 7121.10009766   726293.62500000 578243.37500000 
0.13800    21989696.00000000 14233109.00000000 35369276.00000000 6947.57470703   710125.68750000 565338.31250000 
0.13900    21671916.00000000 14033470.00000000 34865732.00000000 6778.52636719   694264.62500000 552686.31250000 
0.14000    21356556.00000000 13834828.00000000 34365124.00000000 6613.84033203   678718.18750000 540275.43750000 
0.14100    21043448.00000000 13637455.00000000 33867876.00000000 6453.37402344   663484.56250000 528116.06250000 
0.14200    20732840.00000000 13441250.00000000 33374014.00000000 6297.05175781   648555.75000000 516190.59375000 
0.14300    20424568.00000000 13246314.00000000 32883772.00000000 6144.74707031   633926.37500000 504511.59375000 
0.14400    20118700.00000000 13052542.00000000 32396698.00000000 5996.22363281   619593.81250000 493055.25000000 
0.14500    19815290.00000000 12860201.00000000 31913546.00000000 5851.55078125   605550.87500000 481841.78125000 
0.14600    19514566.00000000 12669024.00000000 31434030.00000000 5710.44970703   591795.87500000 470848.75000000 
0.14700    19216156.00000000 12479402.00000000 30958458.00000000 5572.83203125   578330.68750000 460083.34375000 
0.14800    18920620.00000000 12291113.00000000 30486558.00000000 5438.57714844   565129.62500000 449534.96875000 
0.14900    18627612.00000000 12104175.00000000 30018542.00000000 5307.54931641   552197.75000000 439204.59375000 
0.15000    18337234.00000000 11918838.00000000 29554430.00000000 5179.70117188   539530.56250000 429079.87500000 
0.15100    18049660.00000000 11735040.00000000 29094676.00000000 5054.91259766   527132.43750000 419166.71875000 
0.15200    17764616.00000000 11552685.00000000 28638798.00000000 4933.01708984   514978.90625000 409453.71875000 
0.15300    17482538.00000000 11371971.00000000 28187024.00000000 4813.90966797   503074.15625000 399935.40625000 
0.15400    17203122.00000000 11192699.00000000 27739672.00000000 4697.52148438   491407.09375000 390607.56250000 
0.15500    16926346.00000000 11015280.00000000 27296544.00000000 4583.75634766   479976.65625000 381470.68750000 
0.15600    16652612.00000000 10839445.00000000 26857620.00000000 4472.53955078   468770.28125000 372519.28125000 
0.15700    16381762.00000000 10665267.00000000 26423284.00000000 4363.73583984   457792.12500000 363742.28125000 
0.15800    16113520.00000000 10492708.00000000 25993144.00000000 4257.28662109   447025.03125000 355136.96875000 
0.15900    15848379.00000000 10321967.00000000 25567596.00000000 4153.09326172   436472.75000000 346707.00000000 
0.16000    15586052.00000000 10152908.00000000 25146462.00000000 4051.21606445   426124.78125000 338437.31250000 
0.16100    15326683.00000000 9985751.00000000 24730188.00000000 3951.46264648   415976.62500000 330326.65625000 
0.16200    15070223.00000000 9820408.00000000 24318154.00000000 3853.76293945   406027.71875000 322373.96875000 
0.16300    14816706.00000000 9656752.00000000 23910814.00000000 3758.11401367   396260.53125000 314573.71875000 
0.16400    14566184.00000000 9494979.00000000 23508572.00000000 3664.50219727   386688.90625000 306923.71875000 
0.16500    14318587.00000000 9335016.00000000 23110336.00000000 3572.82812500   377291.65625000 299414.59375000 
0.16600    14074106.00000000 9176915.00000000 22717296.00000000 3483.09887695   368073.71875000 292050.25000000 
0.16700    13832507.00000000 9020636.00000000 22328788.00000000 3395.22875977   359027.96875000 284821.78125000 
0.16800    13593817.00000000 8866330.00000000 21945104.00000000 3309.21533203   350144.18750000 277726.50000000 
0.16900    13358476.00000000 8713976.00000000 21566288.00000000 3225.07617188   341431.84375000 270763.46875000 
0.17000    13125879.00000000 8563518.00000000 21192150.00000000 3142.71630859   332883.18750000 263935.50000000 
