# SAXS profile: number of points = 501, q_min = 0, q_max = 0.5, delta_q = 0.001
#    q    intensity 
0.00000    162236896.00000000 101201768.00000000 256270832.00000000 104474.21093750 8234057.00000000 6503186.50000000 
0.00100    162202640.00000000 101179904.00000000 256215216.00000000 104445.69531250 8231983.50000000 6501578.50000000 
0.00200    162096544.00000000 101113984.00000000 256045888.00000000 104359.04687500 8225772.50000000 6496742.50000000 
0.00300    161919552.00000000 101003240.00000000 255765744.00000000 104214.17968750 8215500.00000000 6488675.50000000 
0.00400    161668512.00000000 100849056.00000000 255371792.00000000 104011.58593750 8201124.00000000 6477347.00000000 
0.00500    161347104.00000000 100650464.00000000 254867680.00000000 103752.50000000 8182664.00000000 6462852.50000000 
0.00600    160953920.00000000 100409072.00000000 254252496.00000000 103436.30468750 8160134.50000000 6445145.50000000 
0.00700    160491824.00000000 100124072.00000000 253526288.00000000 103064.41406250 8133623.50000000 6424331.00000000 
0.00800    159959008.00000000 99797112.00000000 252694144.00000000 102637.17187500 8103150.50000000 6400406.50000000 
0.00900    159357744.00000000 99427632.00000000 251752256.00000000 102154.43750000 8068782.50000000 6373399.50000000 
0.01000    158690784.00000000 99017160.00000000 250704800.00000000 101618.33593750 8030562.00000000 6343373.00000000 
0.01100    157958288.00000000 98565360.00000000 249554672.00000000 101028.85156250 7988542.50000000 6310357.00000000 
0.01200    157160432.00000000 98073128.00000000 248299056.00000000 100387.97656250 7942787.50000000 6274384.50000000 
0.01300    156297712.00000000 97541528.00000000 246942976.00000000 99695.73437500  7893393.50000000 6235542.00000000 
0.01400    155370416.00000000 96970928.00000000 245489280.00000000 98954.56250000  7840355.50000000 6193911.50000000 
0.01500    154380672.00000000 96361784.00000000 243938768.00000000 98165.15625000  7783917.00000000 6149571.50000000 
0.01600    153333744.00000000 95715024.00000000 242291200.00000000 97327.89062500  7724037.00000000 6102479.00000000 
0.01700    152225328.00000000 95033296.00000000 240553792.00000000 96445.71875000  7660853.00000000 6052866.00000000 
0.01800    151061760.00000000 94316160.00000000 238726032.00000000 95519.59375000  7594470.50000000 6000655.50000000 
0.01900    149841664.00000000 93564520.00000000 236810032.00000000 94550.82812500  7524968.50000000 5946053.00000000 
0.02000    148567840.00000000 92779240.00000000 234810288.00000000 93540.52343750  7452464.00000000 5889055.00000000 
0.02100    147242800.00000000 91962504.00000000 232730240.00000000 92491.77343750  7377117.00000000 5829841.50000000 
0.02200    145867440.00000000 91114712.00000000 230569296.00000000 91405.31250000  7298981.50000000 5768376.00000000 
0.02300    144443312.00000000 90236872.00000000 228333712.00000000 90283.42187500  7218185.50000000 5704880.50000000 
0.02400    142973856.00000000 89330704.00000000 226025840.00000000 89127.49218750  7134858.50000000 5639369.00000000 
0.02500    141460240.00000000 88397296.00000000 223648448.00000000 87939.74218750  7049123.50000000 5572001.50000000 
0.02600    139904288.00000000 87437224.00000000 221202592.00000000 86721.71875000  6961145.50000000 5502774.00000000 
0.02700    138309360.00000000 86453000.00000000 218697104.00000000 85475.55468750  6871010.00000000 5431898.50000000 
0.02800    136675296.00000000 85445080.00000000 216129664.00000000 84202.85937500  6778827.50000000 5359439.50000000 
0.02900    135006880.00000000 84415312.00000000 213508256.00000000 82905.91406250  6684804.00000000 5285466.00000000 
0.03000    133303752.00000000 83364264.00000000 210833248.00000000 81587.35937500  6589019.00000000 5210125.50000000 
0.03100    131570456.00000000 82294584.00000000 208109184.00000000 80248.43750000  6491608.00000000 5133517.50000000 
0.03200    129807952.00000000 81206032.00000000 205339904.00000000 78890.81250000  6392706.50000000 5055749.50000000 
0.03300    128018968.00000000 80101864.00000000 202528032.00000000 77517.03125000  6292526.50000000 4976885.50000000 
0.03400    126205992.00000000 78981936.00000000 199678304.00000000 76128.90625000  6191099.50000000 4897083.50000000 
0.03500    124370624.00000000 77848184.00000000 196793840.00000000 74728.68750000  6088684.50000000 4816458.50000000 
0.03600    122514776.00000000 76702040.00000000 193877152.00000000 73318.26562500  5985269.50000000 4735098.00000000 
0.03700    120643160.00000000 75545256.00000000 190932448.00000000 71899.49218750  5881064.00000000 4653100.50000000 
0.03800    118754968.00000000 74378192.00000000 187964192.00000000 70474.56250000  5776187.50000000 4570571.50000000 
0.03900    116855000.00000000 73203408.00000000 184975792.00000000 69044.60156250  5670850.00000000 4487631.00000000 
0.04000    114943440.00000000 72021680.00000000 181970416.00000000 67612.50781250  5565079.50000000 4404371.00000000 
0.04100    113023704.00000000 70835024.00000000 178951536.00000000 66179.57812500  5459033.50000000 4320873.50000000 
0.04200    111097400.00000000 69643992.00000000 175920832.00000000 64747.74609375  5352895.50000000 4237311.50000000 
0.04300    109167736.00000000 68449536.00000000 172884592.00000000 63318.57031250  5246739.00000000 4153676.25000000 
0.04400    107235432.00000000 67253496.00000000 169843840.00000000 61894.19531250  5140682.50000000 4070136.25000000 
0.04500    105303696.00000000 66057184.00000000 166804176.00000000 60475.77734375  5034856.00000000 3986777.50000000 
0.04600    103374304.00000000 64862456.00000000 163766816.00000000 59065.78515625  4929419.50000000 3903691.25000000 
0.04700    101448288.00000000 63670004.00000000 160736608.00000000 57664.62500000  4824378.50000000 3820944.75000000 
0.04800    99528336.00000000 62480664.00000000 157713568.00000000 56274.51562500  4719987.00000000 3738656.75000000 
0.04900    97617152.00000000 61295732.00000000 154705008.00000000 54897.19140625  4616235.00000000 3656879.25000000 
0.05000    95715592.00000000 60117272.00000000 151709568.00000000 53533.53515625  4513285.00000000 3575706.25000000 
0.05100    93825160.00000000 58945472.00000000 148733008.00000000 52184.80859375  4411211.50000000 3495235.75000000 
0.05200    91949096.00000000 57781604.00000000 145777040.00000000 50852.45312500  4310129.50000000 3415520.50000000 
0.05300    90087704.00000000 56626376.00000000 142844512.00000000 49537.78515625  4210075.00000000 3336629.25000000 
0.05400    88242488.00000000 55481716.00000000 139937168.00000000 48241.66406250  4111190.00000000 3258645.00000000 
0.05500    86415968.00000000 54347640.00000000 137058544.00000000 46965.22656250  4013571.00000000 3181620.25000000 
0.05600    84609504.00000000 53225340.00000000 134210184.00000000 45709.74218750  3917253.25000000 3105619.50000000 
0.05700    82823728.00000000 52116256.00000000 131396000.00000000 44475.87500000  3822319.50000000 3030703.50000000 
0.05800    81060336.00000000 51020612.00000000 128615896.00000000 43264.19531250  3728850.00000000 2956925.25000000 
0.05900    79320296.00000000 49939044.00000000 125873008.00000000 42076.23046875  3636893.00000000 2884338.75000000 
0.06000    77605216.00000000 48872732.00000000 123167896.00000000 40912.04687500  3546520.50000000 2812967.50000000 
0.06100    75915824.00000000 47822328.00000000 120503880.00000000 39772.21484375  3457775.00000000 2742880.00000000 
0.06200    74254360.00000000 46787816.00000000 117881776.00000000 38657.65234375  3370721.75000000 2674102.25000000 
0.06300    72620864.00000000 45771212.00000000 115303328.00000000 37568.57812500  3285406.50000000 2606692.50000000 
0.06400    71015840.00000000 44771576.00000000 112769384.00000000 36505.47656250  3201827.00000000 2540633.75000000 
0.06500    69439944.00000000 43790084.00000000 110282776.00000000 35468.80078125  3120060.75000000 2476006.75000000 
0.06600    67895296.00000000 42827504.00000000 107843456.00000000 34458.57031250  3040131.75000000 2412818.00000000 
0.06700    66381384.00000000 41883528.00000000 105453024.00000000 33475.52343750  2962057.75000000 2351073.75000000 
0.06800    64899232.00000000 40959444.00000000 103111312.00000000 32518.97656250  2885854.75000000 2290805.75000000 
0.06900    63448988.00000000 40054540.00000000 100820096.00000000 31589.62500000  2811559.75000000 2232044.50000000 
0.07000    62031616.00000000 39169716.00000000 98580936.00000000 30687.21875000  2739136.50000000 2174745.00000000 
0.07100    60647116.00000000 38305280.00000000 96392000.00000000 29811.69335938  2668649.00000000 2118946.00000000 
0.07200    59295600.00000000 37461052.00000000 94256008.00000000 28963.02929688  2600085.50000000 2064680.37500000 
0.07300    57977640.00000000 36637364.00000000 92171392.00000000 28141.27734375  2533448.50000000 2011891.12500000 
0.07400    56693244.00000000 35834364.00000000 90140800.00000000 27345.90234375  2468707.50000000 1960624.75000000 
0.07500    55442656.00000000 35052168.00000000 88161872.00000000 26576.65429688  2405884.75000000 1910845.75000000 
0.07600    54225520.00000000 34290752.00000000 86236784.00000000 25833.47851562  2344921.00000000 1862557.37500000 
0.07700    53042164.00000000 33549850.00000000 84363816.00000000 25115.64062500  2285862.00000000 1815737.62500000 
0.07800    51892136.00000000 32829502.00000000 82543936.00000000 24423.25781250  2228655.50000000 1770379.75000000 
0.07900    50775768.00000000 32129894.00000000 80775816.00000000 23755.25781250  2173298.50000000 1726468.50000000 
0.08000    49692116.00000000 31450740.00000000 79059752.00000000 23111.43164062  2119746.75000000 1684003.62500000 
0.08100    48641488.00000000 30791920.00000000 77395920.00000000 22491.40625000  2067968.87500000 1642920.25000000 
0.08200    47623408.00000000 30153174.00000000 75782664.00000000 21894.64257812  2017946.00000000 1603225.00000000 
0.08300    46637476.00000000 29534400.00000000 74220208.00000000 21320.25000000  1969649.25000000 1564889.00000000 
0.08400    45682860.00000000 28935178.00000000 72708040.00000000 20767.83203125  1923029.75000000 1527876.87500000 
0.08500    44759600.00000000 28355212.00000000 71243992.00000000 20236.86328125  1878065.75000000 1492166.50000000 
0.08600    43867252.00000000 27794366.00000000 69829488.00000000 19726.40429688  1834718.37500000 1457723.37500000 
0.08700    43004700.00000000 27252176.00000000 68460968.00000000 19236.12304688  1792924.00000000 1424515.50000000 
0.08800    42171488.00000000 26728300.00000000 67139304.00000000 18764.99609375  1752646.37500000 1392501.62500000 
0.08900    41367104.00000000 26222412.00000000 65863728.00000000 18312.62695312  1713858.87500000 1361663.12500000 
0.09000    40591236.00000000 25733888.00000000 64632452.00000000 17878.24218750  1676484.25000000 1331959.00000000 
0.09100    39842448.00000000 25262694.00000000 63444392.00000000 17460.94726562  1640518.37500000 1303344.12500000 
0.09200    39120728.00000000 24808286.00000000 62298544.00000000 17060.16406250  1605877.25000000 1275795.75000000 
0.09300    38424952.00000000 24369992.00000000 61193984.00000000 16675.16601562  1572538.75000000 1249274.00000000 
0.09400    37754136.00000000 23947266.00000000 60129040.00000000 16305.39257812  1540423.37500000 1223714.25000000 
0.09500    37107904.00000000 23539870.00000000 59102456.00000000 15949.86718750  1509509.00000000 1199109.12500000 
0.09600    36485092.00000000 23147398.00000000 58113720.00000000 15608.01171875  1479731.50000000 1175403.50000000 
0.09700    35885340.00000000 22769290.00000000 57160912.00000000 15279.14257812  1451041.00000000 1152565.25000000 
0.09800    35307156.00000000 22404782.00000000 56242884.00000000 14962.39257812  1423406.50000000 1130558.75000000 
0.09900    34750536.00000000 22053738.00000000 55358780.00000000 14657.53613281  1396750.12500000 1109342.75000000 
0.10000    34213944.00000000 21715316.00000000 54506380.00000000 14363.32226562  1371041.00000000 1088859.37500000 
0.10100    33696688.00000000 21389246.00000000 53684372.00000000 14079.60351562  1346221.12500000 1069100.75000000 
0.10200    33198004.00000000 21074864.00000000 52892536.00000000 13805.39160156  1322254.12500000 1050006.50000000 
0.10300    32717178.00000000 20771578.00000000 52128584.00000000 13540.32031250  1299081.87500000 1031553.00000000 
0.10400    32253004.00000000 20479150.00000000 51391640.00000000 13283.48535156  1276652.37500000 1013693.62500000 
0.10500    31805200.00000000 20196806.00000000 50680848.00000000 13034.68359375  1254950.50000000 996403.56250000 
0.10600    31372320.00000000 19924150.00000000 49993272.00000000 12793.09765625  1233888.87500000 979637.06250000 
0.10700    30953890.00000000 19660538.00000000 49329340.00000000 12558.24804688  1213462.37500000 963370.12500000 
0.10800    30549348.00000000 19405722.00000000 48686492.00000000 12329.65722656  1193608.25000000 947562.87500000 
0.10900    30157258.00000000 19158846.00000000 48064616.00000000 12106.74707031  1174279.12500000 932177.75000000 
0.11000    29777320.00000000 18919890.00000000 47462024.00000000 11889.16992188  1155454.62500000 917196.43750000 
0.11100    29408396.00000000 18688102.00000000 46876680.00000000 11676.49023438  1137089.50000000 902581.75000000 
0.11200    29050486.00000000 18462818.00000000 46308768.00000000 11468.22167969  1119146.25000000 888306.75000000 
0.11300    28701822.00000000 18244020.00000000 45756376.00000000 11264.00000000  1101584.62500000 874339.75000000 
0.11400    28362374.00000000 18031100.00000000 45218536.00000000 11063.40917969  1084390.00000000 860665.87500000 
0.11500    28031230.00000000 17823508.00000000 44694288.00000000 10866.31250000  1067517.87500000 847250.18750000 
0.11600    27708058.00000000 17620966.00000000 44182432.00000000 10672.10351562  1050923.75000000 834067.87500000 
0.11700    27391660.00000000 17423016.00000000 43682068.00000000 10480.74511719  1034613.37500000 821102.43750000 
0.11800    27081914.00000000 17229300.00000000 43191980.00000000 10291.66796875  1018528.37500000 808326.93750000 
0.11900    26778130.00000000 17039340.00000000 42711396.00000000 10104.84960938  1002660.18750000 795732.12500000 
0.12000    26479386.00000000 16852952.00000000 42239408.00000000 9920.21875000   986986.50000000 783287.75000000 
0.12100    26185776.00000000 16669804.00000000 41775268.00000000 9737.35839844   971481.43750000 770980.56250000 
0.12200    25896230.00000000 16489287.00000000 41317956.00000000 9556.14062500   956129.87500000 758800.18750000 
0.12300    25610542.00000000 16311461.00000000 40867228.00000000 9376.42187500   940912.43750000 746725.75000000 
0.12400    25328186.00000000 16135784.00000000 40421472.00000000 9198.03906250   925807.06250000 734745.18750000 
0.12500    25048700.00000000 15962027.00000000 39981080.00000000 9020.99511719   910804.31250000 722847.37500000 
0.12600    24771842.00000000 15790025.00000000 39544612.00000000 8845.14355469   895891.50000000 711030.00000000 
0.12700    24497110.00000000 15619610.00000000 39111824.00000000 8670.41113281   881058.37500000 699271.68750000 
0.12800    24224132.00000000 15450281.00000000 38681516.00000000 8496.72753906   866290.68750000 687572.62500000 
0.12900    23952968.00000000 15281984.00000000 38254288.00000000 8324.13183594   851582.06250000 675919.56250000 
0.13000    23682602.00000000 15114675.00000000 37828956.00000000 8152.56103516   836930.50000000 664312.56250000 
0.13100    23413336.00000000 14947854.00000000 37404880.00000000 7981.96435547   822324.31250000 652739.00000000 
0.13200    23144720.00000000 14781583.00000000 36982160.00000000 7812.40771484   807761.31250000 641202.12500000 
0.13300    22876678.00000000 14615831.00000000 36560444.00000000 7643.94482422   793237.18750000 629699.62500000 
0.13400    22608980.00000000 14450181.00000000 36139204.00000000 7476.48925781   778751.12500000 618225.68750000 
0.13500    22341360.00000000 14284707.00000000 35718268.00000000 7310.27734375   764303.43750000 606779.18750000 
0.13600    22073646.00000000 14119225.00000000 35297128.00000000 7145.21826172   749895.81250000 595365.56250000 
0.13700    21806002.00000000 13953640.00000000 34876196.00000000 6981.37353516   735519.43750000 583980.93750000 
0.13800    21537932.00000000 13788056.00000000 34454536.00000000 6818.84912109   721183.50000000 572624.50000000 
0.13900    21269778.00000000 13622198.00000000 34033028.00000000 6657.75878906   706901.56250000 561307.37500000 
0.14000    21001204.00000000 13456150.00000000 33610444.00000000 6498.12548828   692660.06250000 550025.81250000 
0.14100    20732212.00000000 13289888.00000000 33187338.00000000 6340.06738281   678477.00000000 538781.56250000 
0.14200    20462944.00000000 13123262.00000000 32763480.00000000 6183.64794922   664342.43750000 527590.56250000 
0.14300    20193358.00000000 12956436.00000000 32339284.00000000 6029.01660156   650281.18750000 516438.18750000 
0.14400    19923154.00000000 12789231.00000000 31914160.00000000 5876.18750000   636282.81250000 505340.59375000 
0.14500    19652716.00000000 12621806.00000000 31488640.00000000 5725.32324219   622368.62500000 494305.87500000 
0.14600    19381984.00000000 12454129.00000000 31062474.00000000 5576.47412109   608533.37500000 483334.53125000 
0.14700    19111162.00000000 12286304.00000000 30635880.00000000 5429.77490234   594792.00000000 472432.65625000 
0.14800    18840012.00000000 12118176.00000000 30208806.00000000 5285.22705078   581146.12500000 461602.28125000 
0.14900    18568872.00000000 11949904.00000000 29781298.00000000 5142.95361328   567610.62500000 450858.09375000 
0.15000    18297684.00000000 11781513.00000000 29354084.00000000 5003.11230469   554183.43750000 440199.21875000 
0.15100    18026734.00000000 11613143.00000000 28926592.00000000 4865.73242188   540887.43750000 429636.87500000 
0.15200    17756018.00000000 11444812.00000000 28499606.00000000 4730.94726562   527715.50000000 419178.68750000 
0.15300    17485588.00000000 11276623.00000000 28072810.00000000 4598.71777344   514690.34375000 408822.34375000 
0.15400    17215590.00000000 11108490.00000000 27646714.00000000 4469.20654297   501805.34375000 398581.93750000 
0.15500    16946200.00000000 10940552.00000000 27221300.00000000 4342.44384766   489079.68750000 388459.21875000 
0.15600    16677588.00000000 10773047.00000000 26796944.00000000 4218.43896484   476514.18750000 378463.68750000 
0.15700    16409955.00000000 10605917.00000000 26373900.00000000 4097.35156250   464123.68750000 368601.78125000 
0.15800    16143199.00000000 10439213.00000000 25952142.00000000 3979.14282227   451900.59375000 358870.96875000 
0.15900    15877803.00000000 10273090.00000000 25531952.00000000 3863.90673828   439868.96875000 349287.96875000 
0.16000    15613488.00000000 10107659.00000000 25113802.00000000 3751.57690430   428026.00000000 339849.46875000 
0.16100    15350830.00000000 9943018.00000000 24697724.00000000 3642.34155273   416383.21875000 330568.50000000 
0.16200    15089724.00000000 9779160.00000000 24283948.00000000 3536.09179688   404940.40625000 321443.93750000 
0.16300    14830285.00000000 9616291.00000000 23872936.00000000 3432.86669922   393703.56250000 312482.31250000 
0.16400    14572853.00000000 9454366.00000000 23464384.00000000 3332.69970703   382683.31250000 303687.21875000 
0.16500    14317371.00000000 9293578.00000000 23058830.00000000 3235.56835938   371883.00000000 295058.21875000 
0.16600    14064059.00000000 9133970.00000000 22656636.00000000 3141.46630859   361301.90625000 286607.59375000 
0.16700    13813043.00000000 8975626.00000000 22257828.00000000 3050.39794922   350945.28125000 278331.40625000 
0.16800    13564406.00000000 8818584.00000000 21862530.00000000 2962.31005859   340817.46875000 270232.56250000 
0.16900    13318423.00000000 8662991.00000000 21471238.00000000 2877.23217773   330921.06250000 262319.46875000 
0.17000    13075066.00000000 8508909.00000000 21083850.00000000 2795.07714844   321260.96875000 254586.79687500 
