# SAXS profile: number of points = 501, q_min = 0, q_max = 0.5, delta_q = 0.001
#    q    intensity 
0.00000    162228048.00000000 101201800.00000000 256270336.00000000 111782.11718750 8517101.00000000 6726817.50000000 
0.00100    162186176.00000000 101171472.00000000 256194304.00000000 111738.76562500 8514121.00000000 6724446.50000000 
0.00200    162050112.00000000 101080880.00000000 255965088.00000000 111608.85937500 8505368.00000000 6717514.00000000 
0.00300    161811936.00000000 100931888.00000000 255584624.00000000 111392.14843750 8490571.00000000 6705902.00000000 
0.00400    161468128.00000000 100722408.00000000 255052592.00000000 111090.58593750 8469868.00000000 6689707.00000000 
0.00500    161029344.00000000 100450856.00000000 254363120.00000000 110704.84375000 8443498.00000000 6668934.00000000 
0.00600    160494016.00000000 100124664.00000000 253531536.00000000 110235.21093750 8411405.00000000 6643710.50000000 
0.00700    159864336.00000000 99741992.00000000 252552288.00000000 109683.45312500 8373645.50000000 6614027.50000000 
0.00800    159149056.00000000 99302208.00000000 251426128.00000000 109051.96875000 8330372.00000000 6579955.50000000 
0.00900    158346784.00000000 98804968.00000000 250161376.00000000 108340.60156250 8281637.00000000 6541683.00000000 
0.01000    157452880.00000000 98252840.00000000 248754096.00000000 107554.22656250 8227679.50000000 6499202.50000000 
0.01100    156468544.00000000 97646624.00000000 247214880.00000000 106693.57031250 8168569.50000000 6452743.00000000 
0.01200    155401472.00000000 96989880.00000000 245541072.00000000 105761.05468750 8104508.50000000 6402321.00000000 
0.01300    154257184.00000000 96282912.00000000 243740656.00000000 104759.61718750 8035571.50000000 6348190.00000000 
0.01400    153030496.00000000 95527784.00000000 241816672.00000000 103692.25000000 7962060.50000000 6290311.50000000 
0.01500    151729328.00000000 94724672.00000000 239769888.00000000 102561.56250000 7884091.00000000 6229031.50000000 
0.01600    150352032.00000000 93875792.00000000 237608592.00000000 101372.15625000 7801900.00000000 6164307.00000000 
0.01700    148907648.00000000 92984136.00000000 235338752.00000000 100126.06250000 7715653.00000000 6096490.50000000 
0.01800    147395488.00000000 92051048.00000000 232962768.00000000 98826.25000000  7625578.50000000 6025658.50000000 
0.01900    145819024.00000000 91079280.00000000 230485424.00000000 97477.96875000  7531957.00000000 5951996.50000000 
0.02000    144183216.00000000 90067856.00000000 227914592.00000000 96083.27343750  7435041.50000000 5875720.00000000 
0.02100    142489744.00000000 89023232.00000000 225252912.00000000 94646.89062500  7334922.00000000 5796880.00000000 
0.02200    140743936.00000000 87944336.00000000 222509040.00000000 93171.75781250  7231979.00000000 5715851.00000000 
0.02300    138949136.00000000 86834480.00000000 219686512.00000000 91661.73437500  7126346.00000000 5632691.50000000 
0.02400    137106736.00000000 85696680.00000000 216793104.00000000 90121.47656250  7018368.00000000 5547707.00000000 
0.02500    135225312.00000000 84532824.00000000 213829744.00000000 88553.65625000  6908190.50000000 5460937.50000000 
0.02600    133305152.00000000 83343696.00000000 210810480.00000000 86962.86718750  6796161.00000000 5372711.50000000 
0.02700    131349504.00000000 82134048.00000000 207732880.00000000 85352.05468750  6682425.00000000 5283122.00000000 
0.02800    129363648.00000000 80904960.00000000 204607312.00000000 83726.43750000  6567300.00000000 5192435.00000000 
0.02900    127350824.00000000 79658088.00000000 201439296.00000000 82087.24218750  6451039.00000000 5100868.00000000 
0.03000    125315704.00000000 78399344.00000000 198236528.00000000 80440.53906250  6333815.50000000 5008531.00000000 
0.03100    123260912.00000000 77125984.00000000 195000496.00000000 78788.18750000  6215864.50000000 4915634.00000000 
0.03200    121191256.00000000 75841760.00000000 191740400.00000000 77133.88281250  6097516.00000000 4822321.00000000 
0.03300    119107896.00000000 74550560.00000000 188459232.00000000 75481.20312500  5978880.50000000 4728715.00000000 
0.03400    117017104.00000000 73252576.00000000 185166048.00000000 73833.28125000  5860156.50000000 4635167.00000000 
0.03500    114921352.00000000 71950896.00000000 181863728.00000000 72192.25781250  5741651.50000000 4541691.00000000 
0.03600    112823368.00000000 70649192.00000000 178556752.00000000 70561.62500000  5623473.00000000 4448495.50000000 
0.03700    110726968.00000000 69346296.00000000 175253536.00000000 68944.03906250  5505837.50000000 4355753.50000000 
0.03800    108636240.00000000 68046592.00000000 171952864.00000000 67342.65625000  5388983.50000000 4263549.50000000 
0.03900    106552808.00000000 66750356.00000000 168666272.00000000 65758.28906250  5273052.00000000 4172044.25000000 
0.04000    104480360.00000000 65461280.00000000 165397488.00000000 64194.44921875  5158162.50000000 4081419.00000000 
0.04100    102421384.00000000 64179668.00000000 162148928.00000000 62652.71093750  5044533.00000000 3991765.75000000 
0.04200    100377888.00000000 62907776.00000000 158924704.00000000 61135.94531250  4932330.50000000 3903123.00000000 
0.04300    98354288.00000000 61646820.00000000 155730528.00000000 59644.83203125  4821586.50000000 3815696.00000000 
0.04400    96350960.00000000 60398596.00000000 152568560.00000000 58180.89062500  4712466.50000000 3729528.25000000 
0.04500    94371360.00000000 59165080.00000000 149443152.00000000 56745.93359375  4605054.00000000 3644724.25000000 
0.04600    92418200.00000000 57946192.00000000 146356976.00000000 55340.42187500  4499567.00000000 3561381.75000000 
0.04700    90490840.00000000 56744252.00000000 143314176.00000000 53966.09765625  4396021.50000000 3479552.50000000 
0.04800    88593320.00000000 55560076.00000000 140317520.00000000 52623.32031250  4294470.00000000 3399302.25000000 
0.04900    86727336.00000000 54395664.00000000 137367728.00000000 51313.69921875  4195031.50000000 3320699.25000000 
0.05000    84893304.00000000 53250704.00000000 134469264.00000000 50036.65234375  4097696.75000000 3243776.75000000 
0.05100    83094400.00000000 52126016.00000000 131624720.00000000 48792.82812500  4002554.25000000 3168596.50000000 
0.05200    81329968.00000000 51023344.00000000 128835040.00000000 47582.69531250  3909692.75000000 3095134.50000000 
0.05300    79601696.00000000 49943340.00000000 126102080.00000000 46406.32031250  3819088.50000000 3023529.50000000 
0.05400    77910280.00000000 48885576.00000000 123427784.00000000 45263.72656250  3730764.00000000 2953655.25000000 
0.05500    76256656.00000000 47851764.00000000 120812504.00000000 44154.39453125  3644758.75000000 2885637.25000000 
0.05600    74642024.00000000 46841620.00000000 118257464.00000000 43077.92187500  3561021.00000000 2819418.75000000 
0.05700    73066600.00000000 45855812.00000000 115765024.00000000 42034.96093750  3479632.75000000 2755035.25000000 
0.05800    71530232.00000000 44893756.00000000 113334040.00000000 41023.62890625  3400511.00000000 2692429.00000000 
0.05900    70032776.00000000 43957284.00000000 110965856.00000000 40044.13671875  3323669.00000000 2631642.50000000 
0.06000    68576264.00000000 43045368.00000000 108660504.00000000 39095.67187500  3249064.75000000 2572626.25000000 
0.06100    67159280.00000000 42158696.00000000 106419736.00000000 38177.55859375  3176691.25000000 2515347.75000000 
0.06200    65781768.00000000 41296648.00000000 104240272.00000000 37288.73046875  3106480.00000000 2459824.00000000 
0.06300    64444136.00000000 40459500.00000000 102123424.00000000 36428.59765625  3038443.75000000 2405986.25000000 
0.06400    63145752.00000000 39647164.00000000 100068776.00000000 35595.48046875  2972469.75000000 2353779.00000000 
0.06500    61886296.00000000 38859156.00000000 98077576.00000000 34790.46875000  2908581.75000000 2303221.50000000 
0.06600    60665316.00000000 38095720.00000000 96145400.00000000 34010.13281250  2846650.50000000 2254255.25000000 
0.06700    59482100.00000000 37355972.00000000 94274072.00000000 33254.67578125  2786666.50000000 2206772.25000000 
0.06800    58335960.00000000 36639656.00000000 92462872.00000000 32523.13476562  2728577.00000000 2160846.50000000 
0.06900    57226860.00000000 35946684.00000000 90708808.00000000 31814.21679688  2672283.00000000 2116337.75000000 
0.07000    56153328.00000000 35276600.00000000 89012240.00000000 31127.08203125  2617736.00000000 2073217.87500000 
0.07100    55114876.00000000 34628804.00000000 87371432.00000000 30460.99804688  2564907.75000000 2031438.75000000 
0.07200    54110596.00000000 34002464.00000000 85784864.00000000 29814.03320312  2513683.00000000 1990939.25000000 
0.07300    53139604.00000000 33398068.00000000 84252056.00000000 29186.05078125  2464034.25000000 1951715.12500000 
0.07400    52201208.00000000 32813484.00000000 82770392.00000000 28575.85937500  2415890.00000000 1913664.62500000 
0.07500    51293564.00000000 32249268.00000000 81339944.00000000 27982.58984375  2369162.25000000 1876758.87500000 
0.07600    50417276.00000000 31704544.00000000 79957040.00000000 27404.90039062  2323804.75000000 1840946.12500000 
0.07700    49569660.00000000 31178756.00000000 78622816.00000000 26842.60351562  2279778.00000000 1806188.37500000 
0.07800    48750404.00000000 30670662.00000000 77332440.00000000 26294.36328125  2236980.50000000 1772396.37500000 
0.07900    47958708.00000000 30180530.00000000 76085672.00000000 25759.82617188  2195351.00000000 1739561.87500000 
0.08000    47193368.00000000 29706914.00000000 74881360.00000000 25237.99023438  2154878.50000000 1707628.62500000 
0.08100    46453244.00000000 29249674.00000000 73718528.00000000 24727.95312500  2115474.00000000 1676538.50000000 
0.08200    45737528.00000000 28808090.00000000 72593600.00000000 24229.52734375  2077089.25000000 1646266.87500000 
0.08300    45044728.00000000 28381232.00000000 71505264.00000000 23741.75781250  2039662.75000000 1616761.87500000 
0.08400    44373988.00000000 27968644.00000000 70452840.00000000 23264.25390625  2003132.62500000 1587989.37500000 
0.08500    43724960.00000000 27569542.00000000 69435600.00000000 22796.33593750  1967507.12500000 1559899.62500000 
0.08600    43095636.00000000 27183590.00000000 68449432.00000000 22337.95507812  1932674.12500000 1532461.37500000 
0.08700    42485668.00000000 26809688.00000000 67493264.00000000 21887.96679688  1898615.50000000 1505659.00000000 
0.08800    41893208.00000000 26447472.00000000 66566996.00000000 21446.53710938  1865307.12500000 1479424.25000000 
0.08900    41318444.00000000 26096336.00000000 65667972.00000000 21013.11132812  1832700.75000000 1453745.00000000 
0.09000    40760492.00000000 25755724.00000000 64795212.00000000 20587.39453125  1800748.00000000 1428600.00000000 
0.09100    40217036.00000000 25424860.00000000 63947352.00000000 20169.18554688  1769435.25000000 1403953.00000000 
0.09200    39688332.00000000 25103360.00000000 63121880.00000000 19758.29101562  1738704.62500000 1379759.75000000 
0.09300    39173556.00000000 24790328.00000000 62318912.00000000 19354.43359375  1708561.37500000 1356022.62500000 
0.09400    38671700.00000000 24485348.00000000 61536312.00000000 18957.33398438  1678946.50000000 1332733.75000000 
0.09500    38181432.00000000 24188416.00000000 60772496.00000000 18566.61132812  1649847.00000000 1309850.62500000 
0.09600    37702816.00000000 23898298.00000000 60027024.00000000 18182.56054688  1621262.12500000 1287351.87500000 
0.09700    37234540.00000000 23615034.00000000 59298104.00000000 17805.17968750  1593138.75000000 1265203.37500000 
0.09800    36776596.00000000 23337850.00000000 58585048.00000000 17433.85156250  1565470.25000000 1243427.62500000 
0.09900    36327160.00000000 23066464.00000000 57886560.00000000 17068.89843750  1538241.75000000 1221988.00000000 
0.10000    35887208.00000000 22800330.00000000 57201484.00000000 16709.93359375  1511440.37500000 1200887.25000000 
0.10100    35454352.00000000 22539102.00000000 56529168.00000000 16357.06347656  1485033.50000000 1180096.50000000 
0.10200    35030468.00000000 22282472.00000000 55868340.00000000 16010.31542969  1459022.12500000 1159622.75000000 
0.10300    34611884.00000000 22029910.00000000 55217856.00000000 15669.69824219  1433407.62500000 1139421.25000000 
0.10400    34200560.00000000 21781396.00000000 54577604.00000000 15334.87890625  1408160.87500000 1119524.62500000 
0.10500    33794836.00000000 21536224.00000000 53946796.00000000 15006.19921875  1383262.12500000 1099918.12500000 
0.10600    33394378.00000000 21294050.00000000 53323528.00000000 14683.11035156  1358730.87500000 1080556.75000000 
0.10700    32999332.00000000 21055052.00000000 52708508.00000000 14366.24316406  1334554.37500000 1061480.00000000 
0.10800    32608618.00000000 20818444.00000000 52100056.00000000 14054.98144531  1310694.75000000 1042657.50000000 
0.10900    32222240.00000000 20584468.00000000 51497948.00000000 13749.72363281  1287164.25000000 1024078.68750000 
0.11000    31840132.00000000 20352618.00000000 50901972.00000000 13450.09179688  1263956.62500000 1005762.25000000 
0.11100    31461098.00000000 20122486.00000000 50311432.00000000 13155.99609375  1241073.37500000 987670.56250000 
0.11200    31085594.00000000 19894066.00000000 49725332.00000000 12867.72265625  1218507.00000000 969834.25000000 
0.11300    30713232.00000000 19667260.00000000 49143720.00000000 12585.00976562  1196231.00000000 952222.00000000 
0.11400    30343468.00000000 19441930.00000000 48565876.00000000 12307.90917969  1174268.00000000 934846.68750000 
0.11500    29976378.00000000 19217788.00000000 47992208.00000000 12036.20605469  1152593.00000000 917694.06250000 
0.11600    29611548.00000000 18994738.00000000 47421408.00000000 11769.79785156  1131212.12500000 900767.12500000 
0.11700    29248948.00000000 18772602.00000000 46853484.00000000 11508.81542969  1110123.87500000 884056.18750000 
0.11800    28888558.00000000 18551294.00000000 46288296.00000000 11252.96777344  1089318.00000000 867561.62500000 
0.11900    28529524.00000000 18330852.00000000 45725652.00000000 11002.24511719  1068782.75000000 851291.00000000 
0.12000    28172504.00000000 18111062.00000000 45165192.00000000 10756.50488281  1048533.37500000 835217.56250000 
0.12100    27817640.00000000 17891850.00000000 44607044.00000000 10515.73535156  1028539.93750000 819363.81250000 
0.12200    27463754.00000000 17673344.00000000 44050520.00000000 10279.85839844  1008832.68750000 803701.31250000 
0.12300    27111416.00000000 17455292.00000000 43496168.00000000 10048.55468750  989375.00000000 788247.56250000 
0.12400    26760456.00000000 17237878.00000000 42943816.00000000 9821.98632812   970176.75000000 773006.87500000 
0.12500    26410954.00000000 17020772.00000000 42392468.00000000 9599.82812500   951235.37500000 757945.43750000 
0.12600    26062700.00000000 16804340.00000000 41843528.00000000 9382.11035156   932550.43750000 743082.81250000 
0.12700    25716066.00000000 16588108.00000000 41295648.00000000 9168.59082031   914110.25000000 728419.18750000 
0.12800    25370504.00000000 16372489.00000000 40749396.00000000 8959.41113281   895913.06250000 713941.43750000 
0.12900    25026110.00000000 16157347.00000000 40204880.00000000 8754.30468750   877968.00000000 699649.43750000 
0.13000    24683344.00000000 15942719.00000000 39662632.00000000 8553.10644531   860253.87500000 685548.12500000 
0.13100    24341822.00000000 15728607.00000000 39121408.00000000 8355.93164062   842782.56250000 671630.12500000 
0.13200    24001674.00000000 15515000.00000000 38582536.00000000 8162.48974609   825544.00000000 657895.37500000 
0.13300    23663128.00000000 15302125.00000000 38045572.00000000 7972.85400391   808539.25000000 644350.75000000 
0.13400    23325866.00000000 15089735.00000000 37510280.00000000 7786.84472656   791766.81250000 630974.75000000 
0.13500    22990280.00000000 14878162.00000000 36977400.00000000 7604.39990234   775218.87500000 617789.43750000 
0.13600    22656616.00000000 14667509.00000000 36446664.00000000 7425.47998047   758904.56250000 604773.93750000 
0.13700    22324528.00000000 14457431.00000000 35918536.00000000 7250.06542969   742820.68750000 591939.43750000 
0.13800    21994020.00000000 14248292.00000000 35393044.00000000 7077.99072266   726963.62500000 579282.00000000 
0.13900    21665708.00000000 14040231.00000000 34869624.00000000 6909.28466797   711320.12500000 566805.18750000 
0.14000    21338996.00000000 13833179.00000000 34350000.00000000 6743.94580078   695905.93750000 554503.81250000 
0.14100    21014544.00000000 13627287.00000000 33832748.00000000 6581.86914062   680722.37500000 542376.25000000 
0.14200    20692414.00000000 13422378.00000000 33319046.00000000 6423.02539062   665755.06250000 530433.37500000 
0.14300    20372358.00000000 13218823.00000000 32808550.00000000 6267.46240234   651016.18750000 518659.40625000 
0.14400    20054872.00000000 13016502.00000000 32301704.00000000 6115.02832031   636500.00000000 507063.90625000 
0.14500    19739860.00000000 12815819.00000000 31798622.00000000 5965.89111328   622212.25000000 495655.96875000 
0.14600    19427210.00000000 12616391.00000000 31299496.00000000 5819.87304688   608150.00000000 484419.00000000 
0.14700    19117492.00000000 12418651.00000000 30804428.00000000 5677.04980469   594310.37500000 473365.18750000 
0.14800    18810516.00000000 12222459.00000000 30313692.00000000 5537.39404297   580697.06250000 462487.31250000 
0.14900    18506182.00000000 12028119.00000000 29827500.00000000 5400.91162109   567320.25000000 451792.28125000 
0.15000    18205062.00000000 11835311.00000000 29345516.00000000 5267.58154297   554157.75000000 441274.75000000 
0.15100    17906998.00000000 11644576.00000000 28868656.00000000 5137.41113281   541233.50000000 430945.03125000 
0.15200    17612288.00000000 11455558.00000000 28396778.00000000 5010.42236328   528545.12500000 420794.46875000 
0.15300    17320764.00000000 11268719.00000000 27929896.00000000 4886.58007812   516076.15625000 410828.28125000 
0.15400    17032288.00000000 11083679.00000000 27467952.00000000 4765.84082031   503845.62500000 401044.34375000 
0.15500    16747263.00000000 10900947.00000000 27011576.00000000 4648.30615234   491841.34375000 391446.56250000 
0.15600    16465962.00000000 10720287.00000000 26560640.00000000 4533.87646484   480068.90625000 382034.59375000 
0.15700    16188281.00000000 10541836.00000000 26115422.00000000 4422.58740234   468536.96875000 372803.34375000 
0.15800    15913924.00000000 10365451.00000000 25675532.00000000 4314.32910156   457224.71875000 363752.93750000 
0.15900    15643289.00000000 10191548.00000000 25241666.00000000 4209.23535156   446152.37500000 354891.21875000 
0.16000    15376466.00000000 10019823.00000000 24813616.00000000 4107.19677734   435307.75000000 346214.18750000 
0.16100    15113379.00000000 9850447.00000000 24391704.00000000 4008.22167969   424691.34375000 337721.18750000 
0.16200    14853960.00000000 9683617.00000000 23975498.00000000 3912.18798828   414306.00000000 329404.90625000 
0.16300    14598458.00000000 9518931.00000000 23565370.00000000 3819.14135742   404148.68750000 321272.37500000 
0.16400    14346586.00000000 9356698.00000000 23161332.00000000 3728.99658203   394214.87500000 313318.21875000 
0.16500    14098722.00000000 9196904.00000000 22763320.00000000 3641.73583984   384504.34375000 305545.15625000 
0.16600    13854729.00000000 9039547.00000000 22371458.00000000 3557.25463867   375014.40625000 297941.43750000 
0.16700    13614462.00000000 8884581.00000000 21985502.00000000 3475.48559570   365739.28125000 290514.31250000 
0.16800    13378089.00000000 8732042.00000000 21605792.00000000 3396.43725586   356682.71875000 283256.84375000 
0.16900    13145581.00000000 8581837.00000000 21232204.00000000 3319.98706055   347838.00000000 276172.96875000 
0.17000    12916758.00000000 8434190.00000000 20864662.00000000 3246.04125977   339199.96875000 269250.12500000 
