# SAXS profile: number of points = 501, q_min = 0, q_max = 0.5, delta_q = 0.001
#    q    intensity 
0.00000    162232544.00000000 101202784.00000000 256271488.00000000 100767.74218750 8086653.00000000 6386834.50000000 
0.00100    162197200.00000000 101177728.00000000 256209616.00000000 100734.46093750 8084351.00000000 6384988.00000000 
0.00200    162087232.00000000 101106752.00000000 256029232.00000000 100635.73437500 8077401.50000000 6379558.00000000 
0.00300    161897888.00000000 100988208.00000000 255726848.00000000 100471.72656250 8065921.50000000 6370532.00000000 
0.00400    161630400.00000000 100821896.00000000 255305056.00000000 100242.26562500 8049900.00000000 6357936.50000000 
0.00500    161282112.00000000 100609576.00000000 254762336.00000000 99947.75781250  8029327.50000000 6341809.00000000 
0.00600    160858224.00000000 100348600.00000000 254100672.00000000 99590.39062500  8004255.00000000 6322045.00000000 
0.00700    160358304.00000000 100043264.00000000 253322128.00000000 99169.89843750  7974769.00000000 6298893.50000000 
0.00800    159785104.00000000 99693192.00000000 252427824.00000000 98686.55468750  7940883.50000000 6272261.50000000 
0.00900    159142848.00000000 99298536.00000000 251418096.00000000 98142.50000000  7902731.00000000 6242291.00000000 
0.01000    158430352.00000000 98858360.00000000 250296608.00000000 97538.97656250  7860359.00000000 6208913.50000000 
0.01100    157646160.00000000 98374888.00000000 249064048.00000000 96876.92187500  7813814.50000000 6172364.00000000 
0.01200    156791184.00000000 97848520.00000000 247722688.00000000 96158.48437500  7763220.50000000 6132648.50000000 
0.01300    155866576.00000000 97280496.00000000 246274544.00000000 95384.70312500  7708735.00000000 6089810.00000000 
0.01400    154880048.00000000 96671160.00000000 244723568.00000000 94556.75781250  7650382.50000000 6043935.00000000 
0.01500    153828096.00000000 96023504.00000000 243072336.00000000 93678.96875000  7588359.00000000 5995188.00000000 
0.01600    152712320.00000000 95336744.00000000 241321568.00000000 92750.67187500  7522692.00000000 5943575.00000000 
0.01700    151537184.00000000 94611648.00000000 239475024.00000000 91775.42968750  7453604.00000000 5889244.00000000 
0.01800    150302448.00000000 93851528.00000000 237537440.00000000 90754.30468750  7381196.00000000 5832320.00000000 
0.01900    149010304.00000000 93055384.00000000 235510640.00000000 89690.33593750  7305638.00000000 5772909.50000000 
0.02000    147665520.00000000 92226104.00000000 233398736.00000000 88586.04687500  7227065.00000000 5711072.50000000 
0.02100    146268496.00000000 91365160.00000000 231202960.00000000 87443.50781250  7145543.50000000 5647000.50000000 
0.02200    144820256.00000000 90472808.00000000 228930016.00000000 86264.36718750  7061328.00000000 5580760.00000000 
0.02300    143326208.00000000 89550344.00000000 226581696.00000000 85051.54687500  6974539.00000000 5512477.50000000 
0.02400    141786880.00000000 88600648.00000000 224162512.00000000 83807.99218750  6885352.00000000 5442313.00000000 
0.02500    140204272.00000000 87624376.00000000 221675968.00000000 82536.66406250  6793918.00000000 5370406.50000000 
0.02600    138581136.00000000 86622208.00000000 219126848.00000000 81239.18750000  6700446.50000000 5296820.00000000 
0.02700    136921088.00000000 85596816.00000000 216518160.00000000 79918.76562500  6604984.50000000 5221739.00000000 
0.02800    135226016.00000000 84550280.00000000 213853072.00000000 78576.68750000  6507851.00000000 5145270.00000000 
0.02900    133499496.00000000 83483032.00000000 211138544.00000000 77216.96093750  6409087.50000000 5067556.50000000 
0.03000    131741736.00000000 82396544.00000000 208375008.00000000 75841.26562500  6308930.00000000 4988694.50000000 
0.03100    129956760.00000000 81293856.00000000 205570416.00000000 74452.65625000  6207580.00000000 4908900.00000000 
0.03200    128148768.00000000 80174528.00000000 202723296.00000000 73053.56250000  6105069.50000000 4828187.50000000 
0.03300    126317584.00000000 79042752.00000000 199843984.00000000 71646.34375000  6001718.50000000 4746828.00000000 
0.03400    124466464.00000000 77897840.00000000 196932832.00000000 70232.90625000  5897661.50000000 4664807.00000000 
0.03500    122600024.00000000 76743016.00000000 193994576.00000000 68817.64843750  5792991.00000000 4582384.50000000 
0.03600    120718352.00000000 75577528.00000000 191033376.00000000 67399.57812500  5687843.00000000 4499577.00000000 
0.03700    118825472.00000000 74405240.00000000 188052544.00000000 65983.74218750  5582514.50000000 4416547.50000000 
0.03800    116922864.00000000 73225864.00000000 185058416.00000000 64570.55859375  5477035.00000000 4333381.50000000 
0.03900    115013952.00000000 72043056.00000000 182052080.00000000 63162.87890625  5371605.50000000 4250278.50000000 
0.04000    113099680.00000000 70855352.00000000 179038800.00000000 61762.96484375  5266275.00000000 4167284.50000000 
0.04100    111184440.00000000 69667792.00000000 176021200.00000000 60372.02734375  5161290.00000000 4084516.50000000 
0.04200    109268952.00000000 68478816.00000000 173003328.00000000 58992.80078125  5056786.50000000 4002089.25000000 
0.04300    107355840.00000000 67291328.00000000 169987680.00000000 57626.08984375  4952834.00000000 3920117.25000000 
0.04400    105447520.00000000 66105616.00000000 166980160.00000000 56274.33203125  4849612.00000000 3838652.00000000 
0.04500    103546280.00000000 64924380.00000000 163981040.00000000 54938.75000000  4747202.50000000 3757866.25000000 
0.04600    101653584.00000000 63747612.00000000 160996528.00000000 53620.67187500  4645694.50000000 3677797.50000000 
0.04700    99771552.00000000 62577648.00000000 158027520.00000000 52321.32812500  4545223.00000000 3598490.75000000 
0.04800    97901376.00000000 61414488.00000000 155079040.00000000 51042.52734375  4445904.50000000 3520091.75000000 
0.04900    96046792.00000000 60260040.00000000 152152416.00000000 49785.02734375  4347809.50000000 3442655.25000000 
0.05000    94207344.00000000 59115384.00000000 149251024.00000000 48550.21093750  4251057.00000000 3366228.50000000 
0.05100    92386280.00000000 57981192.00000000 146376288.00000000 47338.85156250  4155685.50000000 3290936.25000000 
0.05200    90584736.00000000 56858196.00000000 143531312.00000000 46150.81250000  4061776.50000000 3216739.50000000 
0.05300    88802368.00000000 55747896.00000000 140719808.00000000 44987.94921875  3969412.75000000 3143772.50000000 
0.05400    87043608.00000000 54650976.00000000 137940768.00000000 43850.69921875  3878685.00000000 3072089.00000000 
0.05500    85307680.00000000 53568480.00000000 135199216.00000000 42739.34765625  3789588.00000000 3001682.75000000 
0.05600    83596704.00000000 52500596.00000000 132495760.00000000 41654.57031250  3702197.50000000 2932606.00000000 
0.05700    81911176.00000000 51448352.00000000 129832000.00000000 40596.71484375  3616596.00000000 2864914.25000000 
0.05800    80252488.00000000 50412460.00000000 127209736.00000000 39565.93359375  3532776.75000000 2798647.75000000 
0.05900    78621208.00000000 49393268.00000000 124631608.00000000 38561.95312500  3450753.50000000 2733784.25000000 
0.06000    77018304.00000000 48391640.00000000 122096376.00000000 37585.31250000  3370583.75000000 2670367.50000000 
0.06100    75444528.00000000 47407524.00000000 119607904.00000000 36635.49609375  3292280.75000000 2608446.75000000 
0.06200    73900816.00000000 46441976.00000000 117166160.00000000 35713.12890625  3215858.25000000 2547974.00000000 
0.06300    72386928.00000000 45495032.00000000 114771448.00000000 34817.68359375  3141339.75000000 2488987.25000000 
0.06400    70903920.00000000 44567024.00000000 112425208.00000000 33948.71093750  3068682.50000000 2431493.50000000 
0.06500    69452640.00000000 43658212.00000000 110128728.00000000 33106.04296875  2997940.75000000 2375491.50000000 
0.06600    68033216.00000000 42768744.00000000 107881072.00000000 32289.30859375  2929062.25000000 2320996.00000000 
0.06700    66644652.00000000 41898996.00000000 105684056.00000000 31498.13671875  2862049.50000000 2267920.50000000 
0.06800    65288916.00000000 41049484.00000000 103535976.00000000 30731.75195312  2796912.75000000 2216340.50000000 
0.06900    63963816.00000000 40219276.00000000 101439256.00000000 29990.46875000  2733603.25000000 2166224.00000000 
0.07000    62671992.00000000 39409180.00000000 99393592.00000000 29272.56250000  2672101.25000000 2117507.50000000 
0.07100    61411476.00000000 38619420.00000000 97397104.00000000 28578.08007812  2612397.25000000 2070232.87500000 
0.07200    60183260.00000000 37848836.00000000 95451824.00000000 27906.12890625  2554450.25000000 2024314.75000000 
0.07300    58986868.00000000 37098584.00000000 93557128.00000000 27256.33007812  2498215.00000000 1979790.37500000 
0.07400    57821756.00000000 36367348.00000000 91711472.00000000 26627.77148438  2443689.00000000 1936582.87500000 
0.07500    56687728.00000000 35656368.00000000 89914384.00000000 26019.88281250  2390796.50000000 1894683.50000000 
0.07600    55584104.00000000 34963912.00000000 88166608.00000000 25431.48632812  2339501.75000000 1854065.37500000 
0.07700    54511864.00000000 34290932.00000000 86467360.00000000 24862.36523438  2289795.25000000 1814692.12500000 
0.07800    53468624.00000000 33636836.00000000 84815616.00000000 24311.68750000  2241594.25000000 1776521.75000000 
0.07900    52455396.00000000 33001226.00000000 83210192.00000000 23778.39843750  2194890.75000000 1739515.25000000 
0.08000    51470824.00000000 32383862.00000000 81651256.00000000 23261.93164062  2149612.50000000 1703663.00000000 
0.08100    50515280.00000000 31784516.00000000 80136840.00000000 22761.69921875  2105718.25000000 1668911.50000000 
0.08200    49586912.00000000 31202540.00000000 78666600.00000000 22276.52148438  2063150.37500000 1635208.12500000 
0.08300    48686164.00000000 30637836.00000000 77240200.00000000 21806.17187500  2021902.50000000 1602535.62500000 
0.08400    47811480.00000000 30089764.00000000 75855608.00000000 21349.45507812  1981876.75000000 1570848.25000000 
0.08500    46962648.00000000 29558264.00000000 74511848.00000000 20906.04492188  1943033.50000000 1540127.00000000 
0.08600    46139080.00000000 29042512.00000000 73208864.00000000 20475.14843750  1905371.25000000 1510291.37500000 
0.08700    45340332.00000000 28542408.00000000 71944368.00000000 20056.03710938  1868769.00000000 1481340.37500000 
0.08800    44565116.00000000 28057352.00000000 70717888.00000000 19648.03320312  1833224.87500000 1453217.50000000 
0.08900    43812680.00000000 27586950.00000000 69528384.00000000 19250.65039062  1798680.12500000 1425904.00000000 
0.09000    43082924.00000000 27130840.00000000 68374584.00000000 18863.25976562  1765120.87500000 1399349.37500000 
0.09100    42374296.00000000 26688426.00000000 67254128.00000000 18485.32812500  1732451.25000000 1373512.37500000 
0.09200    41686500.00000000 26259086.00000000 66167408.00000000 18116.17187500  1700647.62500000 1348377.87500000 
0.09300    41019348.00000000 25842840.00000000 65113000.00000000 17755.54101562  1669658.75000000 1323907.25000000 
0.09400    40370584.00000000 25438708.00000000 64089064.00000000 17402.39648438  1639470.00000000 1300044.00000000 
0.09500    39740856.00000000 25046328.00000000 63094632.00000000 17057.01953125  1610025.62500000 1276780.62500000 
0.09600    39128652.00000000 24665496.00000000 62129048.00000000 16718.72460938  1581279.50000000 1254077.62500000 
0.09700    38533724.00000000 24295678.00000000 61190636.00000000 16387.02734375  1553202.87500000 1231917.37500000 
0.09800    37954824.00000000 23936168.00000000 60278104.00000000 16061.39550781  1525751.87500000 1210243.12500000 
0.09900    37391988.00000000 23586696.00000000 59391216.00000000 15742.03417969  1498913.12500000 1189067.37500000 
0.10000    36843876.00000000 23246818.00000000 58527628.00000000 15427.99316406  1472632.87500000 1168326.62500000 
0.10100    36309876.00000000 22916142.00000000 57686740.00000000 15119.38574219  1446879.37500000 1148017.37500000 
0.10200    35789836.00000000 22594146.00000000 56868168.00000000 14816.03027344  1421644.87500000 1128118.12500000 
0.10300    35282192.00000000 22280516.00000000 56069836.00000000 14517.43652344  1396889.25000000 1108588.50000000 
0.10400    34787096.00000000 21974530.00000000 55291232.00000000 14223.45898438  1372579.00000000 1089421.00000000 
0.10500    34303612.00000000 21676338.00000000 54531636.00000000 13934.15234375  1348712.62500000 1070602.12500000 
0.10600    33831220.00000000 21384898.00000000 53789484.00000000 13649.02929688  1325246.87500000 1052102.12500000 
0.10700    33369420.00000000 21100470.00000000 53064144.00000000 13368.28515625  1302165.87500000 1033905.56250000 
0.10800    32917304.00000000 20822192.00000000 52354924.00000000 13091.56445312  1279449.50000000 1016002.93750000 
0.10900    32474660.00000000 20549980.00000000 51660548.00000000 12818.74707031  1257101.37500000 998382.75000000 
0.11000    32040880.00000000 20283580.00000000 50980208.00000000 12550.02148438  1235069.87500000 981023.81250000 
0.11100    31615644.00000000 20022320.00000000 50313184.00000000 12285.11523438  1213369.50000000 963908.37500000 
0.11200    31198126.00000000 19766126.00000000 49659108.00000000 12023.99902344  1191962.25000000 947043.62500000 
0.11300    30788262.00000000 19514812.00000000 49016916.00000000 11766.63671875  1170848.25000000 930400.56250000 
0.11400    30385482.00000000 19267794.00000000 48385748.00000000 11513.06835938  1150031.00000000 913975.31250000 
0.11500    29989238.00000000 19025016.00000000 47765272.00000000 11263.18750000  1129480.62500000 897774.31250000 
0.11600    29599194.00000000 18786302.00000000 47154584.00000000 11017.05078125  1109205.12500000 881778.81250000 
0.11700    29215038.00000000 18551068.00000000 46553048.00000000 10774.67773438  1089181.75000000 865991.50000000 
0.11800    28836366.00000000 18319548.00000000 45960640.00000000 10535.96679688  1069394.75000000 850378.93750000 
0.11900    28462994.00000000 18090834.00000000 45376072.00000000 10300.92285156  1049866.00000000 834964.68750000 
0.12000    28094618.00000000 17865432.00000000 44799176.00000000 10069.68164062  1030564.18750000 819732.18750000 
0.12100    27730820.00000000 17642804.00000000 44230004.00000000 9842.19921875   1011510.56250000 804686.56250000 
0.12200    27371380.00000000 17422710.00000000 43667212.00000000 9618.46191406   992677.81250000 789823.75000000 
0.12300    27016048.00000000 17205330.00000000 43110832.00000000 9398.53613281   974085.87500000 775127.18750000 
0.12400    26664632.00000000 16990224.00000000 42560576.00000000 9182.35937500   955716.37500000 760612.93750000 
0.12500    26316942.00000000 16777185.00000000 42015972.00000000 8969.97851562   937569.37500000 746264.50000000 
0.12600    25972728.00000000 16566250.00000000 41477168.00000000 8761.48828125   919643.68750000 732099.18750000 
0.12700    25631886.00000000 16357299.00000000 40943032.00000000 8556.77929688   901948.93750000 718091.31250000 
0.12800    25294174.00000000 16150146.00000000 40413716.00000000 8355.78906250   884462.87500000 704260.75000000 
0.12900    24959324.00000000 15944712.00000000 39888816.00000000 8158.78027344   867205.81250000 690596.56250000 
0.13000    24627718.00000000 15740909.00000000 39368752.00000000 7965.55175781   850174.87500000 677102.56250000 
0.13100    24298454.00000000 15538668.00000000 38852608.00000000 7776.14550781   833347.00000000 663772.56250000 
0.13200    23972334.00000000 15337802.00000000 38340216.00000000 7590.47558594   816750.93750000 650611.00000000 
0.13300    23648446.00000000 15138569.00000000 37832020.00000000 7408.62304688   800377.00000000 637625.25000000 
0.13400    23327092.00000000 14940452.00000000 37327344.00000000 7230.55468750   784215.93750000 624809.25000000 
0.13500    23008158.00000000 14743794.00000000 36826000.00000000 7056.30078125   768277.68750000 612159.50000000 
0.13600    22691812.00000000 14548348.00000000 36328316.00000000 6885.64843750   752558.12500000 599684.00000000 
0.13700    22377580.00000000 14354153.00000000 35833856.00000000 6718.69091797   737055.81250000 587370.25000000 
0.13800    22065778.00000000 14161021.00000000 35343304.00000000 6555.38525391   721777.06250000 575229.18750000 
0.13900    21755892.00000000 13969230.00000000 34855368.00000000 6395.73730469   706719.75000000 563258.25000000 
0.14000    21448458.00000000 13778602.00000000 34370888.00000000 6239.61035156   691884.25000000 551453.81250000 
0.14100    21143228.00000000 13589031.00000000 33889520.00000000 6087.03222656   677262.18750000 539817.56250000 
0.14200    20840024.00000000 13400542.00000000 33411484.00000000 5937.85546875   662859.18750000 528357.18750000 
0.14300    20539112.00000000 13213241.00000000 32936446.00000000 5792.07568359   648671.68750000 517060.46875000 
0.14400    20240356.00000000 13027033.00000000 32464452.00000000 5649.65771484   634703.93750000 505934.09375000 
0.14500    19943666.00000000 12842006.00000000 31995732.00000000 5510.53125000   620953.50000000 494976.18750000 
0.14600    19649288.00000000 12658217.00000000 31530286.00000000 5374.60546875   607420.31250000 484185.28125000 
0.14700    19357132.00000000 12475488.00000000 31068132.00000000 5241.91015625   594095.87500000 473564.18750000 
0.14800    19067218.00000000 12293900.00000000 30608912.00000000 5112.22998047   580988.18750000 463105.84375000 
0.14900    18779334.00000000 12113442.00000000 30152936.00000000 4985.57080078   568087.81250000 452811.75000000 
0.15000    18493746.00000000 11934349.00000000 29700562.00000000 4861.87109375   555400.56250000 442681.93750000 
0.15100    18210494.00000000 11756318.00000000 29251444.00000000 4741.13720703   542919.68750000 432716.34375000 
0.15200    17929464.00000000 11579615.00000000 28805654.00000000 4623.19628906   530650.37500000 422911.31250000 
0.15300    17651006.00000000 11404164.00000000 28363362.00000000 4508.02246094   518580.00000000 413269.25000000 
0.15400    17374646.00000000 11229946.00000000 27924400.00000000 4395.55566406   506715.25000000 403782.75000000 
0.15500    17100886.00000000 11057136.00000000 27489056.00000000 4285.72802734   495049.84375000 394455.75000000 
0.15600    16829324.00000000 10885566.00000000 27057634.00000000 4178.48925781   483576.90625000 385282.37500000 
0.15700    16560505.00000000 10715434.00000000 26629554.00000000 4073.77368164   472309.62500000 376266.90625000 
0.15800    16293908.00000000 10546662.00000000 26205186.00000000 3971.50097656   461231.43750000 367400.93750000 
0.15900    16029916.00000000 10379344.00000000 25784608.00000000 3871.64086914   450347.84375000 358689.53125000 
0.16000    15768347.00000000 10213339.00000000 25367944.00000000 3774.08666992   439647.53125000 350127.28125000 
0.16100    15509513.00000000 10048955.00000000 24955286.00000000 3678.90600586   429139.03125000 341715.31250000 
0.16200    15253130.00000000 9886036.00000000 24546450.00000000 3585.94555664   418815.28125000 333444.59375000 
0.16300    14999490.00000000 9724625.00000000 24141676.00000000 3495.18090820   408672.93750000 325321.68750000 
0.16400    14748384.00000000 9564723.00000000 23741012.00000000 3406.55053711   398713.46875000 317345.00000000 
0.16500    14500097.00000000 9406500.00000000 23344400.00000000 3320.06103516   388928.00000000 309501.00000000 
0.16600    14254401.00000000 9249734.00000000 22951992.00000000 3235.60668945   379320.62500000 301803.71875000 
0.16700    14011497.00000000 9094707.00000000 22563724.00000000 3153.21533203   369885.43750000 294240.40625000 
0.16800    13771436.00000000 8941140.00000000 22179748.00000000 3072.77246094   360617.28125000 286814.43750000 
0.16900    13534046.00000000 8789471.00000000 21800158.00000000 2994.32739258   351523.09375000 279524.06250000 
0.17000    13299550.00000000 8639295.00000000 21424832.00000000 2917.78564453   342595.03125000 272365.96875000 
