# SAXS profile: number of points = 501, q_min = 0, q_max = 0.5, delta_q = 0.001
#    q    intensity 
0.00000    162233184.00000000 101201600.00000000 256270544.00000000 104430.17968750 8232324.00000000 6501871.00000000 
0.00100    162191376.00000000 101173704.00000000 256199600.00000000 104394.51562500 8229763.50000000 6499845.50000000 
0.00200    162062048.00000000 101089776.00000000 255988176.00000000 104288.32031250 8222095.00000000 6493819.50000000 
0.00300    161840752.00000000 100952104.00000000 255635456.00000000 104111.28125000 8209343.50000000 6483829.00000000 
0.00400    161526480.00000000 100756864.00000000 255141472.00000000 103863.99218750 8191546.00000000 6469775.00000000 
0.00500    161121520.00000000 100507472.00000000 254506544.00000000 103547.28906250 8168759.00000000 6451802.00000000 
0.00600    160631312.00000000 100203120.00000000 253735184.00000000 103162.15625000 8141016.50000000 6429950.50000000 
0.00700    160046240.00000000 99846712.00000000 252826048.00000000 102708.71093750 8108305.50000000 6404262.00000000 
0.00800    159379776.00000000 99436832.00000000 251783424.00000000 102188.01562500 8070813.00000000 6374730.50000000 
0.00900    158634368.00000000 98975928.00000000 250606288.00000000 101602.78125000 8028574.00000000 6341497.50000000 
0.01000    157805040.00000000 98461176.00000000 249299664.00000000 100953.30468750 7981622.50000000 6304586.50000000 
0.01100    156895920.00000000 97897296.00000000 247864704.00000000 100240.39843750 7930170.00000000 6264091.00000000 
0.01200    155901232.00000000 97283800.00000000 246305408.00000000 99466.27343750  7874287.00000000 6220101.50000000 
0.01300    154830928.00000000 96621864.00000000 244622688.00000000 98634.25781250  7814119.00000000 6172660.50000000 
0.01400    153685680.00000000 95913296.00000000 242821072.00000000 97745.02343750  7749672.00000000 6121925.00000000 
0.01500    152468112.00000000 95159928.00000000 240903968.00000000 96800.25781250  7681227.50000000 6068079.00000000 
0.01600    151178048.00000000 94362984.00000000 238876880.00000000 95803.27343750  7608874.50000000 6011091.50000000 
0.01700    149820128.00000000 93521888.00000000 236741104.00000000 94755.48437500  7532785.50000000 5951189.50000000 
0.01800    148396480.00000000 92641432.00000000 234500688.00000000 93659.64062500  7453065.50000000 5888444.00000000 
0.01900    146910624.00000000 91721136.00000000 232162576.00000000 92518.32031250  7369987.00000000 5822989.50000000 
0.02000    145362832.00000000 90763904.00000000 229727184.00000000 91333.15625000  7283635.00000000 5754999.50000000 
0.02100    143757808.00000000 89770064.00000000 227201664.00000000 90107.66406250  7194178.00000000 5684529.50000000 
0.02200    142099440.00000000 88742872.00000000 224589168.00000000 88844.80468750  7101856.50000000 5611812.50000000 
0.02300    140387056.00000000 87683464.00000000 221896736.00000000 87547.15625000  7006820.00000000 5536941.50000000 
0.02400    138627632.00000000 86594120.00000000 219127872.00000000 86216.00000000  6909222.00000000 5460089.50000000 
0.02500    136824672.00000000 85475376.00000000 216286768.00000000 84856.06250000  6809339.50000000 5381427.00000000 
0.02600    134976752.00000000 84331472.00000000 213378224.00000000 83469.44531250  6707324.50000000 5300996.00000000 
0.02700    133090552.00000000 83162008.00000000 210409872.00000000 82058.19531250  6603338.00000000 5219102.50000000 
0.02800    131168672.00000000 81971240.00000000 207383728.00000000 80625.71875000  6497588.50000000 5135773.50000000 
0.02900    129215784.00000000 80759800.00000000 204309680.00000000 79175.53906250  6390305.00000000 5051255.00000000 
0.03000    127233408.00000000 79530288.00000000 201185344.00000000 77709.90625000  6281678.50000000 4965592.00000000 
0.03100    125225216.00000000 78284264.00000000 198020368.00000000 76231.18750000  6171855.50000000 4879059.00000000 
0.03200    123194064.00000000 77024920.00000000 194821888.00000000 74742.32031250  6061077.50000000 4791729.00000000 
0.03300    121143680.00000000 75753488.00000000 191591872.00000000 73246.62500000  5949539.00000000 4703818.50000000 
0.03400    119077744.00000000 74471976.00000000 188338144.00000000 71745.71093750  5837352.00000000 4615380.50000000 
0.03500    116999576.00000000 73181248.00000000 185061504.00000000 70242.73437500  5724834.50000000 4526665.50000000 
0.03600    114910872.00000000 71885104.00000000 181770592.00000000 68739.95312500  5611984.50000000 4437712.00000000 
0.03700    112815896.00000000 70583080.00000000 178469520.00000000 67240.60937500  5499147.50000000 4348688.50000000 
0.03800    110718080.00000000 69279312.00000000 175160112.00000000 65745.72656250  5386399.00000000 4259756.00000000 
0.03900    108619600.00000000 67975664.00000000 171851280.00000000 64258.14453125  5273937.00000000 4171052.00000000 
0.04000    106524192.00000000 66672328.00000000 168547200.00000000 62779.76562500  5161919.50000000 4082677.75000000 
0.04100    104433248.00000000 65372024.00000000 165249744.00000000 61313.24609375  5050504.00000000 3994755.75000000 
0.04200    102351480.00000000 64077428.00000000 161965232.00000000 59860.43750000  4939851.00000000 3907445.00000000 
0.04300    100279776.00000000 62788308.00000000 158697616.00000000 58422.65625000  4830052.50000000 3820827.50000000 
0.04400    98221776.00000000 61508180.00000000 155450704.00000000 57002.25000000  4721315.50000000 3734988.00000000 
0.04500    96179768.00000000 60236796.00000000 152228448.00000000 55600.77734375  4613730.00000000 3650083.50000000 
0.04600    94156144.00000000 58976860.00000000 149033456.00000000 54219.61718750  4507415.00000000 3566147.75000000 
0.04700    92152592.00000000 57729312.00000000 145872976.00000000 52859.93750000  4402483.00000000 3483329.00000000 
0.04800    90172376.00000000 56495788.00000000 142746896.00000000 51523.43750000  4299038.50000000 3401674.25000000 
0.04900    88216480.00000000 55277220.00000000 139659760.00000000 50210.87890625  4197249.50000000 3321256.25000000 
0.05000    86287736.00000000 54074852.00000000 136613792.00000000 48923.84375000  4097118.50000000 3242199.75000000 
0.05100    84387528.00000000 52890076.00000000 133613800.00000000 47662.72656250  3998736.50000000 3164522.00000000 
0.05200    82517096.00000000 51723908.00000000 130659104.00000000 46428.58203125  3902239.25000000 3088295.50000000 
0.05300    80678376.00000000 50577072.00000000 127755440.00000000 45222.26171875  3807654.50000000 3013600.25000000 
0.05400    78873552.00000000 49450892.00000000 124903800.00000000 44044.48437500  3715058.00000000 2940453.00000000 
0.05500    77102624.00000000 48346356.00000000 122106168.00000000 42895.60546875  3624512.75000000 2868877.25000000 
0.05600    75367352.00000000 47263332.00000000 119365048.00000000 41775.71875000  3536024.75000000 2798985.25000000 
0.05700    73670064.00000000 46203964.00000000 116682160.00000000 40685.19140625  3449670.00000000 2730756.00000000 
0.05800    72009360.00000000 45167284.00000000 114058488.00000000 39624.42578125  3365435.75000000 2664203.75000000 
0.05900    70387768.00000000 44154592.00000000 111495224.00000000 38593.46484375  3283410.00000000 2599366.75000000 
0.06000    68805560.00000000 43166880.00000000 108994592.00000000 37592.12890625  3203554.50000000 2536273.25000000 
0.06100    67263344.00000000 42203292.00000000 106556984.00000000 36620.28906250  3125918.75000000 2474891.50000000 
0.06200    65761184.00000000 41265364.00000000 104182672.00000000 35678.11328125  3050488.25000000 2415274.00000000 
0.06300    64300500.00000000 40352456.00000000 101873288.00000000 34765.10156250  2977215.50000000 2357378.25000000 
0.06400    62880052.00000000 39465000.00000000 99628064.00000000 33880.63671875  2906170.75000000 2301219.50000000 
0.06500    61501152.00000000 38603348.00000000 97447888.00000000 33025.07421875  2837300.50000000 2246780.00000000 
0.06600    60163736.00000000 37767496.00000000 95332984.00000000 32196.97656250  2770589.00000000 2194032.25000000 
0.06700    58866640.00000000 36957088.00000000 93282352.00000000 31396.32617188  2706013.00000000 2142985.25000000 
0.06800    57610572.00000000 36172424.00000000 91296968.00000000 30622.79882812  2643523.25000000 2093600.75000000 
0.06900    56395440.00000000 35412892.00000000 89377272.00000000 29875.14062500  2583099.75000000 2045856.25000000 
0.07000    55220536.00000000 34679400.00000000 87519232.00000000 29153.03320312  2524738.50000000 1999714.25000000 
0.07100    54085268.00000000 33970628.00000000 85725928.00000000 28455.75976562  2468348.50000000 1955137.25000000 
0.07200    52989868.00000000 33286768.00000000 83993976.00000000 27782.43554688  2413893.00000000 1912106.87500000 
0.07300    51933172.00000000 32627374.00000000 82324480.00000000 27132.53320312  2361360.00000000 1870580.50000000 
0.07400    50914292.00000000 31991528.00000000 80714600.00000000 26505.04101562  2310637.50000000 1830517.50000000 
0.07500    49933012.00000000 31379242.00000000 79164840.00000000 25899.24218750  2261730.50000000 1791874.25000000 
0.07600    48988264.00000000 30790436.00000000 77672768.00000000 25313.85546875  2214545.00000000 1754593.62500000 
0.07700    48079256.00000000 30224024.00000000 76237000.00000000 24748.77148438  2169028.50000000 1718639.62500000 
0.07800    47204928.00000000 29679584.00000000 74857808.00000000 24202.78906250  2125132.50000000 1683973.00000000 
0.07900    46364500.00000000 29156836.00000000 73531584.00000000 23674.85156250  2082777.87500000 1650545.62500000 
0.08000    45557756.00000000 28654656.00000000 72258064.00000000 23164.47460938  2041939.62500000 1618292.37500000 
0.08100    44782284.00000000 28172826.00000000 71035984.00000000 22670.77343750  2002520.00000000 1587189.62500000 
0.08200    44037504.00000000 27710676.00000000 69862320.00000000 22192.61523438  1964481.12500000 1557149.37500000 
0.08300    43322520.00000000 27267238.00000000 68736264.00000000 21729.59765625  1927731.37500000 1528171.12500000 
0.08400    42636352.00000000 26842148.00000000 67655448.00000000 21280.69335938  1892237.50000000 1500163.25000000 
0.08500    41977724.00000000 26434570.00000000 66619328.00000000 20845.19726562  1857914.37500000 1473109.12500000 
0.08600    41345296.00000000 26043772.00000000 65625296.00000000 20422.71093750  1824723.62500000 1446936.75000000 
0.08700    40738596.00000000 25669112.00000000 64671220.00000000 20011.83593750  1792586.37500000 1421607.50000000 
0.08800    40155588.00000000 25309912.00000000 63755516.00000000 19612.15039062  1761452.37500000 1397078.12500000 
0.08900    39595928.00000000 24965352.00000000 62876880.00000000 19223.42382812  1731269.00000000 1373299.37500000 
0.09000    39057520.00000000 24634498.00000000 62033416.00000000 18844.25195312  1701965.62500000 1350219.37500000 
0.09100    38540544.00000000 24317094.00000000 61222248.00000000 18474.65429688  1673500.50000000 1327800.37500000 
0.09200    38042860.00000000 24012058.00000000 60443392.00000000 18113.90820312  1645810.75000000 1306001.50000000 
0.09300    37562904.00000000 23719036.00000000 59693652.00000000 17761.26757812  1618854.50000000 1284779.00000000 
0.09400    37101384.00000000 23436898.00000000 58970696.00000000 17416.35156250  1592564.00000000 1264101.50000000 
0.09500    36655608.00000000 23165384.00000000 58274940.00000000 17078.78906250  1566919.50000000 1243914.62500000 
0.09600    36225128.00000000 22903440.00000000 57602912.00000000 16748.16015625  1541866.37500000 1224195.75000000 
0.09700    35808296.00000000 22650596.00000000 56953960.00000000 16423.94726562  1517355.25000000 1204916.37500000 
0.09800    35405388.00000000 22406234.00000000 56325608.00000000 16105.66015625  1493336.25000000 1186019.87500000 
0.09900    35014704.00000000 22169686.00000000 55717020.00000000 15793.15136719  1469789.00000000 1167506.75000000 
0.10000    34634756.00000000 21940330.00000000 55126424.00000000 15486.00488281  1446678.12500000 1149322.50000000 
0.10100    34265536.00000000 21717398.00000000 54552424.00000000 15183.93164062  1423957.25000000 1131442.12500000 
0.10200    33905324.00000000 21500954.00000000 53993096.00000000 14886.80664062  1401600.37500000 1113866.75000000 
0.10300    33553830.00000000 21289346.00000000 53447820.00000000 14594.23925781  1379575.12500000 1096546.50000000 
0.10400    33210256.00000000 21083164.00000000 52914828.00000000 14306.04785156  1357872.25000000 1079455.87500000 
0.10500    32873656.00000000 20881152.00000000 52393256.00000000 14022.25292969  1336454.50000000 1062600.62500000 
0.10600    32543278.00000000 20683278.00000000 51881180.00000000 13742.45410156  1315267.87500000 1045930.87500000 
0.10700    32218442.00000000 20488816.00000000 51377848.00000000 13466.60156250  1294347.37500000 1029460.50000000 
0.10800    31898682.00000000 20297236.00000000 50883028.00000000 13194.60546875  1273648.62500000 1013168.12500000 
0.10900    31583216.00000000 20108420.00000000 50394204.00000000 12926.43066406  1253150.25000000 997025.25000000 
0.11000    31271362.00000000 19921982.00000000 49911600.00000000 12661.79394531  1232834.87500000 981025.68750000 
0.11100    30962662.00000000 19737346.00000000 49433396.00000000 12400.92968750  1212724.25000000 965170.87500000 
0.11200    30656672.00000000 19554270.00000000 48959632.00000000 12143.55566406  1192767.87500000 949438.00000000 
0.11300    30352936.00000000 19372212.00000000 48489592.00000000 11889.69726562  1172971.37500000 933819.00000000 
0.11400    30051022.00000000 19191570.00000000 48021324.00000000 11639.41992188  1153325.00000000 918323.75000000 
0.11500    29750254.00000000 19011136.00000000 47555288.00000000 11392.61523438  1133834.00000000 902936.18750000 
0.11600    29450582.00000000 18831162.00000000 47090976.00000000 11149.26660156  1114482.62500000 887654.81250000 
0.11700    29151750.00000000 18651692.00000000 46626764.00000000 10909.46972656  1095260.12500000 872475.81250000 
0.11800    28853194.00000000 18472112.00000000 46163388.00000000 10673.12402344  1076184.12500000 857398.00000000 
0.11900    28554716.00000000 18292540.00000000 45699632.00000000 10440.28417969  1057235.62500000 842409.93750000 
0.12000    28256204.00000000 18112452.00000000 45235716.00000000 10210.90722656  1038416.87500000 827520.93750000 
0.12100    27957622.00000000 17931948.00000000 44770900.00000000 9985.18066406   1019747.87500000 812742.00000000 
0.12200    27658218.00000000 17750886.00000000 44305244.00000000 9762.95117188   1001216.93750000 798065.06250000 
0.12300    27358608.00000000 17569130.00000000 43838216.00000000 9544.39843750   982808.81250000 783486.62500000 
0.12400    27058024.00000000 17386642.00000000 43369532.00000000 9329.23144531   964554.37500000 769017.87500000 
0.12500    26757036.00000000 17203376.00000000 42899036.00000000 9117.78027344   946444.18750000 754646.12500000 
0.12600    26454868.00000000 17019274.00000000 42427168.00000000 8909.98437500   928488.50000000 740394.75000000 
0.12700    26152054.00000000 16834036.00000000 41953280.00000000 8705.66796875   910679.50000000 726259.50000000 
0.12800    25848410.00000000 16648140.00000000 41477668.00000000 8505.11230469   893033.68750000 712241.87500000 
0.12900    25543836.00000000 16461227.00000000 41000368.00000000 8308.07421875   875544.62500000 698341.87500000 
0.13000    25238412.00000000 16273347.00000000 40521440.00000000 8114.74755859   858226.62500000 684580.43750000 
0.13100    24932114.00000000 16084772.00000000 40040236.00000000 7925.05078125   841085.43750000 670937.25000000 
0.13200    24625268.00000000 15895247.00000000 39557596.00000000 7738.98046875   824115.43750000 657439.62500000 
0.13300    24317742.00000000 15704913.00000000 39073536.00000000 7556.50390625   807335.75000000 644077.62500000 
0.13400    24009560.00000000 15513784.00000000 38587928.00000000 7377.60253906   790739.62500000 630854.87500000 
0.13500    23700898.00000000 15322063.00000000 38101168.00000000 7202.25292969   774339.18750000 617788.93750000 
0.13600    23391708.00000000 15129645.00000000 37613440.00000000 7030.45507812   758138.12500000 604871.75000000 
0.13700    23082442.00000000 14936657.00000000 37124656.00000000 6862.24169922   742132.00000000 592109.37500000 
0.13800    22773006.00000000 14743325.00000000 36635240.00000000 6697.40234375   726339.25000000 579503.25000000 
0.13900    22463548.00000000 14549431.00000000 36145600.00000000 6536.06884766   710751.25000000 567071.12500000 
0.14000    22154246.00000000 14355386.00000000 35655200.00000000 6378.14599609   695386.43750000 554797.43750000 
0.14100    21845280.00000000 14161165.00000000 35165020.00000000 6223.59863281   680239.06250000 542702.87500000 
0.14200    21536688.00000000 13966896.00000000 34675360.00000000 6072.42529297   665311.56250000 530776.81250000 
0.14300    21228906.00000000 13772556.00000000 34185892.00000000 5924.41699219   650611.50000000 519025.46875000 
0.14400    20921528.00000000 13578301.00000000 33697252.00000000 5779.70898438   636134.43750000 507454.96875000 
0.14500    20615156.00000000 13384327.00000000 33209850.00000000 5638.20800781   621893.62500000 496060.09375000 
0.14600    20309744.00000000 13190660.00000000 32723476.00000000 5499.80322266   607880.18750000 484851.59375000 
0.14700    20005720.00000000 12997508.00000000 32238622.00000000 5364.48632812   594102.50000000 473829.37500000 
0.14800    19703108.00000000 12804947.00000000 31755550.00000000 5232.23095703   580557.31250000 462985.12500000 
0.14900    19401638.00000000 12612797.00000000 31274668.00000000 5102.83984375   567251.06250000 452332.09375000 
0.15000    19102056.00000000 12421616.00000000 30795568.00000000 4976.48046875   554182.50000000 441865.06250000 
0.15100    18804254.00000000 12231187.00000000 30319484.00000000 4853.01660156   541343.18750000 431582.62500000 
0.15200    18508376.00000000 12041758.00000000 29845782.00000000 4732.35986328   528753.75000000 421493.25000000 
0.15300    18214468.00000000 11853376.00000000 29375522.00000000 4614.42578125   516392.87500000 411588.81250000 
0.15400    17922842.00000000 11666105.00000000 28907934.00000000 4499.22607422   504267.71875000 401871.25000000 
0.15500    17633484.00000000 11480046.00000000 28444094.00000000 4386.72656250   492381.65625000 392342.40625000 
0.15600    17346558.00000000 11295463.00000000 27983846.00000000 4276.75878906   480727.15625000 383000.03125000 
0.15700    17062226.00000000 11112211.00000000 27527304.00000000 4169.55615234   469307.78125000 373842.15625000 
0.15800    16780478.00000000 10930500.00000000 27074696.00000000 4064.73437500   458119.65625000 364866.28125000 
0.15900    16501762.00000000 10750341.00000000 26626430.00000000 3962.47192383   447160.06250000 356077.84375000 
0.16000    16225715.00000000 10571811.00000000 26182570.00000000 3862.65087891   436431.21875000 347467.15625000 
0.16100    15952717.00000000 10395064.00000000 25743288.00000000 3765.28637695   425926.21875000 339041.03125000 
0.16200    15682726.00000000 10220064.00000000 25308540.00000000 3670.29345703   415644.12500000 330789.59375000 
0.16300    15415731.00000000 10046988.00000000 24878658.00000000 3577.59814453   405585.25000000 322719.18750000 
0.16400    15152156.00000000 9875744.00000000 24453864.00000000 3487.24780273   395744.81250000 314817.31250000 
0.16500    14891688.00000000 9706551.00000000 24034020.00000000 3399.14770508   386120.03125000 307093.28125000 
0.16600    14634609.00000000 9539390.00000000 23619500.00000000 3313.30200195   376708.84375000 299534.43750000 
0.16700    14380914.00000000 9374230.00000000 23210066.00000000 3229.66162109   367504.68750000 292141.31250000 
0.16800    14130603.00000000 9211137.00000000 22806192.00000000 3148.18066406   358504.81250000 284917.96875000 
0.16900    13883806.00000000 9050308.00000000 22407764.00000000 3068.89135742   349711.53125000 277857.09375000 
0.17000    13640614.00000000 8891515.00000000 22014694.00000000 2991.69946289   341116.87500000 270951.81250000 
