# SAXS profile: number of points = 501, q_min = 0, q_max = 0.5, delta_q = 0.001
#    q    intensity 
0.00000    162236192.00000000 101201880.00000000 256270928.00000000 95096.96875000  7855803.00000000 6204495.00000000 
0.00100    162196288.00000000 101175448.00000000 256204592.00000000 95068.86718750  7853629.50000000 6202793.50000000 
0.00200    162072992.00000000 101097824.00000000 256006384.00000000 94986.20312500  7847160.00000000 6197671.00000000 
0.00300    161864992.00000000 100966808.00000000 255676032.00000000 94847.81250000  7836356.50000000 6189158.50000000 
0.00400    161571024.00000000 100783816.00000000 255213328.00000000 94655.09375000  7821273.00000000 6177260.00000000 
0.00500    161192192.00000000 100549800.00000000 254618512.00000000 94407.69531250  7801880.00000000 6161983.00000000 
0.00600    160733376.00000000 100263384.00000000 253892528.00000000 94106.24218750  7778349.00000000 6143378.00000000 
0.00700    160191744.00000000 99927672.00000000 253042352.00000000 93751.59375000  7750589.00000000 6121497.50000000 
0.00800    159567952.00000000 99541592.00000000 252063408.00000000 93344.88281250  7718705.50000000 6096349.00000000 
0.00900    158869312.00000000 99106816.00000000 250959648.00000000 92884.94531250  7682761.00000000 6068018.00000000 
0.01000    158091712.00000000 98622952.00000000 249732640.00000000 92375.50781250  7642841.00000000 6036501.50000000 
0.01100    157239600.00000000 98092112.00000000 248384800.00000000 91816.42968750  7598992.00000000 6001952.00000000 
0.01200    156310032.00000000 97514200.00000000 246919248.00000000 91207.38281250  7551328.50000000 5964363.50000000 
0.01300    155305888.00000000 96890872.00000000 245338416.00000000 90551.96093750  7499900.00000000 5923759.50000000 
0.01400    154232208.00000000 96222256.00000000 243642608.00000000 89849.99218750  7444855.50000000 5880363.00000000 
0.01500    153088208.00000000 95511792.00000000 241840112.00000000 89102.97656250  7386247.50000000 5834125.00000000 
0.01600    151877920.00000000 94758352.00000000 239929312.00000000 88313.50000000  7324277.00000000 5785230.50000000 
0.01700    150601296.00000000 93964848.00000000 237917648.00000000 87481.22656250  7258910.50000000 5733702.50000000 
0.01800    149262240.00000000 93131200.00000000 235804720.00000000 86609.78906250  7190445.00000000 5679641.00000000 
0.01900    147863232.00000000 92261000.00000000 233596848.00000000 85698.96875000  7118851.00000000 5623213.00000000 
0.02000    146404800.00000000 91354640.00000000 231298400.00000000 84751.92187500  7044355.00000000 5564458.00000000 
0.02100    144891648.00000000 90413280.00000000 228911760.00000000 83770.47656250  6967100.00000000 5503471.00000000 
0.02200    143325776.00000000 89438976.00000000 226442480.00000000 82755.31250000  6887131.50000000 5440426.00000000 
0.02300    141709808.00000000 88433984.00000000 223892576.00000000 81709.14843750  6804678.50000000 5375389.00000000 
0.02400    140044912.00000000 87398600.00000000 221265584.00000000 80634.05468750  6719882.00000000 5308435.00000000 
0.02500    138337504.00000000 86336024.00000000 218572272.00000000 79530.78906250  6632832.50000000 5239788.00000000 
0.02600    136587600.00000000 85247472.00000000 215811056.00000000 78402.62500000  6543758.50000000 5169511.00000000 
0.02700    134797840.00000000 84134448.00000000 212989792.00000000 77251.45312500  6452705.00000000 5097687.00000000 
0.02800    132973776.00000000 82998472.00000000 210109920.00000000 76078.53906250  6359988.00000000 5024514.00000000 
0.02900    131116032.00000000 81842200.00000000 207179008.00000000 74886.71875000  6265652.50000000 4950033.50000000 
0.03000    129227464.00000000 80667664.00000000 204200368.00000000 73677.67968750  6169780.00000000 4874446.00000000 
0.03100    127313016.00000000 79476232.00000000 201179536.00000000 72452.10937500  6072699.00000000 4797815.00000000 
0.03200    125373752.00000000 78269984.00000000 198119984.00000000 71214.96093750  5974478.00000000 4720321.50000000 
0.03300    123414048.00000000 77049696.00000000 195028400.00000000 69965.57812500  5875212.00000000 4642047.50000000 
0.03400    121436448.00000000 75818416.00000000 191907728.00000000 68707.31250000  5775209.00000000 4563086.50000000 
0.03500    119443352.00000000 74578152.00000000 188761744.00000000 67441.71093750  5674490.50000000 4483583.00000000 
0.03600    117437952.00000000 73330064.00000000 185597728.00000000 66170.78906250  5573241.00000000 4403697.00000000 
0.03700    115424368.00000000 72076600.00000000 182420640.00000000 64896.23046875  5471647.00000000 4323510.00000000 
0.03800    113402464.00000000 70818896.00000000 179230656.00000000 63619.94140625  5369753.50000000 4243128.50000000 
0.03900    111377440.00000000 69558360.00000000 176035280.00000000 62344.23437500  5267838.00000000 4162673.00000000 
0.04000    109352136.00000000 68296392.00000000 172838400.00000000 61069.67968750  5165915.00000000 4082237.75000000 
0.04100    107328760.00000000 67036904.00000000 169644544.00000000 59799.12890625  5064228.00000000 4001981.25000000 
0.04200    105308848.00000000 65779240.00000000 166457904.00000000 58533.40234375  4962807.50000000 3921930.75000000 
0.04300    103296336.00000000 64526176.00000000 163281312.00000000 57274.89843750  4861882.00000000 3842241.25000000 
0.04400    101292920.00000000 63278968.00000000 160120896.00000000 56024.20703125  4761467.00000000 3763015.00000000 
0.04500    99301696.00000000 62038752.00000000 156977936.00000000 54783.81250000  4661773.50000000 3684314.75000000 
0.04600    97325208.00000000 60807624.00000000 153858448.00000000 53554.19531250  4562858.50000000 3606235.75000000 
0.04700    95364288.00000000 59586264.00000000 150762880.00000000 52337.16015625  4464821.50000000 3528861.00000000 
0.04800    93421696.00000000 58376416.00000000 147695696.00000000 51134.00781250  4367869.00000000 3452296.25000000 
0.04900    91499904.00000000 57179684.00000000 144661616.00000000 49945.44531250  4271979.00000000 3376615.50000000 
0.05000    89600544.00000000 55996476.00000000 141663184.00000000 48773.02343750  4177289.25000000 3301847.75000000 
0.05100    87725000.00000000 54828672.00000000 138703376.00000000 47617.40234375  4083882.00000000 3228107.75000000 
0.05200    85874560.00000000 53676528.00000000 135783600.00000000 46479.58984375  3991800.25000000 3155436.75000000 
0.05300    84052744.00000000 52541828.00000000 132908672.00000000 45360.77734375  3901211.00000000 3083914.50000000 
0.05400    82259224.00000000 51424688.00000000 130077856.00000000 44261.58203125  3812106.50000000 3013559.50000000 
0.05500    80496096.00000000 50326916.00000000 127294944.00000000 43182.40234375  3724566.50000000 2944447.75000000 
0.05600    78764904.00000000 49249052.00000000 124562648.00000000 42124.48046875  3638655.25000000 2876632.75000000 
0.05700    77066536.00000000 48190924.00000000 121881720.00000000 41087.45703125  3554416.25000000 2810130.25000000 
0.05800    75402096.00000000 47154648.00000000 119255208.00000000 40072.43750000  3471886.25000000 2744985.75000000 
0.05900    73772232.00000000 46140060.00000000 116683232.00000000 39079.77343750  3391159.00000000 2681239.25000000 
0.06000    72178144.00000000 45147044.00000000 114167584.00000000 38110.14843750  3312167.25000000 2618887.75000000 
0.06100    70620432.00000000 44177292.00000000 111708648.00000000 37162.73046875  3235045.75000000 2557997.25000000 
0.06200    69100104.00000000 43230676.00000000 109309568.00000000 36238.77734375  3159757.00000000 2498559.25000000 
0.06300    67616872.00000000 42307548.00000000 106968848.00000000 35337.60546875  3086307.75000000 2440593.00000000 
0.06400    66171696.00000000 41408072.00000000 104688256.00000000 34459.94531250  3014739.50000000 2384087.75000000 
0.06500    64764424.00000000 40532412.00000000 102467616.00000000 33605.46875000  2945080.75000000 2329097.00000000 
0.06600    63395504.00000000 39680512.00000000 100308328.00000000 32774.45703125  2877245.00000000 2275586.50000000 
0.06700    62065404.00000000 38853124.00000000 98209864.00000000 31965.95507812  2811305.75000000 2223544.50000000 
0.06800    60773744.00000000 38049376.00000000 96171984.00000000 31180.34570312  2747242.25000000 2172976.50000000 
0.06900    59519696.00000000 37269704.00000000 94195024.00000000 30417.41210938  2685015.50000000 2123884.00000000 
0.07000    58305008.00000000 36514536.00000000 92278736.00000000 29676.96289062  2624648.50000000 2076245.37500000 
0.07100    57127408.00000000 35782620.00000000 90422712.00000000 28957.89062500  2566085.50000000 2030037.50000000 
0.07200    55987816.00000000 35074152.00000000 88625136.00000000 28260.81054688  2509326.00000000 1985252.50000000 
0.07300    54885440.00000000 34389244.00000000 86887568.00000000 27584.94921875  2454304.00000000 1941869.50000000 
0.07400    53819568.00000000 33727484.00000000 85207352.00000000 26929.64453125  2401057.00000000 1899841.75000000 
0.07500    52789608.00000000 33088122.00000000 83585152.00000000 26294.57226562  2349464.25000000 1859174.62500000 
0.07600    51795268.00000000 32471214.00000000 82018304.00000000 25679.17968750  2299532.75000000 1819788.75000000 
0.07700    50835948.00000000 31875912.00000000 80506880.00000000 25083.17773438  2251264.75000000 1781731.50000000 
0.07800    49910132.00000000 31302504.00000000 79049464.00000000 24505.64453125  2204540.00000000 1744897.75000000 
0.07900    49017992.00000000 30749186.00000000 77644224.00000000 23946.30078125  2159341.00000000 1709271.50000000 
0.08000    48157872.00000000 30216836.00000000 76290456.00000000 23404.39648438  2115638.25000000 1674843.87500000 
0.08100    47329472.00000000 29703914.00000000 74986480.00000000 22879.35937500  2073401.87500000 1641553.37500000 
0.08200    46531164.00000000 29210456.00000000 73731824.00000000 22370.47070312  2032530.50000000 1609351.50000000 
0.08300    45762884.00000000 28735616.00000000 72523272.00000000 21877.33007812  1993018.37500000 1578215.87500000 
0.08400    45022756.00000000 28278462.00000000 71360840.00000000 21399.39843750  1954776.25000000 1548105.62500000 
0.08500    44310640.00000000 27838928.00000000 70240848.00000000 20935.47265625  1917752.50000000 1518977.50000000 
0.08600    43625056.00000000 27415934.00000000 69163920.00000000 20485.68945312  1881970.75000000 1490780.12500000 
0.08700    42964688.00000000 27008924.00000000 68127120.00000000 20048.68164062  1847280.87500000 1463505.12500000 
0.08800    42328600.00000000 26617348.00000000 67128696.00000000 19624.48437500  1813679.87500000 1437067.62500000 
0.08900    41715692.00000000 26240420.00000000 66167536.00000000 19212.17187500  1781117.37500000 1411451.87500000 
0.09000    41125084.00000000 25877664.00000000 65241360.00000000 18811.03710938  1749541.25000000 1386606.50000000 
0.09100    40555544.00000000 25528238.00000000 64348684.00000000 18421.07031250  1718881.37500000 1362492.50000000 
0.09200    40006064.00000000 25191312.00000000 63488192.00000000 18040.78125000  1689099.12500000 1339078.75000000 
0.09300    39475616.00000000 24866376.00000000 62657856.00000000 17670.63085938  1660146.62500000 1316321.00000000 
0.09400    38963184.00000000 24552700.00000000 61855328.00000000 17309.52929688  1631967.50000000 1294180.25000000 
0.09500    38467624.00000000 24249778.00000000 61079724.00000000 16957.16210938  1604525.75000000 1272613.87500000 
0.09600    37987272.00000000 23956524.00000000 60329580.00000000 16612.72460938  1577778.87500000 1251591.75000000 
0.09700    37522320.00000000 23672746.00000000 59602860.00000000 16276.14453125  1551676.75000000 1231079.12500000 
0.09800    37070476.00000000 23397502.00000000 58897972.00000000 15946.74218750  1526158.12500000 1211045.75000000 
0.09900    36632292.00000000 23130646.00000000 58213536.00000000 15624.33496094  1501222.37500000 1191457.62500000 
0.10000    36205644.00000000 22871178.00000000 57547776.00000000 15308.13964844  1476786.62500000 1172268.62500000 
0.10100    35789812.00000000 22618404.00000000 56899408.00000000 14998.18847656  1452852.50000000 1153460.87500000 
0.10200    35384292.00000000 22372126.00000000 56267092.00000000 14693.98046875  1429355.50000000 1135008.50000000 
0.10300    34988224.00000000 22131588.00000000 55649072.00000000 14395.17089844  1406273.62500000 1116873.00000000 
0.10400    34599960.00000000 21896298.00000000 55044536.00000000 14101.45703125  1383575.37500000 1099047.12500000 
0.10500    34219804.00000000 21665878.00000000 54452676.00000000 13812.64062500  1361230.62500000 1081493.37500000 
0.10600    33846444.00000000 21439574.00000000 53870892.00000000 13528.37792969  1339205.62500000 1064187.50000000 
0.10700    33479224.00000000 21217214.00000000 53299188.00000000 13248.46191406  1317487.25000000 1047127.12500000 
0.10800    33117508.00000000 20998352.00000000 52736064.00000000 12972.73925781  1296039.75000000 1030272.93750000 
0.10900    32760854.00000000 20782440.00000000 52180772.00000000 12701.00488281  1274843.87500000 1013617.68750000 
0.11000    32408174.00000000 20569108.00000000 51632108.00000000 12433.03515625  1253891.37500000 997139.43750000 
0.11100    32059616.00000000 20357942.00000000 51089156.00000000 12168.90820312  1233148.25000000 980821.81250000 
0.11200    31714106.00000000 20148732.00000000 50551368.00000000 11908.17968750  1212603.75000000 964663.93750000 
0.11300    31371142.00000000 19941202.00000000 50017652.00000000 11651.02636719  1192258.37500000 948640.56250000 
0.11400    31030962.00000000 19734846.00000000 49487548.00000000 11397.40429688  1172065.25000000 932747.68750000 
0.11500    30692306.00000000 19529752.00000000 48959960.00000000 11146.99218750  1152048.37500000 916978.25000000 
0.11600    30355476.00000000 19325314.00000000 48435268.00000000 10899.81933594  1132175.12500000 901328.81250000 
0.11700    30019960.00000000 19121550.00000000 47912016.00000000 10655.90332031  1112467.75000000 885787.25000000 
0.11800    29684998.00000000 18918272.00000000 47389940.00000000 10415.30175781  1092875.00000000 870335.31250000 
0.11900    29350992.00000000 18715266.00000000 46868792.00000000 10177.90234375  1073431.37500000 854995.37500000 
0.12000    29017660.00000000 18512272.00000000 46348204.00000000 9943.65722656   1054111.87500000 839748.31250000 
0.12100    28684498.00000000 18309346.00000000 45827880.00000000 9712.74023438   1034929.43750000 824599.25000000 
0.12200    28351492.00000000 18106110.00000000 45307444.00000000 9485.00878906   1015868.12500000 809540.62500000 
0.12300    28018510.00000000 17902678.00000000 44786600.00000000 9260.64160156   996951.31250000 794579.75000000 
0.12400    27685364.00000000 17699168.00000000 44265540.00000000 9039.49804688   978156.81250000 779710.18750000 
0.12500    27352314.00000000 17494914.00000000 43743628.00000000 8821.69824219   959496.18750000 764942.93750000 
0.12600    27018986.00000000 17290662.00000000 43221660.00000000 8607.43945312   940983.25000000 750280.37500000 
0.12700    26685416.00000000 17086098.00000000 42698804.00000000 8396.53710938   922593.06250000 735714.31250000 
0.12800    26351596.00000000 16880898.00000000 42175432.00000000 8189.11376953   904361.37500000 721255.62500000 
0.12900    26017994.00000000 16675399.00000000 41651288.00000000 7985.26513672   886276.62500000 706911.56250000 
0.13000    25683974.00000000 16469562.00000000 41126788.00000000 7784.95703125   868344.68750000 692680.87500000 
0.13100    25350020.00000000 16263421.00000000 40601720.00000000 7588.30371094   850575.25000000 678567.31250000 
0.13200    25016068.00000000 16057054.00000000 40076408.00000000 7395.36035156   832970.37500000 664577.62500000 
0.13300    24682422.00000000 15850426.00000000 39550900.00000000 7206.11816406   815549.87500000 650724.12500000 
0.13400    24348922.00000000 15643605.00000000 39025284.00000000 7020.67431641   798301.31250000 637001.12500000 
0.13500    24015756.00000000 15436802.00000000 38500356.00000000 6838.97656250   781241.68750000 623417.87500000 
0.13600    23683098.00000000 15229941.00000000 37975528.00000000 6661.11328125   764376.68750000 609986.00000000 
0.13700    23351138.00000000 15023168.00000000 37451440.00000000 6487.13378906   747714.68750000 596708.06250000 
0.13800    23019904.00000000 14816760.00000000 36928108.00000000 6317.02392578   731253.87500000 583581.75000000 
0.13900    22689760.00000000 14610470.00000000 36406064.00000000 6150.78125000   715016.50000000 570624.31250000 
0.14000    22360550.00000000 14404627.00000000 35884960.00000000 5988.50439453   698991.12500000 557829.62500000 
0.14100    22032792.00000000 14199245.00000000 35366016.00000000 5830.07958984   683192.93750000 545209.00000000 
0.14200    21706350.00000000 13994495.00000000 34848948.00000000 5675.51953125   667629.87500000 532765.81250000 
0.14300    21381426.00000000 13790464.00000000 34333888.00000000 5524.89941406   652294.25000000 520501.84375000 
0.14400    21058190.00000000 13587171.00000000 33820812.00000000 5378.11328125   637197.50000000 508424.84375000 
0.14500    20737144.00000000 13384872.00000000 33310796.00000000 5235.19775391   622355.25000000 496537.37500000 
0.14600    20417844.00000000 13183535.00000000 32803824.00000000 5096.08935547   607757.81250000 484844.90625000 
0.14700    20100818.00000000 12983363.00000000 32299878.00000000 4960.78369141   593407.68750000 473350.37500000 
0.14800    19786226.00000000 12784359.00000000 31799310.00000000 4829.18359375   579316.25000000 462048.56250000 
0.14900    19474072.00000000 12586726.00000000 31302326.00000000 4701.28808594   565478.93750000 450948.81250000 
0.15000    19164632.00000000 12390392.00000000 30809234.00000000 4577.00683594   551899.68750000 440049.34375000 
0.15100    18857796.00000000 12195747.00000000 30320154.00000000 4456.30126953   538584.56250000 429360.21875000 
0.15200    18553954.00000000 12002576.00000000 29835520.00000000 4339.09277344   525530.43750000 418875.31250000 
0.15300    18253136.00000000 11811066.00000000 29355352.00000000 4225.33251953   512735.56250000 408594.06250000 
0.15400    17955270.00000000 11621369.00000000 28879724.00000000 4114.93945312   500204.62500000 398517.78125000 
0.15500    17660680.00000000 11433468.00000000 28408984.00000000 4007.80639648   487930.15625000 388649.40625000 
0.15600    17369374.00000000 11247393.00000000 27943482.00000000 3903.88574219   475917.28125000 378985.03125000 
0.15700    17081536.00000000 11063351.00000000 27482898.00000000 3803.04858398   464163.31250000 369527.43750000 
0.15800    16797284.00000000 10881235.00000000 27027478.00000000 3705.24731445   452662.12500000 360269.87500000 
0.15900    16516247.00000000 10701225.00000000 26577740.00000000 3610.35620117   441416.68750000 351215.40625000 
0.16000    16238843.00000000 10523290.00000000 26133322.00000000 3518.31347656   430415.43750000 342358.62500000 
0.16100    15965162.00000000 10347670.00000000 25694700.00000000 3429.00415039   419670.37500000 333705.43750000 
0.16200    15695151.00000000 10174072.00000000 25261508.00000000 3342.38305664   409163.46875000 325243.06250000 
0.16300    15428730.00000000 10002840.00000000 24834220.00000000 3258.24194336   398899.03125000 316970.71875000 
0.16400    15166059.00000000 9833697.00000000 24412648.00000000 3176.61645508   388868.21875000 308890.09375000 
0.16500    14907176.00000000 9666801.00000000 23996782.00000000 3097.34619141   379068.84375000 300995.18750000 
0.16600    14651938.00000000 9502268.00000000 23586922.00000000 3020.34252930   369496.75000000 293283.00000000 
0.16700    14400434.00000000 9340012.00000000 23182902.00000000 2945.46777344   360143.65625000 285747.21875000 
0.16800    14152696.00000000 9180005.00000000 22784666.00000000 2872.70629883   351008.09375000 278386.75000000 
0.16900    13908638.00000000 9022398.00000000 22392440.00000000 2801.96875000   342086.25000000 271198.93750000 
0.17000    13668270.00000000 8866910.00000000 22005826.00000000 2733.12329102   333370.09375000 264179.96875000 
