# SAXS profile: number of points = 501, q_min = 0, q_max = 0.5, delta_q = 0.001
#    q    intensity 
0.00000    162233984.00000000 101201976.00000000 256269616.00000000 106078.98437500 8297030.50000000 6552972.00000000 
0.00100    162193328.00000000 101174144.00000000 256200912.00000000 106043.03125000 8294482.50000000 6550940.00000000 
0.00200    162065024.00000000 101092968.00000000 255995488.00000000 105935.41406250 8286839.00000000 6544946.50000000 
0.00300    161849600.00000000 100956824.00000000 255648400.00000000 105756.23437500 8274098.50000000 6534927.50000000 
0.00400    161539712.00000000 100767160.00000000 255165856.00000000 105505.51562500 8256301.00000000 6520914.00000000 
0.00500    161144720.00000000 100523008.00000000 254544832.00000000 105185.45312500 8233494.00000000 6502997.50000000 
0.00600    160664048.00000000 100225696.00000000 253790064.00000000 104794.75000000 8205724.00000000 6481146.00000000 
0.00700    160093344.00000000 99876032.00000000 252902112.00000000 104336.45312500 8173092.50000000 6455419.00000000 
0.00800    159443200.00000000 99476080.00000000 251881344.00000000 103810.16406250 8135607.00000000 6425934.00000000 
0.00900    158712480.00000000 99024864.00000000 250731920.00000000 103216.78906250 8093386.50000000 6392712.50000000 
0.01000    157901728.00000000 98522464.00000000 249454720.00000000 102559.40625000 8046498.50000000 6355795.00000000 
0.01100    157011120.00000000 97970920.00000000 248049520.00000000 101838.64843750 7995079.50000000 6315337.00000000 
0.01200    156038592.00000000 97371648.00000000 246525296.00000000 101056.60156250 7939215.50000000 6271367.00000000 
0.01300    154991968.00000000 96724304.00000000 244880464.00000000 100213.96875000 7879052.50000000 6224001.00000000 
0.01400    153872960.00000000 96032280.00000000 243119920.00000000 99313.89062500  7814714.00000000 6173388.00000000 
0.01500    152681968.00000000 95296840.00000000 241247968.00000000 98357.61718750  7746311.00000000 6119541.00000000 
0.01600    151420640.00000000 94517832.00000000 239265440.00000000 97349.29687500  7674037.50000000 6062650.00000000 
0.01700    150094032.00000000 93696936.00000000 237178064.00000000 96289.10937500  7598048.00000000 6002768.50000000 
0.01800    148703152.00000000 92836672.00000000 234990464.00000000 95179.26562500  7518429.00000000 5940109.50000000 
0.01900    147249584.00000000 91938360.00000000 232704720.00000000 94023.93750000  7435394.50000000 5874774.50000000 
0.02000    145736640.00000000 91002912.00000000 230325616.00000000 92825.49218750  7349202.50000000 5806847.00000000 
0.02100    144169216.00000000 90033464.00000000 227860384.00000000 91585.85156250  7259918.50000000 5736547.50000000 
0.02200    142548960.00000000 89030656.00000000 225309472.00000000 90307.82031250  7167693.50000000 5663967.50000000 
0.02300    140877120.00000000 87995808.00000000 222679872.00000000 88993.94531250  7072845.50000000 5589212.50000000 
0.02400    139159616.00000000 86932904.00000000 219977344.00000000 87646.96875000  6975445.00000000 5512507.00000000 
0.02500    137397360.00000000 85841984.00000000 217204384.00000000 86271.48437500  6875758.00000000 5434012.50000000 
0.02600    135594432.00000000 84725592.00000000 214366768.00000000 84867.82031250  6773939.00000000 5353789.00000000 
0.02700    133753960.00000000 83586120.00000000 211470240.00000000 83439.96875000  6670176.00000000 5272094.50000000 
0.02800    131878048.00000000 82424696.00000000 208517472.00000000 81991.35156250  6564696.50000000 5188978.00000000 
0.02900    129972032.00000000 81243784.00000000 205517392.00000000 80523.87500000  6457688.00000000 5104688.50000000 
0.03000    128037024.00000000 80044920.00000000 202471856.00000000 79040.80468750  6349308.00000000 5019300.50000000 
0.03100    126078600.00000000 78829688.00000000 199387024.00000000 77544.64062500  6239830.00000000 4933012.50000000 
0.03200    124097416.00000000 77602152.00000000 196267424.00000000 76038.56250000  6129362.50000000 4845955.50000000 
0.03300    122098184.00000000 76363016.00000000 193118640.00000000 74525.35156250  6018135.00000000 4758316.50000000 
0.03400    120083496.00000000 75114216.00000000 189946160.00000000 73007.39062500  5906351.50000000 4670212.50000000 
0.03500    118057072.00000000 73857832.00000000 186752288.00000000 71487.04687500  5794181.50000000 4581787.50000000 
0.03600    116020888.00000000 72594056.00000000 183545088.00000000 69967.41406250  5681753.00000000 4493153.50000000 
0.03700    113978232.00000000 71326352.00000000 180327648.00000000 68450.39062500  5569289.00000000 4404481.00000000 
0.03800    111933360.00000000 70055768.00000000 177105648.00000000 66938.71875000  5456990.50000000 4315959.00000000 
0.03900    109888056.00000000 68785728.00000000 173879888.00000000 65435.19140625  5344992.00000000 4227599.50000000 
0.04000    107845024.00000000 67517104.00000000 170661376.00000000 63940.15625000  5233385.00000000 4139606.50000000 
0.04100    105807392.00000000 66250976.00000000 167448768.00000000 62457.66796875  5122465.50000000 4052091.75000000 
0.04200    103778792.00000000 64990056.00000000 164250320.00000000 60989.18750000  5012252.00000000 3965175.50000000 
0.04300    101759912.00000000 63734896.00000000 161066816.00000000 59535.91015625  4902933.00000000 3878932.75000000 
0.04400    99753744.00000000 62487788.00000000 157902688.00000000 58100.82421875  4794673.00000000 3793543.75000000 
0.04500    97763064.00000000 61249572.00000000 154761904.00000000 56684.46484375  4687566.50000000 3709041.25000000 
0.04600    95790544.00000000 60022328.00000000 151649424.00000000 55288.81250000  4581780.50000000 3625542.75000000 
0.04700    93837520.00000000 58806744.00000000 148567856.00000000 53915.65625000  4477342.00000000 3543136.50000000 
0.04800    91906000.00000000 57605004.00000000 145519488.00000000 52565.70312500  4374443.00000000 3461906.50000000 
0.04900    89998768.00000000 56416968.00000000 142511920.00000000 51240.44531250  4273112.50000000 3381920.50000000 
0.05000    88116496.00000000 55245016.00000000 139540128.00000000 49941.06640625  4173480.00000000 3303272.00000000 
0.05100    86262336.00000000 54089904.00000000 136612976.00000000 48667.89453125  4075616.75000000 3225998.50000000 
0.05200    84436624.00000000 52952124.00000000 133731216.00000000 47422.64453125  3979589.75000000 3150154.50000000 
0.05300    82640928.00000000 51833192.00000000 130895440.00000000 46205.50390625  3885435.50000000 3075843.00000000 
0.05400    80877208.00000000 50733160.00000000 128111280.00000000 45017.21484375  3793271.25000000 3003040.00000000 
0.05500    79146576.00000000 49653928.00000000 125376920.00000000 43858.60937500  3703144.75000000 2931863.75000000 
0.05600    77449296.00000000 48595616.00000000 122696216.00000000 42728.99218750  3615054.75000000 2862266.25000000 
0.05700    75787368.00000000 47558680.00000000 120070816.00000000 41629.93750000  3529060.25000000 2794333.00000000 
0.05800    74160968.00000000 46544144.00000000 117501400.00000000 40560.87890625  3445204.25000000 2728073.25000000 
0.05900    72570816.00000000 45551720.00000000 114989480.00000000 39521.73437500  3363472.25000000 2663502.50000000 
0.06000    71018432.00000000 44582448.00000000 112535824.00000000 38512.84765625  3283903.25000000 2600634.75000000 
0.06100    69503144.00000000 43636784.00000000 110141536.00000000 37533.88671875  3206492.00000000 2539458.75000000 
0.06200    68025872.00000000 42714232.00000000 107806928.00000000 36585.13671875  3131233.75000000 2480008.50000000 
0.06300    66586776.00000000 41815896.00000000 105533088.00000000 35665.40625000  3058171.75000000 2422238.50000000 
0.06400    65186628.00000000 40940684.00000000 103318776.00000000 34774.95312500  2987211.75000000 2366167.25000000 
0.06500    63824272.00000000 40090208.00000000 101165968.00000000 33913.45312500  2918393.25000000 2311790.25000000 
0.06600    62500892.00000000 39262944.00000000 99073960.00000000 33080.23828125  2851680.25000000 2259063.75000000 
0.06700    61215264.00000000 38460236.00000000 97042232.00000000 32274.07421875  2787067.50000000 2207985.75000000 
0.06800    59968016.00000000 37681084.00000000 95070400.00000000 31495.06445312  2724459.50000000 2158505.75000000 
0.06900    58758564.00000000 36925344.00000000 93158832.00000000 30742.81640625  2663908.50000000 2110634.00000000 
0.07000    57586764.00000000 36193372.00000000 91305896.00000000 30015.49414062  2605293.75000000 2064324.75000000 
0.07100    56451212.00000000 35484680.00000000 89512688.00000000 29313.67578125  2548629.75000000 2019508.25000000 
0.07200    55352936.00000000 34798584.00000000 87775040.00000000 28635.61718750  2493851.25000000 1976198.87500000 
0.07300    54290072.00000000 34134832.00000000 86095896.00000000 27980.88671875  2440866.25000000 1934336.00000000 
0.07400    53262412.00000000 33493734.00000000 84472080.00000000 27348.33203125  2389683.75000000 1893868.75000000 
0.07500    52269096.00000000 32873796.00000000 82902440.00000000 26737.53125000  2340214.50000000 1854790.37500000 
0.07600    51309620.00000000 32275300.00000000 81386136.00000000 26147.23828125  2292433.50000000 1817011.62500000 
0.07700    50382400.00000000 31697274.00000000 79921872.00000000 25576.77148438  2246217.25000000 1780498.62500000 
0.07800    49487488.00000000 31139366.00000000 78509336.00000000 25025.06640625  2201569.75000000 1745209.62500000 
0.07900    48623656.00000000 30601060.00000000 77145376.00000000 24491.49804688  2158404.75000000 1711098.62500000 
0.08000    47789996.00000000 30081762.00000000 75828792.00000000 23975.03125000  2116668.00000000 1678132.87500000 
0.08100    46985180.00000000 29580878.00000000 74559032.00000000 23474.82226562  2076258.75000000 1646231.37500000 
0.08200    46208532.00000000 29097878.00000000 73333920.00000000 22989.87500000  2037174.37500000 1615371.37500000 
0.08300    45458944.00000000 28632008.00000000 72152264.00000000 22519.64062500  1999339.50000000 1585485.37500000 
0.08400    44735240.00000000 28182832.00000000 71011824.00000000 22063.08398438  1962672.62500000 1556524.75000000 
0.08500    44036776.00000000 27749436.00000000 69911800.00000000 21619.50585938  1927120.25000000 1528459.00000000 
0.08600    43362480.00000000 27331280.00000000 68848800.00000000 21188.17382812  1892645.00000000 1501234.00000000 
0.08700    42711080.00000000 26927858.00000000 67824024.00000000 20768.15234375  1859144.25000000 1474805.62500000 
0.08800    42080876.00000000 26538192.00000000 66832628.00000000 20358.94531250  1826595.62500000 1449107.87500000 
0.08900    41472488.00000000 26161974.00000000 65875176.00000000 19959.59765625  1794931.25000000 1424134.12500000 
0.09000    40883276.00000000 25798288.00000000 64949380.00000000 19569.88281250  1764101.00000000 1399806.87500000 
0.09100    40313384.00000000 25446600.00000000 64053420.00000000 19188.93164062  1734064.25000000 1376104.50000000 
0.09200    39760880.00000000 25106132.00000000 63185924.00000000 18816.11328125  1704721.87500000 1352993.62500000 
0.09300    39225104.00000000 24776642.00000000 62346000.00000000 18451.14843750  1676111.00000000 1330416.12500000 
0.09400    38705692.00000000 24457154.00000000 61530228.00000000 18093.28515625  1648110.00000000 1308328.25000000 
0.09500    38200872.00000000 24147214.00000000 60738744.00000000 17741.94335938  1620706.87500000 1286723.37500000 
0.09600    37709732.00000000 23846100.00000000 59969504.00000000 17397.15429688  1593860.87500000 1265553.50000000 
0.09700    37231756.00000000 23553528.00000000 59221372.00000000 17058.18750000  1567516.75000000 1244800.25000000 
0.09800    36766672.00000000 23268660.00000000 58492780.00000000 16724.60937500  1541666.37500000 1224410.37500000 
0.09900    36312236.00000000 22990930.00000000 57782280.00000000 16396.50000000  1516264.12500000 1204384.62500000 
0.10000    35868384.00000000 22720200.00000000 57088336.00000000 16073.06640625  1491260.25000000 1184668.37500000 
0.10100    35434288.00000000 22455520.00000000 56410416.00000000 15754.42578125  1466647.00000000 1165261.62500000 
0.10200    35010176.00000000 22196780.00000000 55746772.00000000 15440.12109375  1442384.75000000 1146136.62500000 
0.10300    34593376.00000000 21943246.00000000 55096492.00000000 15130.09765625  1418456.00000000 1127261.87500000 
0.10400    34184928.00000000 21694448.00000000 54458736.00000000 14824.17578125  1394837.50000000 1108639.00000000 
0.10500    33783440.00000000 21450232.00000000 53831892.00000000 14522.25292969  1371519.50000000 1090244.37500000 
0.10600    33388162.00000000 21210062.00000000 53215700.00000000 14223.97851562  1348453.37500000 1072043.37500000 
0.10700    32999130.00000000 20973550.00000000 52608424.00000000 13929.62890625  1325640.12500000 1054049.62500000 
0.10800    32615232.00000000 20740346.00000000 52009980.00000000 13638.73144531  1303085.12500000 1036251.50000000 
0.10900    32236216.00000000 20510438.00000000 51418976.00000000 13351.60058594  1280745.00000000 1018607.50000000 
0.11000    31861912.00000000 20283046.00000000 50835244.00000000 13068.04492188  1258624.37500000 1001150.62500000 
0.11100    31491530.00000000 20057982.00000000 50257560.00000000 12787.98242188  1236724.50000000 983847.81250000 
0.11200    31124922.00000000 19835376.00000000 49685628.00000000 12511.59082031  1215029.75000000 966705.68750000 
0.11300    30761408.00000000 19614678.00000000 49118884.00000000 12238.57617188  1193516.50000000 949703.50000000 
0.11400    30401166.00000000 19395568.00000000 48556380.00000000 11969.45019531  1172212.25000000 932859.43750000 
0.11500    30043442.00000000 19178120.00000000 47998272.00000000 11703.74121094  1151101.62500000 916155.37500000 
0.11600    29688290.00000000 18961930.00000000 47443604.00000000 11441.85644531  1130159.87500000 899590.93750000 
0.11700    29335264.00000000 18746912.00000000 46892572.00000000 11183.64160156  1109422.00000000 883183.75000000 
0.11800    28984268.00000000 18533172.00000000 46343848.00000000 10929.17968750  1088868.00000000 866914.43750000 
0.11900    28635210.00000000 18320206.00000000 45797940.00000000 10678.57519531  1068509.00000000 850783.75000000 
0.12000    28287544.00000000 18107900.00000000 45254532.00000000 10431.87011719  1048336.37500000 834802.87500000 
0.12100    27941682.00000000 17896494.00000000 44713752.00000000 10189.12500000  1028373.68750000 818974.81250000 
0.12200    27597220.00000000 17685602.00000000 44174492.00000000 9950.25195312   1008596.25000000 803297.75000000 
0.12300    27254262.00000000 17475410.00000000 43636640.00000000 9715.54003906   989026.31250000 787772.31250000 
0.12400    26912388.00000000 17265930.00000000 43101128.00000000 9484.83007812   969661.56250000 772403.43750000 
0.12500    26571960.00000000 17056400.00000000 42566908.00000000 9258.30859375   950503.37500000 757196.68750000 
0.12600    26232584.00000000 16847860.00000000 42034464.00000000 9035.99414062   931567.12500000 742155.62500000 
0.12700    25894560.00000000 16639612.00000000 41503636.00000000 8817.77636719   912847.37500000 727283.06250000 
0.12800    25557748.00000000 16431674.00000000 40973716.00000000 8603.81250000   894352.68750000 712581.87500000 
0.12900    25222288.00000000 16224420.00000000 40446120.00000000 8394.15917969   876081.25000000 698052.93750000 
0.13000    24887674.00000000 16017331.00000000 39919992.00000000 8188.76757812   858048.06250000 683706.68750000 
0.13100    24554668.00000000 15811020.00000000 39395400.00000000 7987.56005859   840250.37500000 669542.87500000 
0.13200    24223226.00000000 15605063.00000000 38872148.00000000 7790.62841797   822689.18750000 655564.00000000 
0.13300    23892892.00000000 15399701.00000000 38351084.00000000 7597.93847656   805379.00000000 641770.93750000 
0.13400    23563918.00000000 15194922.00000000 37832136.00000000 7409.43359375   788309.50000000 628172.43750000 
0.13500    23236576.00000000 14990695.00000000 37314776.00000000 7225.19873047   771491.56250000 614774.12500000 
0.13600    22910910.00000000 14787294.00000000 36799700.00000000 7045.10791016   754931.68750000 601564.87500000 
0.13700    22586774.00000000 14584557.00000000 36286768.00000000 6869.08349609   738617.37500000 588560.43750000 
0.13800    22264192.00000000 14382476.00000000 35776612.00000000 6697.20507812   722570.50000000 575756.75000000 
0.13900    21944038.00000000 14181370.00000000 35268320.00000000 6529.31298828   706775.18750000 563155.00000000 
0.14000    21625208.00000000 13980980.00000000 34763304.00000000 6365.39550781   691242.50000000 550756.93750000 
0.14100    21308452.00000000 13781827.00000000 34260668.00000000 6205.38525391   675973.62500000 538566.25000000 
0.14200    20993968.00000000 13583489.00000000 33760920.00000000 6049.19873047   660954.18750000 526577.12500000 
0.14300    20681474.00000000 13386325.00000000 33264552.00000000 5896.72998047   646210.12500000 514792.75000000 
0.14400    20371162.00000000 13190051.00000000 32770880.00000000 5747.94677734   631710.56250000 503212.84375000 
0.14500    20063334.00000000 12995195.00000000 32280916.00000000 5602.75830078   617477.43750000 491839.31250000 
0.14600    19757510.00000000 12801502.00000000 31794320.00000000 5461.16308594   603503.75000000 480666.18750000 
0.14700    19454508.00000000 12609124.00000000 31311368.00000000 5322.93847656   589783.12500000 469697.62500000 
0.14800    19153870.00000000 12418059.00000000 30831940.00000000 5188.10400391   576308.93750000 458930.43750000 
0.14900    18855816.00000000 12228520.00000000 30356452.00000000 5056.46435547   563092.87500000 448359.93750000 
0.15000    18560300.00000000 12040262.00000000 29884948.00000000 4927.98339844   550121.62500000 437986.71875000 
0.15100    18267412.00000000 11853567.00000000 29417290.00000000 4802.60253906   537395.43750000 427808.87500000 
0.15200    17977674.00000000 11668503.00000000 28954104.00000000 4680.24023438   524913.56250000 417825.65625000 
0.15300    17690572.00000000 11484974.00000000 28495088.00000000 4560.77929688   512665.93750000 408031.25000000 
0.15400    17406342.00000000 11302993.00000000 28040210.00000000 4444.07177734   500654.18750000 398418.56250000 
0.15500    17124812.00000000 11122861.00000000 27589972.00000000 4330.20458984   488878.00000000 388997.46875000 
0.15600    16846498.00000000 10944301.00000000 27144038.00000000 4218.90332031   477321.50000000 379750.62500000 
0.15700    16571222.00000000 10767694.00000000 26703038.00000000 4110.21484375   465993.81250000 370690.87500000 
0.15800    16298699.00000000 10592667.00000000 26266264.00000000 4004.04931641   454878.00000000 361797.09375000 
0.15900    16029429.00000000 10419581.00000000 25834524.00000000 3900.33227539   443984.93750000 353080.15625000 
0.16000    15763024.00000000 10248249.00000000 25407382.00000000 3798.97045898   433294.96875000 344531.37500000 
0.16100    15499927.00000000 10078923.00000000 24985246.00000000 3699.96752930   422820.65625000 336151.21875000 
0.16200    15239901.00000000 9911300.00000000 24567666.00000000 3603.16455078   412538.93750000 327925.62500000 
0.16300    14982914.00000000 9745864.00000000 24155340.00000000 3508.61718750   402458.06250000 319866.62500000 
0.16400    14729224.00000000 9582034.00000000 23747772.00000000 3416.18676758   392575.93750000 311958.59375000 
0.16500    14478499.00000000 9420381.00000000 23345028.00000000 3325.84692383   382881.28125000 304202.21875000 
0.16600    14231071.00000000 9260579.00000000 22947532.00000000 3237.60498047   373373.96875000 296599.34375000 
0.16700    13986767.00000000 9102873.00000000 22555036.00000000 3151.36669922   364046.12500000 289138.00000000 
0.16800    13745607.00000000 8947069.00000000 22167336.00000000 3067.11938477   354899.06250000 281822.21875000 
0.16900    13507737.00000000 8793146.00000000 21784768.00000000 2984.86132812   345929.28125000 274646.78125000 
0.17000    13272964.00000000 8641347.00000000 21407386.00000000 2904.51464844   337132.43750000 267608.06250000 
