# SAXS profile: number of points = 501, q_min = 0, q_max = 0.5, delta_q = 0.001
#    q    intensity 
0.00000    162238240.00000000 101201416.00000000 256272032.00000000 99304.25781250  8027683.50000000 6340249.00000000 
0.00100    162215968.00000000 101187424.00000000 256235696.00000000 99286.31250000  8026417.00000000 6339234.00000000 
0.00200    162147392.00000000 101144864.00000000 256127808.00000000 99232.93750000  8022519.50000000 6336194.00000000 
0.00300    162032032.00000000 101074240.00000000 255947024.00000000 99144.07812500  8016070.50000000 6331137.50000000 
0.00400    161871712.00000000 100975416.00000000 255693632.00000000 99019.70312500  8006997.00000000 6324028.50000000 
0.00500    161664000.00000000 100848032.00000000 255369376.00000000 98859.71093750  7995382.50000000 6314914.50000000 
0.00600    161411296.00000000 100692472.00000000 254972256.00000000 98664.80468750  7981207.50000000 6303767.50000000 
0.00700    161112112.00000000 100509296.00000000 254504512.00000000 98434.98437500  7964471.00000000 6290661.00000000 
0.00800    160767696.00000000 100297808.00000000 253965008.00000000 98170.23437500  7945191.00000000 6275561.50000000 
0.00900    160378816.00000000 100059136.00000000 253356064.00000000 97871.32031250  7923450.50000000 6258446.00000000 
0.01000    159944864.00000000 99792992.00000000 252676608.00000000 97537.75781250  7899171.50000000 6239445.00000000 
0.01100    159466480.00000000 99500384.00000000 251929248.00000000 97170.73437500  7872402.00000000 6218434.00000000 
0.01200    158944768.00000000 99180200.00000000 251112096.00000000 96770.16406250  7843200.00000000 6195550.50000000 
0.01300    158379456.00000000 98833128.00000000 250226080.00000000 96336.47656250  7811601.50000000 6170751.50000000 
0.01400    157772144.00000000 98460208.00000000 249273280.00000000 95870.21875000  7777606.00000000 6144072.50000000 
0.01500    157122336.00000000 98061048.00000000 248253936.00000000 95371.21093750  7741233.00000000 6115538.00000000 
0.01600    156429968.00000000 97635928.00000000 247168672.00000000 94841.21875000  7702522.50000000 6085169.50000000 
0.01700    155696304.00000000 97185000.00000000 246018864.00000000 94279.64843750  7661526.50000000 6052996.00000000 
0.01800    154921168.00000000 96709568.00000000 244804704.00000000 93687.97656250  7618275.00000000 6019070.00000000 
0.01900    154106624.00000000 96209144.00000000 243528496.00000000 93065.46093750  7572807.00000000 5983417.00000000 
0.02000    153251840.00000000 95684584.00000000 242189232.00000000 92413.71093750  7525153.00000000 5946025.00000000 
0.02100    152359328.00000000 95136360.00000000 240790128.00000000 91733.37500000  7475362.00000000 5906948.00000000 
0.02200    151429664.00000000 94564904.00000000 239330896.00000000 91024.99218750  7423494.50000000 5866242.50000000 
0.02300    150460464.00000000 93970408.00000000 237812528.00000000 90288.78906250  7369581.50000000 5823954.50000000 
0.02400    149455984.00000000 93353312.00000000 236238352.00000000 89525.96875000  7313641.00000000 5780042.00000000 
0.02500    148416096.00000000 92714368.00000000 234607488.00000000 88737.02343750  7255791.50000000 5734642.50000000 
0.02600    147339872.00000000 92053280.00000000 232922128.00000000 87922.95312500  7196005.00000000 5687739.00000000 
0.02700    146231840.00000000 91372200.00000000 231184032.00000000 87084.43750000  7134413.00000000 5639383.50000000 
0.02800    145089952.00000000 90669960.00000000 229393104.00000000 86221.80468750  7071009.00000000 5589604.50000000 
0.02900    143915504.00000000 89948888.00000000 227551456.00000000 85336.80468750  7005865.00000000 5538490.00000000 
0.03000    142709552.00000000 89207912.00000000 225661472.00000000 84429.17968750  6939041.50000000 5486048.00000000 
0.03100    141474528.00000000 88447944.00000000 223723600.00000000 83500.94531250  6870607.50000000 5432279.00000000 
0.03200    140208880.00000000 87670616.00000000 221739552.00000000 82551.76562500  6800615.50000000 5377341.50000000 
0.03300    138915760.00000000 86875480.00000000 219711200.00000000 81583.00000000  6729092.00000000 5321185.00000000 
0.03400    137594688.00000000 86063008.00000000 217639328.00000000 80595.88281250  6656148.50000000 5263892.50000000 
0.03500    136246976.00000000 85234568.00000000 215526464.00000000 79591.21093750  6581768.50000000 5205513.50000000 
0.03600    134875072.00000000 84390688.00000000 213374080.00000000 78569.85156250  6506107.00000000 5146087.50000000 
0.03700    133478344.00000000 83531632.00000000 211182976.00000000 77532.24218750  6429173.50000000 5085672.00000000 
0.03800    132058624.00000000 82658128.00000000 208956256.00000000 76479.47656250  6351037.50000000 5024330.50000000 
0.03900    130616880.00000000 81770856.00000000 206693664.00000000 75412.67187500  6271805.50000000 4962061.50000000 
0.04000    129153448.00000000 80870976.00000000 204397968.00000000 74332.65625000  6191469.00000000 4898956.00000000 
0.04100    127670744.00000000 79957984.00000000 202071024.00000000 73241.00781250  6110116.50000000 4835080.00000000 
0.04200    126169192.00000000 79033896.00000000 199715712.00000000 72137.70312500  6027836.00000000 4770420.00000000 
0.04300    124649704.00000000 78098480.00000000 197330912.00000000 71024.29687500  5944687.00000000 4705120.50000000 
0.04400    123113568.00000000 77152520.00000000 194920032.00000000 69901.14843750  5860732.00000000 4639129.50000000 
0.04500    121562864.00000000 76197456.00000000 192484368.00000000 68770.06250000  5776033.50000000 4572550.50000000 
0.04600    119996080.00000000 75232664.00000000 190026368.00000000 67631.15625000  5690656.50000000 4505453.50000000 
0.04700    118417048.00000000 74259704.00000000 187547152.00000000 66485.57812500  5604663.00000000 4437861.00000000 
0.04800    116825208.00000000 73278648.00000000 185048496.00000000 65334.51171875  5518113.50000000 4369829.50000000 
0.04900    115222832.00000000 72291296.00000000 182532016.00000000 64178.64062500  5431084.00000000 4301399.00000000 
0.05000    113610352.00000000 71297224.00000000 180000368.00000000 63019.03906250  5343637.50000000 4232630.50000000 
0.05100    111989176.00000000 70297464.00000000 177453600.00000000 61856.60546875  5255807.00000000 4163597.25000000 
0.05200    110359752.00000000 69293344.00000000 174895312.00000000 60692.27343750  5167709.50000000 4094301.25000000 
0.05300    108723840.00000000 68284824.00000000 172325920.00000000 59526.64843750  5079386.00000000 4024839.75000000 
0.05400    107082344.00000000 67271976.00000000 169747472.00000000 58360.63671875  4990901.50000000 3955244.50000000 
0.05500    105436656.00000000 66256128.00000000 167160512.00000000 57195.69921875  4902292.50000000 3885521.00000000 
0.05600    103787048.00000000 65238188.00000000 164568624.00000000 56031.88281250  4813647.50000000 3815775.00000000 
0.05700    102135064.00000000 64218660.00000000 161973152.00000000 54870.53906250  4725017.50000000 3746041.00000000 
0.05800    100481952.00000000 63197668.00000000 159374640.00000000 53712.03906250  4636443.50000000 3676340.25000000 
0.05900    98828320.00000000 62176704.00000000 156775488.00000000 52557.69140625  4548034.00000000 3606735.25000000 
0.06000    97175144.00000000 61155696.00000000 154177232.00000000 51408.27734375  4459779.00000000 3537276.00000000 
0.06100    95524136.00000000 60135228.00000000 151580688.00000000 50263.92578125  4371800.50000000 3468014.00000000 
0.06200    93875176.00000000 59116472.00000000 148989472.00000000 49126.27734375  4284116.50000000 3398954.25000000 
0.06300    92230576.00000000 58099740.00000000 146402384.00000000 47995.35546875  4196808.00000000 3330186.25000000 
0.06400    90589688.00000000 57085292.00000000 143822272.00000000 46872.06250000  4109873.00000000 3261716.50000000 
0.06500    88955056.00000000 56074132.00000000 141250736.00000000 45757.08984375  4023402.50000000 3193607.25000000 
0.06600    87326368.00000000 55066688.00000000 138688240.00000000 44651.40625000  3937458.75000000 3125895.50000000 
0.06700    85705416.00000000 54063472.00000000 136137168.00000000 43555.14453125  3852054.75000000 3058591.00000000 
0.06800    84092568.00000000 53064936.00000000 133599312.00000000 42469.56640625  3767268.50000000 2991768.00000000 
0.06900    82488672.00000000 52071760.00000000 131075008.00000000 41394.81640625  3683137.75000000 2925452.25000000 
0.07000    80894448.00000000 51084572.00000000 128565568.00000000 40331.36328125  3599694.00000000 2859659.00000000 
0.07100    79311008.00000000 50103468.00000000 126072728.00000000 39280.01171875  3516994.25000000 2794451.00000000 
0.07200    77738480.00000000 49129184.00000000 123597552.00000000 38241.25390625  3435078.50000000 2729840.00000000 
0.07300    76179168.00000000 48162096.00000000 121140704.00000000 37215.72265625  3353979.75000000 2665873.25000000 
0.07400    74632240.00000000 47202904.00000000 118704136.00000000 36203.85937500  3273739.00000000 2602574.50000000 
0.07500    73099024.00000000 46251964.00000000 116289264.00000000 35205.80859375  3194391.00000000 2539968.75000000 
0.07600    71580288.00000000 45309084.00000000 113895944.00000000 34222.14062500  3115992.75000000 2478066.50000000 
0.07700    70076088.00000000 44375592.00000000 111526112.00000000 33253.74218750  3038562.75000000 2416940.00000000 
0.07800    68587808.00000000 43451364.00000000 109179968.00000000 32300.31445312  2962117.00000000 2356575.50000000 
0.07900    67115488.00000000 42536772.00000000 106858952.00000000 31362.72656250  2886694.50000000 2297019.50000000 
0.08000    65660624.00000000 41632504.00000000 104564280.00000000 30440.88085938  2812329.75000000 2238270.50000000 
0.08100    64222552.00000000 40738720.00000000 102296848.00000000 29535.39453125  2739067.75000000 2180387.25000000 
0.08200    62802668.00000000 39855672.00000000 100056936.00000000 28646.32226562  2666880.25000000 2123343.25000000 
0.08300    61401052.00000000 38983620.00000000 97845408.00000000 27774.18164062  2595851.50000000 2067189.62500000 
0.08400    60018308.00000000 38122744.00000000 95663608.00000000 26918.90820312  2525961.00000000 2011933.50000000 
0.08500    58654816.00000000 37273812.00000000 93511568.00000000 26080.94726562  2457252.00000000 1957597.00000000 
0.08600    57311004.00000000 36436932.00000000 91390576.00000000 25260.32226562  2389739.25000000 1904187.25000000 
0.08700    55987404.00000000 35612092.00000000 89300304.00000000 24457.33984375  2323427.25000000 1851723.75000000 
0.08800    54684324.00000000 34799568.00000000 87241992.00000000 23672.01562500  2258334.75000000 1800209.00000000 
0.08900    53401908.00000000 33999588.00000000 85216016.00000000 22904.51953125  2194495.50000000 1749664.50000000 
0.09000    52140612.00000000 33212710.00000000 83223640.00000000 22154.84960938  2131903.50000000 1700096.50000000 
0.09100    50900564.00000000 32438412.00000000 81263712.00000000 21423.10156250  2070557.75000000 1651504.50000000 
0.09200    49682316.00000000 31677418.00000000 79337792.00000000 20709.44335938  2010482.00000000 1603915.37500000 
0.09300    48485996.00000000 30929962.00000000 77446328.00000000 20013.77539062  1951699.00000000 1557315.37500000 
0.09400    47311852.00000000 30195576.00000000 75588768.00000000 19335.99609375  1894180.37500000 1511724.12500000 
0.09500    46159372.00000000 29474874.00000000 73765952.00000000 18676.22460938  1837944.37500000 1467126.87500000 
0.09600    45029760.00000000 28767830.00000000 71978176.00000000 18034.37695312  1783001.25000000 1423551.37500000 
0.09700    43922432.00000000 28074500.00000000 70225768.00000000 17410.38671875  1729353.50000000 1380973.12500000 
0.09800    42837896.00000000 27394932.00000000 68508616.00000000 16804.19921875  1676989.12500000 1339407.00000000 
0.09900    41775996.00000000 26729108.00000000 66826864.00000000 16215.75097656  1625919.75000000 1298853.37500000 
0.10000    40736632.00000000 26077386.00000000 65181000.00000000 15644.65136719  1576119.87500000 1259304.37500000 
0.10100    39720256.00000000 25439424.00000000 63569416.00000000 15091.02636719  1527605.50000000 1220751.62500000 
0.10200    38726536.00000000 24815360.00000000 61994232.00000000 14554.63183594  1480358.50000000 1183201.25000000 
0.10300    37755320.00000000 24205174.00000000 60454516.00000000 14035.27343750  1434386.25000000 1146639.25000000 
0.10400    36807240.00000000 23609000.00000000 58950704.00000000 13532.92968750  1389666.87500000 1111064.50000000 
0.10500    35881564.00000000 23026502.00000000 57481936.00000000 13047.09472656  1346200.87500000 1076479.62500000 
0.10600    34978084.00000000 22457920.00000000 56048588.00000000 12577.68945312  1303972.37500000 1042858.31250000 
0.10700    34097296.00000000 21903082.00000000 54650072.00000000 12124.55957031  1262964.62500000 1010200.25000000 
0.10800    33238982.00000000 21361858.00000000 53286880.00000000 11687.44238281  1223168.62500000 978495.93750000 
0.10900    32402686.00000000 20834338.00000000 51957956.00000000 11265.99023438  1184587.00000000 947729.43750000 
0.11000    31588386.00000000 20320190.00000000 50663576.00000000 10859.90527344  1147177.62500000 917902.56250000 
0.11100    30795680.00000000 19819564.00000000 49403588.00000000 10469.04101562  1110939.00000000 888993.68750000 
0.11200    30024612.00000000 19332152.00000000 48177436.00000000 10093.05175781  1075855.87500000 860990.12500000 
0.11300    29275030.00000000 18857872.00000000 46984724.00000000 9731.56152344   1041908.37500000 833880.31250000 
0.11400    28546464.00000000 18396664.00000000 45825068.00000000 9384.36914062   1009081.00000000 807657.56250000 
0.11500    27838816.00000000 17948272.00000000 44698448.00000000 9051.11132812   977348.00000000 782294.68750000 
0.11600    27151780.00000000 17512526.00000000 43604052.00000000 8731.40429688   946704.56250000 757782.75000000 
0.11700    26485252.00000000 17089510.00000000 42541728.00000000 8425.08886719   917112.87500000 734109.37500000 
0.11800    25838412.00000000 16678777.00000000 41510668.00000000 8131.58007812   888559.12500000 711252.87500000 
0.11900    25211568.00000000 16280331.00000000 40510696.00000000 7850.80175781   861023.93750000 689198.18750000 
0.12000    24603976.00000000 15893724.00000000 39541488.00000000 7582.16210938   834485.25000000 667929.75000000 
0.12100    24015722.00000000 15518978.00000000 38602364.00000000 7325.54101562   808922.62500000 647432.87500000 
0.12200    23446056.00000000 15155933.00000000 37692548.00000000 7080.48437500   784310.81250000 627683.25000000 
0.12300    22894740.00000000 14804269.00000000 36811656.00000000 6846.61132812   760622.75000000 608670.43750000 
0.12400    22361416.00000000 14463788.00000000 35959184.00000000 6623.56884766   737847.18750000 590369.62500000 
0.12500    21845822.00000000 14134330.00000000 35134860.00000000 6410.99658203   715944.06250000 572769.06250000 
0.12600    21347564.00000000 13815525.00000000 34337792.00000000 6208.68652344   694907.87500000 555850.56250000 
0.12700    20866232.00000000 13507288.00000000 33567156.00000000 6016.08447266   674699.68750000 539585.00000000 
0.12800    20401438.00000000 13209342.00000000 32822596.00000000 5832.90283203   655303.68750000 523963.75000000 
0.12900    19952844.00000000 12921554.00000000 32103698.00000000 5658.88330078   636694.31250000 508968.84375000 
0.13000    19519972.00000000 12643502.00000000 31409726.00000000 5493.56738281   618843.25000000 494576.78125000 
0.13100    19102414.00000000 12375002.00000000 30739746.00000000 5336.61376953   601726.06250000 480763.62500000 
0.13200    18699768.00000000 12115769.00000000 30093598.00000000 5187.70361328   585323.00000000 467521.00000000 
0.13300    18311814.00000000 11865845.00000000 29470610.00000000 5046.51562500   569612.18750000 454827.81250000 
0.13400    17937916.00000000 11624621.00000000 28869830.00000000 4912.67626953   554563.56250000 442660.00000000 
0.13500    17577612.00000000 11391974.00000000 28290596.00000000 4785.88476562   540153.62500000 431001.28125000 
0.13600    17230746.00000000 11167747.00000000 27732612.00000000 4665.76123047   526364.68750000 419834.06250000 
0.13700    16896670.00000000 10951605.00000000 27195080.00000000 4552.05664062   513164.71875000 409139.59375000 
0.13800    16575089.00000000 10743297.00000000 26677236.00000000 4444.41503906   500533.09375000 398899.46875000 
0.13900    16265658.00000000 10542589.00000000 26178658.00000000 4342.49804688   488449.34375000 389096.78125000 
0.14000    15967759.00000000 10349275.00000000 25698564.00000000 4246.06738281   476889.00000000 379712.12500000 
0.14100    15681301.00000000 10162908.00000000 25236466.00000000 4154.82714844   465829.50000000 370726.96875000 
0.14200    15405632.00000000 9983593.00000000 24791434.00000000 4068.38256836   455246.56250000 362125.34375000 
0.14300    15140375.00000000 9810815.00000000 24363200.00000000 3986.52587891   445121.12500000 353888.18750000 
0.14400    14885055.00000000 9644357.00000000 23950908.00000000 3909.02124023   435430.28125000 346001.46875000 
0.14500    14639609.00000000 9484120.00000000 23553850.00000000 3835.53198242   426156.09375000 338446.87500000 
0.14600    14403258.00000000 9329733.00000000 23171932.00000000 3765.87622070   417273.15625000 331208.68750000 
0.14700    14175943.00000000 9181035.00000000 22804074.00000000 3699.70483398   408764.93750000 324273.06250000 
0.14800    13957036.00000000 9037715.00000000 22449692.00000000 3636.84741211   400604.62500000 317620.50000000 
0.14900    13746310.00000000 8899640.00000000 22108392.00000000 3576.98657227   392783.21875000 311235.81250000 
0.15000    13543289.00000000 8766507.00000000 21779360.00000000 3519.99536133   385275.12500000 305108.31250000 
0.15100    13347701.00000000 8638115.00000000 21462364.00000000 3465.61157227   378065.84375000 299222.84375000 
0.15200    13159278.00000000 8514237.00000000 21156772.00000000 3413.68603516   371134.93750000 293560.87500000 
0.15300    12977463.00000000 8394774.00000000 20861842.00000000 3363.91186523   364469.65625000 288114.53125000 
0.15400    12801928.00000000 8279301.00000000 20577004.00000000 3316.12744141   358044.09375000 282864.93750000 
0.15500    12632516.00000000 8167781.00000000 20302182.00000000 3270.19824219   351849.84375000 277806.71875000 
0.15600    12468818.00000000 8059914.50000000 20036268.00000000 3225.92114258   345866.18750000 272917.87500000 
0.15700    12310517.00000000 7955652.00000000 19779276.00000000 3183.18408203   340088.09375000 268199.18750000 
0.15800    12157255.00000000 7854632.50000000 19530240.00000000 3141.70849609   334487.87500000 263626.09375000 
0.15900    12008835.00000000 7756743.00000000 19289166.00000000 3101.47241211   329063.43750000 259194.78125000 
0.16000    11864788.00000000 7661792.50000000 19055104.00000000 3062.25415039   323789.46875000 254894.59375000 
0.16100    11725097.00000000 7569669.50000000 18828242.00000000 3024.00732422   318668.43750000 250714.79687500 
0.16200    11589285.00000000 7480142.00000000 18607618.00000000 2986.53320312   313674.15625000 246645.28125000 
0.16300    11457114.00000000 7393024.00000000 18393010.00000000 2949.73510742   308801.65625000 242675.62500000 
0.16400    11328471.00000000 7308211.00000000 18184008.00000000 2913.56323242   304041.62500000 238800.18750000 
0.16500    11202853.00000000 7225483.50000000 17980104.00000000 2877.82275391   299379.34375000 235008.67187500 
0.16600    11080302.00000000 7144772.50000000 17781182.00000000 2842.51586914   294805.03125000 231294.12500000 
0.16700    10960391.00000000 7065885.00000000 17586634.00000000 2807.48046875   290312.09375000 227646.03125000 
0.16800    10842857.00000000 6988625.00000000 17396108.00000000 2772.67382812   285890.59375000 224059.87500000 
0.16900    10727815.00000000 6913008.50000000 17209484.00000000 2738.06933594   281535.78125000 220532.25000000 
0.17000    10614745.00000000 6838795.50000000 17026412.00000000 2703.55883789   277233.84375000 217050.51562500 
