# SAXS profile: number of points = 501, q_min = 0, q_max = 0.5, delta_q = 0.001
#    q    intensity 
0.00000    162236784.00000000 101201520.00000000 256271728.00000000 109700.55468750 8437462.00000000 6663904.00000000 
0.00100    162211904.00000000 101185032.00000000 256229776.00000000 109676.93750000 8435887.00000000 6662611.50000000 
0.00200    162132672.00000000 101135432.00000000 256103504.00000000 109608.67187500 8431150.00000000 6658888.50000000 
0.00300    162000464.00000000 101053640.00000000 255895520.00000000 109493.98437500 8423193.00000000 6652679.50000000 
0.00400    161815104.00000000 100938280.00000000 255601488.00000000 109333.68750000 8412113.00000000 6643968.00000000 
0.00500    161575936.00000000 100791360.00000000 255226144.00000000 109127.59375000 8397924.00000000 6632781.00000000 
0.00600    161283568.00000000 100610328.00000000 254767248.00000000 108876.87500000 8380575.00000000 6619131.50000000 
0.00700    160938096.00000000 100397936.00000000 254225984.00000000 108580.17187500 8360127.00000000 6603054.00000000 
0.00800    160542224.00000000 100152368.00000000 253602768.00000000 108239.42187500 8336611.00000000 6584528.00000000 
0.00900    160093728.00000000 99875928.00000000 252898752.00000000 107854.75000000 8309999.00000000 6563621.00000000 
0.01000    159593024.00000000 99568080.00000000 252113488.00000000 107426.59375000 8280383.50000000 6540317.50000000 
0.01100    159041552.00000000 99228032.00000000 251249856.00000000 106955.08593750 8247758.00000000 6514634.00000000 
0.01200    158441360.00000000 98857536.00000000 250305824.00000000 106440.67187500 8212134.50000000 6486641.00000000 
0.01300    157792096.00000000 98455912.00000000 249283776.00000000 105884.15625000 8173628.00000000 6456341.00000000 
0.01400    157093168.00000000 98024832.00000000 248185616.00000000 105286.57031250 8132233.00000000 6423775.50000000 
0.01500    156346064.00000000 97563192.00000000 247011456.00000000 104647.85937500 8087996.50000000 6388975.50000000 
0.01600    155551872.00000000 97072288.00000000 245760704.00000000 103969.91406250 8040995.00000000 6351975.50000000 
0.01700    154709488.00000000 96552168.00000000 244438128.00000000 103252.71093750 7991236.50000000 6312829.50000000 
0.01800    153821808.00000000 96003944.00000000 243043904.00000000 102496.70312500 7938786.50000000 6271560.50000000 
0.01900    152888272.00000000 95427416.00000000 241576512.00000000 101703.89843750 7883699.50000000 6228225.00000000 
0.02000    151911504.00000000 94824032.00000000 240040368.00000000 100874.41406250 7826049.00000000 6182874.50000000 
0.02100    150891664.00000000 94193624.00000000 238436288.00000000 100009.54687500 7765873.50000000 6135527.00000000 
0.02200    149829424.00000000 93537360.00000000 236765568.00000000 99110.18750000  7703255.00000000 6086246.50000000 
0.02300    148724544.00000000 92854856.00000000 235030640.00000000 98177.24218750  7638268.50000000 6035114.50000000 
0.02400    147579584.00000000 92148256.00000000 233231280.00000000 97211.82031250  7570949.00000000 5982145.00000000 
0.02500    146396864.00000000 91416504.00000000 231370512.00000000 96216.20312500  7501420.50000000 5927421.50000000 
0.02600    145175632.00000000 90661552.00000000 229449216.00000000 95189.28125000  7429672.50000000 5871006.50000000 
0.02700    143915776.00000000 89884024.00000000 227470976.00000000 94133.70312500  7355868.50000000 5812910.00000000 
0.02800    142621584.00000000 89083968.00000000 225435232.00000000 93050.27343750  7280027.50000000 5753203.50000000 
0.02900    141293024.00000000 88263120.00000000 223345888.00000000 91940.76562500  7202241.50000000 5691981.50000000 
0.03000    139929776.00000000 87420480.00000000 221202304.00000000 90805.38281250  7122632.00000000 5629310.00000000 
0.03100    138535248.00000000 86558216.00000000 219009680.00000000 89645.93750000  7041180.00000000 5565205.00000000 
0.03200    137109712.00000000 85677248.00000000 216767888.00000000 88463.62500000  6958057.50000000 5499766.50000000 
0.03300    135654656.00000000 84777688.00000000 214479888.00000000 87259.85937500  6873283.00000000 5433048.50000000 
0.03400    134171328.00000000 83860776.00000000 212147408.00000000 86035.68750000  6787009.00000000 5365103.00000000 
0.03500    132661672.00000000 82926528.00000000 209772224.00000000 84792.49218750  6699249.00000000 5296049.50000000 
0.03600    131125280.00000000 81976784.00000000 207356528.00000000 83531.92187500  6610173.50000000 5225895.50000000 
0.03700    129564952.00000000 81011792.00000000 204902816.00000000 82255.25781250  6519739.50000000 5154736.50000000 
0.03800    127981760.00000000 80032736.00000000 202412608.00000000 80963.09375000  6428156.00000000 5082608.00000000 
0.03900    126377416.00000000 79040184.00000000 199888096.00000000 79656.58593750  6335464.00000000 5009621.00000000 
0.04000    124753016.00000000 78034880.00000000 197331552.00000000 78338.66406250  6241759.00000000 4935819.00000000 
0.04100    123109376.00000000 77017976.00000000 194745776.00000000 77010.08593750  6147100.50000000 4861305.50000000 
0.04200    121448432.00000000 75990528.00000000 192134240.00000000 75670.66406250  6051591.50000000 4786089.50000000 
0.04300    119771288.00000000 74952504.00000000 189495568.00000000 74323.71875000  5955316.50000000 4710281.50000000 
0.04400    118079616.00000000 73905664.00000000 186832848.00000000 72969.38281250  5858406.50000000 4633960.50000000 
0.04500    116375496.00000000 72850776.00000000 184151152.00000000 71609.27343750  5760892.50000000 4557119.50000000 
0.04600    114658560.00000000 71787784.00000000 181449200.00000000 70244.25000000  5662846.00000000 4479905.50000000 
0.04700    112931760.00000000 70718736.00000000 178731408.00000000 68876.55468750  5564438.00000000 4402378.00000000 
0.04800    111195736.00000000 69643736.00000000 175999568.00000000 67506.43750000  5465687.50000000 4324599.00000000 
0.04900    109452032.00000000 68564480.00000000 173255280.00000000 66135.89843750  5366682.00000000 4246574.50000000 
0.05000    107702216.00000000 67480440.00000000 170500416.00000000 64765.67187500  5267492.50000000 4168434.25000000 
0.05100    105947320.00000000 66392908.00000000 167738176.00000000 63397.04296875  5168229.50000000 4090237.75000000 
0.05200    104188464.00000000 65303476.00000000 164969152.00000000 62031.60156250  5068961.00000000 4012014.00000000 
0.05300    102427352.00000000 64212224.00000000 162196512.00000000 60669.80078125  4969815.50000000 3933853.75000000 
0.05400    100664808.00000000 63120040.00000000 159422192.00000000 59313.20703125  4870766.00000000 3855804.00000000 
0.05500    98903032.00000000 62027964.00000000 156648000.00000000 57962.88281250  4771964.50000000 3777934.25000000 
0.05600    97142880.00000000 60936508.00000000 153875184.00000000 56619.64843750  4673482.50000000 3700309.25000000 
0.05700    95385168.00000000 59846868.00000000 151107232.00000000 55285.24609375  4575374.00000000 3622952.50000000 
0.05800    93631416.00000000 58759280.00000000 148344656.00000000 53959.76171875  4477704.00000000 3545963.00000000 
0.05900    91882560.00000000 57674784.00000000 145590592.00000000 52644.67968750  4380578.50000000 3469372.50000000 
0.06000    90140728.00000000 56594180.00000000 142846096.00000000 51341.02734375  4284000.50000000 3393228.50000000 
0.06100    88405424.00000000 55517904.00000000 140113728.00000000 50049.56250000  4188137.50000000 3317620.00000000 
0.06200    86679368.00000000 54446584.00000000 137393968.00000000 48770.89062500  4092943.75000000 3242574.00000000 
0.06300    84962728.00000000 53381344.00000000 134689504.00000000 47506.71875000  3998546.50000000 3168101.00000000 
0.06400    83257232.00000000 52322460.00000000 132001048.00000000 46256.32031250  3904972.50000000 3094315.00000000 
0.06500    81563080.00000000 51270812.00000000 129331448.00000000 45022.16406250  3812318.00000000 3021213.00000000 
0.06600    79881760.00000000 50226780.00000000 126681648.00000000 43803.78906250  3720609.25000000 2948867.00000000 
0.06700    78214400.00000000 49190988.00000000 124053072.00000000 42602.59375000  3629903.00000000 2877279.25000000 
0.06800    76561296.00000000 48164256.00000000 121447304.00000000 41419.11718750  3540233.25000000 2806560.50000000 
0.06900    74923808.00000000 47147004.00000000 118866320.00000000 40253.16406250  3451704.75000000 2736670.00000000 
0.07000    73303048.00000000 46139828.00000000 116310656.00000000 39106.54687500  3364305.50000000 2667678.75000000 
0.07100    71698968.00000000 45143004.00000000 113781688.00000000 37979.01171875  3278104.00000000 2599635.75000000 
0.07200    70113368.00000000 44157496.00000000 111280744.00000000 36871.46484375  3193131.75000000 2532566.25000000 
0.07300    68546240.00000000 43183312.00000000 108810136.00000000 35783.92968750  3109431.25000000 2466477.75000000 
0.07400    66999024.00000000 42221056.00000000 106369352.00000000 34717.12500000  3027034.25000000 2401417.00000000 
0.07500    65472088.00000000 41270948.00000000 103960632.00000000 33671.36718750  2946000.75000000 2337406.75000000 
0.07600    63965868.00000000 40333844.00000000 101584088.00000000 32646.72070312  2866321.00000000 2274482.75000000 
0.07700    62481068.00000000 39409872.00000000 99241624.00000000 31644.25195312  2788056.00000000 2212661.75000000 
0.07800    61018572.00000000 38499620.00000000 96933560.00000000 30663.41992188  2711205.00000000 2151942.50000000 
0.07900    59578452.00000000 37603128.00000000 94661224.00000000 29704.88867188  2635793.75000000 2092379.00000000 
0.08000    58161544.00000000 36721032.00000000 92424816.00000000 28768.39648438  2561887.75000000 2033954.87500000 
0.08100    56768396.00000000 35853292.00000000 90225944.00000000 27854.86132812  2489454.25000000 1976722.12500000 
0.08200    55399204.00000000 35000096.00000000 88064664.00000000 26963.76757812  2418525.00000000 1920673.75000000 
0.08300    54054388.00000000 34162284.00000000 85941208.00000000 26095.12304688  2349141.00000000 1865806.00000000 
0.08400    52734208.00000000 33339450.00000000 83856992.00000000 25249.49414062  2281279.75000000 1812153.50000000 
0.08500    51439100.00000000 32532168.00000000 81811688.00000000 24426.54492188  2214958.75000000 1759707.00000000 
0.08600    50169580.00000000 31740532.00000000 79806776.00000000 23626.36718750  2150195.25000000 1708484.37500000 
0.08700    48925692.00000000 30964734.00000000 77841528.00000000 22848.91992188  2086981.50000000 1658479.00000000 
0.08800    47707588.00000000 30204670.00000000 75917216.00000000 22093.91992188  2025333.37500000 1609715.00000000 
0.08900    46515208.00000000 29460678.00000000 74033848.00000000 21361.52929688  1965236.62500000 1562157.75000000 
0.09000    45349412.00000000 28733004.00000000 72191144.00000000 20651.37695312  1906700.87500000 1515830.87500000 
0.09100    44209652.00000000 28021576.00000000 70389712.00000000 19963.20703125  1849724.37500000 1470726.50000000 
0.09200    43096148.00000000 27325998.00000000 68629824.00000000 19297.21289062  1794287.00000000 1426851.62500000 
0.09300    42009108.00000000 26647104.00000000 66911672.00000000 18652.86914062  1740394.25000000 1384174.87500000 
0.09400    40948284.00000000 25984362.00000000 65234764.00000000 18029.84765625  1688032.12500000 1342705.75000000 
0.09500    39913980.00000000 25337802.00000000 63599128.00000000 17428.23437500  1637200.37500000 1302439.00000000 
0.09600    38905924.00000000 24707724.00000000 62004664.00000000 16847.36132812  1587868.25000000 1263360.00000000 
0.09700    37924040.00000000 24093792.00000000 60451756.00000000 16287.07812500  1540041.25000000 1225458.12500000 
0.09800    36968280.00000000 23495966.00000000 58940000.00000000 15747.04101562  1493687.62500000 1188725.00000000 
0.09900    36038552.00000000 22914384.00000000 57469416.00000000 15226.94628906  1448792.75000000 1153137.25000000 
0.10000    35134568.00000000 22348694.00000000 56038948.00000000 14726.24511719  1405338.00000000 1118685.37500000 
0.10100    34256380.00000000 21798796.00000000 54648796.00000000 14244.56054688  1363313.75000000 1085351.12500000 
0.10200    33403444.00000000 21264844.00000000 53299020.00000000 13781.64257812  1322682.75000000 1053135.50000000 
0.10300    32575336.00000000 20746328.00000000 51988508.00000000 13337.02539062  1283427.25000000 1021986.62500000 
0.10400    31772442.00000000 20243246.00000000 50717556.00000000 12910.16503906  1245532.37500000 991910.12500000 
0.10500    30994220.00000000 19755562.00000000 49485132.00000000 12500.79785156  1208966.50000000 962892.12500000 
0.10600    30239998.00000000 19282828.00000000 48290440.00000000 12108.09570312  1173698.87500000 934888.87500000 
0.10700    29509756.00000000 18824982.00000000 47134200.00000000 11732.02539062  1139708.25000000 907897.25000000 
0.10800    28803114.00000000 18381912.00000000 46014828.00000000 11371.95019531  1106956.12500000 881888.81250000 
0.10900    28119698.00000000 17953020.00000000 44932208.00000000 11027.33984375  1075434.25000000 856841.18750000 
0.11000    27459316.00000000 17538634.00000000 43885680.00000000 10697.69042969  1045100.06250000 832733.87500000 
0.11100    26821032.00000000 17138066.00000000 42874236.00000000 10382.64160156  1015922.31250000 809538.00000000 
0.11200    26204924.00000000 16751187.00000000 41897816.00000000 10081.57617188  987874.93750000 787241.06250000 
0.11300    25610402.00000000 16377815.00000000 40955332.00000000 9794.06542969   960921.43750000 765807.56250000 
0.11400    25036822.00000000 16017509.00000000 40046264.00000000 9519.68554688   935038.75000000 745218.00000000 
0.11500    24484138.00000000 15670254.00000000 39169736.00000000 9257.81250000   910189.56250000 725441.75000000 
0.11600    23951442.00000000 15335570.00000000 38325444.00000000 9007.91113281   886342.12500000 706461.37500000 
0.11700    23438764.00000000 15013132.00000000 37511916.00000000 8769.69726562   863470.18750000 688252.43750000 
0.11800    22944900.00000000 14702665.00000000 36728824.00000000 8542.53125000   841527.75000000 670775.56250000 
0.11900    22470044.00000000 14403939.00000000 35975436.00000000 8325.99707031   820495.37500000 654021.25000000 
0.12000    22013406.00000000 14116662.00000000 35250912.00000000 8119.51025391   800337.12500000 637954.43750000 
0.12100    21574526.00000000 13840386.00000000 34554472.00000000 7922.74414062   781014.68750000 622561.93750000 
0.12200    21152766.00000000 13574950.00000000 33885272.00000000 7735.16308594   762506.93750000 607798.68750000 
0.12300    20747890.00000000 13319957.00000000 33242144.00000000 7556.34716797   744773.12500000 593651.25000000 
0.12400    20358916.00000000 13075098.00000000 32625004.00000000 7385.75732422   727783.81250000 580098.75000000 
0.12500    19985624.00000000 12840002.00000000 32032380.00000000 7222.98974609   711501.87500000 567101.50000000 
0.12600    19627664.00000000 12614441.00000000 31463874.00000000 7067.75195312   695913.56250000 554658.87500000 
0.12700    19284098.00000000 12397969.00000000 30918380.00000000 6919.44726562   680967.50000000 542723.62500000 
0.12800    18954602.00000000 12190394.00000000 30395222.00000000 6777.73583984   666640.00000000 531278.18750000 
0.12900    18638796.00000000 11991329.00000000 29893670.00000000 6642.19335938   652905.31250000 520306.40625000 
0.13000    18336004.00000000 11800537.00000000 29412864.00000000 6512.50048828   639733.87500000 509777.25000000 
0.13100    18045510.00000000 11617477.00000000 28951432.00000000 6388.16308594   627089.25000000 499669.78125000 
0.13200    17767268.00000000 11441931.00000000 28509396.00000000 6268.94384766   614950.87500000 489960.37500000 
0.13300    17500404.00000000 11273816.00000000 28085594.00000000 6154.41650391   603289.62500000 480629.12500000 
0.13400    17244586.00000000 11112431.00000000 27679168.00000000 6044.24121094   592076.62500000 471659.25000000 
0.13500    16999364.00000000 10957786.00000000 27289556.00000000 5938.20312500   581285.18750000 463019.34375000 
0.13600    16763957.00000000 10809356.00000000 26915752.00000000 5835.81445312   570888.50000000 454698.09375000 
0.13700    16538228.00000000 10667098.00000000 26557030.00000000 5736.95263672   560866.06250000 446672.78125000 
0.13800    16321471.00000000 10530303.00000000 26212724.00000000 5641.15966797   551185.68750000 438922.59375000 
0.13900    16113361.00000000 10399162.00000000 25882156.00000000 5548.29492188   541837.00000000 431430.46875000 
0.14000    15913323.00000000 10273094.00000000 25564284.00000000 5458.09375000   532786.87500000 424181.71875000 
0.14100    15721000.00000000 10151860.00000000 25258914.00000000 5370.26806641   524017.81250000 417156.09375000 
0.14200    15535967.00000000 10035169.00000000 24964906.00000000 5284.58886719   515509.21875000 410336.53125000 
0.14300    15357705.00000000 9922862.00000000 24681818.00000000 5200.89453125   507236.06250000 403708.06250000 
0.14400    15185748.00000000 9814477.00000000 24408728.00000000 5118.90722656   499186.03125000 397252.53125000 
0.14500    15019893.00000000 9710039.00000000 24145234.00000000 5038.51855469   491339.43750000 390963.75000000 
0.14600    14859632.00000000 9609043.00000000 23890840.00000000 4959.54687500   483677.78125000 384819.15625000 
0.14700    14704538.00000000 9511451.00000000 23644774.00000000 4881.73779297   476180.25000000 378811.09375000 
0.14800    14554340.00000000 9416861.00000000 23406078.00000000 4805.02685547   468835.84375000 372921.28125000 
0.14900    14408518.00000000 9325059.00000000 23174788.00000000 4729.21972656   461630.81250000 367144.31250000 
0.15000    14266819.00000000 9235969.00000000 22949906.00000000 4654.28515625   454547.43750000 361464.50000000 
0.15100    14129019.00000000 9149259.00000000 22731112.00000000 4579.98925781   447572.28125000 355872.56250000 
0.15200    13994793.00000000 9064812.00000000 22518044.00000000 4506.37402344   440699.12500000 350364.59375000 
0.15300    13863548.00000000 8982323.00000000 22310004.00000000 4433.19921875   433911.84375000 344922.68750000 
0.15400    13735210.00000000 8901647.00000000 22106326.00000000 4360.43701172   427196.09375000 339538.87500000 
0.15500    13609496.00000000 8822611.00000000 21906834.00000000 4288.08935547   420549.03125000 334211.50000000 
0.15600    13485968.00000000 8745050.00000000 21711000.00000000 4215.97363281   413954.87500000 328927.65625000 
0.15700    13364656.00000000 8668837.00000000 21518604.00000000 4144.18945312   407414.25000000 323684.50000000 
0.15800    13245059.00000000 8593653.00000000 21328898.00000000 4072.55664062   400912.53125000 318473.12500000 
0.15900    13127093.00000000 8519583.00000000 21141846.00000000 4001.15600586   394443.59375000 313291.37500000 
0.16000    13010403.00000000 8446315.00000000 20956864.00000000 3929.82617188   387999.62500000 308131.15625000 
0.16100    12894936.00000000 8373772.00000000 20773828.00000000 3858.73681641   381584.09375000 302992.40625000 
0.16200    12780443.00000000 8301832.00000000 20592168.00000000 3787.73706055   375185.28125000 297864.71875000 
0.16300    12666692.00000000 8230405.50000000 20411726.00000000 3716.87475586   368798.84375000 292750.56250000 
0.16400    12553603.00000000 8159281.00000000 20232250.00000000 3646.16455078   362423.37500000 287644.43750000 
0.16500    12440785.00000000 8088466.50000000 20053552.00000000 3575.59033203   356056.25000000 282544.25000000 
0.16600    12328422.00000000 8017858.00000000 19875136.00000000 3505.19482422   349693.78125000 277448.25000000 
0.16700    12216075.00000000 7947221.50000000 19696950.00000000 3434.95434570   343333.21875000 272355.56250000 
0.16800    12103777.00000000 7876612.50000000 19518890.00000000 3364.94848633   336975.37500000 267265.31250000 
0.16900    11991488.00000000 7805987.00000000 19340626.00000000 3295.22534180   330621.00000000 262176.59375000 
0.17000    11878993.00000000 7735179.00000000 19162066.00000000 3225.76635742   324267.31250000 257088.76562500 
