# SAXS profile: number of points = 501, q_min = 0, q_max = 0.5, delta_q = 0.001
#    q    intensity 
0.00000    162232656.00000000 101202352.00000000 256271104.00000000 99776.26562500  8046786.50000000 6355322.00000000 
0.00100    162200976.00000000 101179936.00000000 256215200.00000000 99745.77343750  8044651.00000000 6353706.50000000 
0.00200    162099296.00000000 101114088.00000000 256048320.00000000 99656.08593750  8038348.00000000 6348715.50000000 
0.00300    161924800.00000000 101004328.00000000 255768608.00000000 99505.32031250  8027862.50000000 6340449.50000000 
0.00400    161675168.00000000 100851792.00000000 255378240.00000000 99295.67968750  8013161.50000000 6328926.50000000 
0.00500    161353936.00000000 100654760.00000000 254876992.00000000 99026.82031250  7994289.00000000 6314107.50000000 
0.00600    160965008.00000000 100414184.00000000 254266864.00000000 98699.02343750  7971354.00000000 6296034.50000000 
0.00700    160504192.00000000 100132536.00000000 253548448.00000000 98313.68750000  7944365.50000000 6274837.50000000 
0.00800    159972656.00000000 99808696.00000000 252722176.00000000 97870.94531250  7913297.00000000 6250442.50000000 
0.00900    159379888.00000000 99443568.00000000 251789376.00000000 97372.85156250  7878283.00000000 6222941.00000000 
0.01000    158721616.00000000 99037896.00000000 250753776.00000000 96819.75781250  7839419.50000000 6192420.00000000 
0.01100    157996432.00000000 98590536.00000000 249613744.00000000 96212.58593750  7796735.50000000 6158808.00000000 
0.01200    157205552.00000000 98103560.00000000 248372432.00000000 95552.88281250  7750347.50000000 6122373.00000000 
0.01300    156350128.00000000 97577152.00000000 247034736.00000000 94842.30468750  7700296.50000000 6083046.00000000 
0.01400    155436096.00000000 97013848.00000000 245596496.00000000 94082.50781250  7646646.00000000 6040943.50000000 
0.01500    154460992.00000000 96413048.00000000 244066016.00000000 93275.25000000  7589584.00000000 5996062.50000000 
0.01600    153427696.00000000 95777504.00000000 242444560.00000000 92421.26562500  7529214.00000000 5948548.50000000 
0.01700    152336432.00000000 95105168.00000000 240733440.00000000 91523.32031250  7465555.50000000 5898553.50000000 
0.01800    151191584.00000000 94399752.00000000 238934768.00000000 90582.84375000  7398800.00000000 5846070.50000000 
0.01900    149992528.00000000 93660848.00000000 237052560.00000000 89601.85937500  7329113.50000000 5791293.50000000 
0.02000    148741760.00000000 92890344.00000000 235088224.00000000 88581.91406250  7256487.00000000 5734198.00000000 
0.02100    147442992.00000000 92089560.00000000 233048624.00000000 87526.60937500  7181170.00000000 5674947.50000000 
0.02200    146095392.00000000 91259032.00000000 230932384.00000000 86436.02343750  7103234.00000000 5613709.50000000 
0.02300    144703904.00000000 90400336.00000000 228744976.00000000 85313.64062500  7022844.00000000 5550456.50000000 
0.02400    143267568.00000000 89514656.00000000 226489744.00000000 84161.53125000  6940121.50000000 5485407.50000000 
0.02500    141790976.00000000 88603368.00000000 224171456.00000000 82981.13281250  6855267.00000000 5418628.50000000 
0.02600    140275824.00000000 87668592.00000000 221789120.00000000 81775.27343750  6768331.50000000 5350244.50000000 
0.02700    138723392.00000000 86709824.00000000 219350544.00000000 80546.41406250  6679475.00000000 5280339.50000000 
0.02800    137135424.00000000 85730576.00000000 216856384.00000000 79296.26562500  6588906.50000000 5209081.50000000 
0.02900    135517408.00000000 84730224.00000000 214311840.00000000 78028.03125000  6496786.50000000 5136514.50000000 
0.03000    133868896.00000000 83712568.00000000 211721600.00000000 76742.98437500  6403092.50000000 5062858.50000000 
0.03100    132193088.00000000 82676112.00000000 209087152.00000000 75442.73437500  6308139.00000000 4988101.50000000 
0.03200    130492312.00000000 81624664.00000000 206409664.00000000 74130.71875000  6212098.50000000 4912475.50000000 
0.03300    128767368.00000000 80558712.00000000 203698944.00000000 72809.25000000  6114990.00000000 4836027.00000000 
0.03400    127023200.00000000 79480440.00000000 200955296.00000000 71479.32031250  6017028.00000000 4758836.50000000 
0.03500    125259768.00000000 78389664.00000000 198181536.00000000 70144.79687500  5918346.00000000 4681126.00000000 
0.03600    123480104.00000000 77289040.00000000 195381136.00000000 68806.57812500  5819063.00000000 4602980.00000000 
0.03700    121686488.00000000 76179088.00000000 192559360.00000000 67465.84375000  5719339.50000000 4524375.50000000 
0.03800    119881744.00000000 75062000.00000000 189718800.00000000 66126.08593750  5619311.00000000 4445581.50000000 
0.03900    118068600.00000000 73937904.00000000 186864112.00000000 64788.26562500  5519107.00000000 4366575.00000000 
0.04000    116246608.00000000 72808776.00000000 183996464.00000000 63454.41015625  5418770.00000000 4287579.00000000 
0.04100    114420112.00000000 71677288.00000000 181120496.00000000 62126.43359375  5318573.00000000 4208579.00000000 
0.04200    112590720.00000000 70542600.00000000 178239136.00000000 60806.16796875  5218550.50000000 4129725.00000000 
0.04300    110759264.00000000 69408016.00000000 175356208.00000000 59494.97656250  5118852.00000000 4051113.50000000 
0.04400    108929536.00000000 68272392.00000000 172473376.00000000 58194.53906250  5019594.50000000 3972819.50000000 
0.04500    107102848.00000000 67139048.00000000 169593664.00000000 56906.04687500  4920862.50000000 3894953.50000000 
0.04600    105280584.00000000 66007176.00000000 166723152.00000000 55630.58593750  4822761.00000000 3817570.25000000 
0.04700    103464096.00000000 64879488.00000000 163859168.00000000 54370.34375000  4725365.50000000 3740766.25000000 
0.04800    101656904.00000000 63756232.00000000 161009344.00000000 53125.62109375  4628840.50000000 3664595.75000000 
0.04900    99857880.00000000 62639276.00000000 158174048.00000000 51897.98828125  4533247.50000000 3589144.75000000 
0.05000    98071344.00000000 61528752.00000000 155356624.00000000 50688.35546875  4438652.00000000 3514483.75000000 
0.05100    96297272.00000000 60426036.00000000 152559600.00000000 49497.94531250  4345133.50000000 3440671.00000000 
0.05200    94538000.00000000 59330988.00000000 149784656.00000000 48326.91015625  4252720.00000000 3367734.00000000 
0.05300    92795000.00000000 58246008.00000000 147034400.00000000 47176.58203125  4161614.00000000 3295774.50000000 
0.05400    91068272.00000000 57171340.00000000 144309280.00000000 46047.13671875  4071759.50000000 3224809.25000000 
0.05500    89360296.00000000 56107716.00000000 141614608.00000000 44940.14453125  3983251.00000000 3154905.50000000 
0.05600    87671328.00000000 55056132.00000000 138948656.00000000 43854.80078125  3896128.25000000 3086096.75000000 
0.05700    86002200.00000000 54016708.00000000 136314784.00000000 42792.47656250  3810453.75000000 3018416.50000000 
0.05800    84355296.00000000 52990460.00000000 133714432.00000000 41752.93359375  3726267.75000000 2951914.75000000 
0.05900    82731424.00000000 51977416.00000000 131149312.00000000 40736.58984375  3643606.75000000 2886574.00000000 
0.06000    81129472.00000000 50979464.00000000 128620280.00000000 39743.54687500  3562504.75000000 2822484.25000000 
0.06100    79552424.00000000 49995448.00000000 126128520.00000000 38773.95312500  3482970.75000000 2759635.25000000 
0.06200    78000104.00000000 49026708.00000000 123676232.00000000 37828.01562500  3405043.50000000 2698039.75000000 
0.06300    76472936.00000000 48073848.00000000 121263936.00000000 36905.72265625  3328739.75000000 2637705.50000000 
0.06400    74971448.00000000 47136732.00000000 118891280.00000000 36006.78906250  3254040.75000000 2578657.75000000 
0.06500    73496360.00000000 46215788.00000000 116560648.00000000 35131.19140625  3181009.50000000 2520897.75000000 
0.06600    72049024.00000000 45311476.00000000 114271592.00000000 34278.60156250  3109599.75000000 2464434.25000000 
0.06700    70627680.00000000 44423808.00000000 112025760.00000000 33448.51953125  3039831.25000000 2409274.75000000 
0.06800    69234016.00000000 43553036.00000000 109821560.00000000 32641.00000000  2971715.75000000 2355385.75000000 
0.06900    67867880.00000000 42699500.00000000 107662960.00000000 31855.97070312  2905209.50000000 2302819.00000000 
0.07000    66529452.00000000 41862900.00000000 105546272.00000000 31092.36328125  2840333.75000000 2251498.25000000 
0.07100    65219368.00000000 41043868.00000000 103474712.00000000 30350.09570312  2777048.00000000 2201447.75000000 
0.07200    63936408.00000000 40242140.00000000 101446120.00000000 29628.96679688  2715357.75000000 2152666.00000000 
0.07300    62681608.00000000 39457628.00000000 99461872.00000000 28928.20507812  2655257.75000000 2105123.25000000 
0.07400    61454568.00000000 38690456.00000000 97521616.00000000 28247.04101562  2596692.00000000 2058797.62500000 
0.07500    60255096.00000000 37940400.00000000 95623952.00000000 27585.49023438  2539631.50000000 2013673.25000000 
0.07600    59083048.00000000 37207724.00000000 93771272.00000000 26942.61718750  2484064.75000000 1969738.00000000 
0.07700    57938032.00000000 36492048.00000000 91960632.00000000 26317.98828125  2429994.50000000 1926958.87500000 
0.07800    56820504.00000000 35793148.00000000 90192608.00000000 25711.16210938  2377305.50000000 1885309.37500000 
0.07900    55729208.00000000 35111080.00000000 88467344.00000000 25121.12109375  2326071.25000000 1844790.37500000 
0.08000    54664628.00000000 34445220.00000000 86783848.00000000 24547.79101562  2276176.50000000 1805338.87500000 
0.08100    53625664.00000000 33796092.00000000 85141392.00000000 23990.42578125  2227626.00000000 1766954.75000000 
0.08200    52612992.00000000 33163486.00000000 83539272.00000000 23448.15820312  2180364.25000000 1729584.37500000 
0.08300    51624528.00000000 32545834.00000000 81977112.00000000 22920.81054688  2134361.25000000 1693224.00000000 
0.08400    50661108.00000000 31944158.00000000 80454160.00000000 22407.55664062  2089588.87500000 1657840.87500000 
0.08500    49721832.00000000 31357718.00000000 78969656.00000000 21908.09375000  2045995.00000000 1623391.62500000 
0.08600    48806404.00000000 30786090.00000000 77522368.00000000 21421.62500000  2003573.87500000 1589858.50000000 
0.08700    47913880.00000000 30228988.00000000 76113360.00000000 20947.84179688  1962249.87500000 1557220.25000000 
0.08800    47044204.00000000 29686466.00000000 74738248.00000000 20485.90429688  1921990.87500000 1525416.25000000 
0.08900    46196812.00000000 29157816.00000000 73399784.00000000 20035.46484375  1882804.12500000 1494446.75000000 
0.09000    45370640.00000000 28642716.00000000 72095328.00000000 19596.20117188  1844576.50000000 1464268.25000000 
0.09100    44565776.00000000 28141282.00000000 70824880.00000000 19167.50781250  1807330.00000000 1434846.37500000 
0.09200    43780968.00000000 27652246.00000000 69585592.00000000 18748.74023438  1771012.62500000 1406174.37500000 
0.09300    43016176.00000000 27176066.00000000 68378832.00000000 18339.75390625  1735593.62500000 1378208.50000000 
0.09400    42270932.00000000 26712080.00000000 67202200.00000000 17940.15429688  1701029.25000000 1350924.12500000 
0.09500    41544244.00000000 26259960.00000000 66055484.00000000 17549.31054688  1667286.37500000 1324286.87500000 
0.09600    40835664.00000000 25819314.00000000 64938504.00000000 17166.90234375  1634334.62500000 1298275.00000000 
0.09700    40144608.00000000 25389974.00000000 63848176.00000000 16792.88867188  1602151.37500000 1272878.12500000 
0.09800    39470516.00000000 24971166.00000000 62786024.00000000 16426.67382812  1570699.50000000 1248060.37500000 
0.09900    38812904.00000000 24563048.00000000 61749492.00000000 16067.99609375  1539951.12500000 1223789.37500000 
0.10000    38170904.00000000 24164924.00000000 60738088.00000000 15716.60937500  1509878.25000000 1200061.12500000 
0.10100    37544672.00000000 23776252.00000000 59751272.00000000 15372.29394531  1480445.62500000 1176838.50000000 
0.10200    36932852.00000000 23397156.00000000 58788164.00000000 15034.73925781  1451629.12500000 1154103.75000000 
0.10300    36335224.00000000 23026936.00000000 57847184.00000000 14703.83691406  1423414.62500000 1131843.25000000 
0.10400    35751596.00000000 22665536.00000000 56928268.00000000 14379.15136719  1395755.87500000 1110031.37500000 
0.10500    35181148.00000000 22312612.00000000 56030376.00000000 14060.84082031  1368672.62500000 1088663.62500000 
0.10600    34623608.00000000 21967402.00000000 55152932.00000000 13748.54296875  1342100.75000000 1067675.75000000 
0.10700    34077688.00000000 21630208.00000000 54294444.00000000 13442.02539062  1316052.75000000 1047120.75000000 
0.10800    33544030.00000000 21300268.00000000 53454868.00000000 13141.29199219  1290488.12500000 1026937.25000000 
0.10900    33021416.00000000 20977364.00000000 52633000.00000000 12846.29492188  1265391.62500000 1007123.31250000 
0.11000    32509888.00000000 20661418.00000000 51828752.00000000 12556.65039062  1240746.50000000 987671.06250000 
0.11100    32008370.00000000 20352084.00000000 51041328.00000000 12272.59179688  1216543.62500000 968555.87500000 
0.11200    31517328.00000000 20048990.00000000 50269244.00000000 11993.75195312  1192785.00000000 949777.93750000 
0.11300    31035898.00000000 19751842.00000000 49512560.00000000 11720.22558594  1169424.75000000 931315.06250000 
0.11400    30563706.00000000 19460474.00000000 48770604.00000000 11451.92773438  1146468.00000000 913173.43750000 
0.11500    30100436.00000000 19174792.00000000 48042592.00000000 11188.82910156  1123895.62500000 895326.62500000 
0.11600    29645636.00000000 18894446.00000000 47328156.00000000 10930.59570312  1101702.50000000 877768.50000000 
0.11700    29199242.00000000 18618948.00000000 46626808.00000000 10677.62304688  1079886.12500000 860512.87500000 
0.11800    28760596.00000000 18348372.00000000 45937196.00000000 10429.57226562  1058421.87500000 843516.75000000 
0.11900    28329558.00000000 18082556.00000000 45260148.00000000 10186.42578125  1037306.00000000 826796.25000000 
0.12000    27905894.00000000 17821278.00000000 44594320.00000000 9948.13085938   1016529.68750000 810341.81250000 
0.12100    27489364.00000000 17564310.00000000 43939676.00000000 9714.78515625   996095.06250000 794155.62500000 
0.12200    27079424.00000000 17311618.00000000 43295644.00000000 9486.24023438   975998.12500000 778208.37500000 
0.12300    26676154.00000000 17062728.00000000 42661336.00000000 9262.47558594   956211.62500000 762519.68750000 
0.12400    26279238.00000000 16817526.00000000 42037304.00000000 9043.46875000   936753.31250000 747074.75000000 
0.12500    25888064.00000000 16576039.00000000 41422612.00000000 8829.14257812   917597.56250000 731871.25000000 
0.12600    25503014.00000000 16338143.00000000 40816852.00000000 8619.53027344   898756.93750000 716909.31250000 
0.12700    25123834.00000000 16103523.00000000 40220232.00000000 8414.48242188   880222.87500000 702173.43750000 
0.12800    24749762.00000000 15872333.00000000 39631556.00000000 8214.00878906   861981.31250000 687671.00000000 
0.12900    24381154.00000000 15644184.00000000 39051256.00000000 8018.06982422   844038.50000000 673396.37500000 
0.13000    24017724.00000000 15419197.00000000 38479072.00000000 7826.62060547   826395.06250000 659349.18750000 
0.13100    23659360.00000000 15196983.00000000 37914344.00000000 7639.54052734   809028.50000000 645522.25000000 
0.13200    23305926.00000000 14977603.00000000 37356900.00000000 7456.83789062   791954.18750000 631925.87500000 
0.13300    22956934.00000000 14761150.00000000 36807340.00000000 7278.46679688   775164.87500000 618534.43750000 
0.13400    22612794.00000000 14547218.00000000 36264300.00000000 7104.24804688   758653.06250000 605365.56250000 
0.13500    22272864.00000000 14335995.00000000 35728204.00000000 6934.22509766   742417.25000000 592410.75000000 
0.13600    21937426.00000000 14127138.00000000 35198348.00000000 6768.30078125   726450.75000000 579664.18750000 
0.13700    21606130.00000000 13920858.00000000 34675632.00000000 6606.35742188   710759.06250000 567135.68750000 
0.13800    21279118.00000000 13716981.00000000 34158848.00000000 6448.36181641   695333.56250000 554809.25000000 
0.13900    20956164.00000000 13515343.00000000 33648360.00000000 6294.15039062   680172.25000000 542688.50000000 
0.14000    20637330.00000000 13316137.00000000 33143808.00000000 6143.75097656   665279.68750000 530776.37500000 
0.14100    20322286.00000000 13119103.00000000 32645350.00000000 5997.08300781   650642.93750000 519060.96875000 
0.14200    20010966.00000000 12924251.00000000 32152556.00000000 5853.96142578   636264.25000000 507550.50000000 
0.14300    19703528.00000000 12731596.00000000 31665748.00000000 5714.34179688   622137.75000000 496239.31250000 
0.14400    19399748.00000000 12541063.00000000 31184114.00000000 5578.08837891   608259.37500000 485118.75000000 
0.14500    19099554.00000000 12352540.00000000 30708548.00000000 5445.26025391   594629.50000000 474196.12500000 
0.14600    18802964.00000000 12166129.00000000 30237946.00000000 5315.59277344   581237.43750000 463466.81250000 
0.14700    18510050.00000000 11981875.00000000 29773042.00000000 5189.17236328   568099.12500000 452927.03125000 
0.14800    18220752.00000000 11799459.00000000 29313364.00000000 5065.67285156   555191.56250000 442575.03125000 
0.14900    17934756.00000000 11619067.00000000 28858990.00000000 4945.18359375   542521.25000000 432408.84375000 
0.15000    17652078.00000000 11440668.00000000 28409664.00000000 4827.56982422   530081.75000000 422425.93750000 
0.15100    17372854.00000000 11264159.00000000 27965604.00000000 4712.70751953   517875.62500000 412622.25000000 
0.15200    17096964.00000000 11089695.00000000 27526740.00000000 4600.65966797   505888.25000000 403002.53125000 
0.15300    16824468.00000000 10917087.00000000 27092848.00000000 4491.13525391   494123.50000000 393556.31250000 
0.15400    16555170.00000000 10746344.00000000 26663744.00000000 4384.16406250   482577.78125000 384281.18750000 
0.15500    16289291.00000000 10577502.00000000 26239998.00000000 4279.68798828   471248.84375000 375182.65625000 
0.15600    16026385.00000000 10410613.00000000 25820994.00000000 4177.51074219   460132.50000000 366248.59375000 
0.15700    15766914.00000000 10245587.00000000 25406956.00000000 4077.74658203   449222.71875000 357487.31250000 
0.15800    15510475.00000000 10082493.00000000 24997620.00000000 3980.21191406   438518.34375000 348882.93750000 
0.15900    15257279.00000000 9921118.00000000 24593444.00000000 3884.79833984   428018.53125000 340449.75000000 
0.16000    15007063.00000000 9761663.00000000 24193874.00000000 3791.50903320   417714.12500000 332167.53125000 
0.16100    14760119.00000000 9604088.00000000 23799244.00000000 3700.30664062   407608.40625000 324048.46875000 
0.16200    14516211.00000000 9448319.00000000 23409518.00000000 3611.11401367   397695.71875000 316082.71875000 
0.16300    14275417.00000000 9294410.00000000 23024244.00000000 3523.83374023   387973.28125000 308269.28125000 
0.16400    14037650.00000000 9142241.00000000 22644052.00000000 3438.45312500   378436.21875000 300608.62500000 
0.16500    13802990.00000000 8992103.00000000 22268562.00000000 3354.93969727   369084.46875000 293094.46875000 
0.16600    13571286.00000000 8843702.00000000 21897716.00000000 3273.20532227   359911.18750000 285726.15625000 
0.16700    13342732.00000000 8697099.00000000 21531618.00000000 3193.25683594   350916.09375000 278499.28125000 
0.16800    13117043.00000000 8552337.00000000 21170038.00000000 3115.01904297   342096.68750000 271414.15625000 
0.16900    12894517.00000000 8409454.00000000 20813402.00000000 3038.52050781   333450.96875000 264471.31250000 
0.17000    12674867.00000000 8268275.00000000 20461364.00000000 2963.69165039   324974.96875000 257665.81250000 
