# SAXS profile: number of points = 501, q_min = 0, q_max = 0.5, delta_q = 0.001
#    q    intensity 
0.00000    162235696.00000000 101201944.00000000 256270912.00000000 110646.84375000 8473738.00000000 6692562.00000000 
0.00100    162194128.00000000 101174840.00000000 256203744.00000000 110612.07812500 8471312.00000000 6690605.50000000 
0.00200    162070400.00000000 101096872.00000000 256004224.00000000 110508.20312500 8463947.00000000 6684844.00000000 
0.00300    161859344.00000000 100965576.00000000 255668816.00000000 110335.93750000 8451730.00000000 6675232.50000000 
0.00400    161562000.00000000 100782064.00000000 255202112.00000000 110095.07812500 8434640.00000000 6661748.00000000 
0.00500    161180560.00000000 100546144.00000000 254603424.00000000 109785.82812500 8412614.00000000 6644498.50000000 
0.00600    160713888.00000000 100257616.00000000 253869984.00000000 109409.73437500 8385945.00000000 6623473.50000000 
0.00700    160166880.00000000 99920496.00000000 253010384.00000000 108967.01562500 8354454.50000000 6598718.50000000 
0.00800    159532592.00000000 99531784.00000000 252022128.00000000 108459.33593750 8318306.50000000 6570272.50000000 
0.00900    158822592.00000000 99093808.00000000 250906928.00000000 107885.60156250 8277505.50000000 6538202.00000000 
0.01000    158033664.00000000 98607360.00000000 249665984.00000000 107249.51562500 8232217.00000000 6502552.50000000 
0.01100    157167968.00000000 98071888.00000000 248303664.00000000 106550.26562500 8182482.00000000 6463388.00000000 
0.01200    156225392.00000000 97489400.00000000 246821088.00000000 105790.85937500 8128371.50000000 6420845.00000000 
0.01300    155206144.00000000 96860440.00000000 245221008.00000000 104972.07812500 8070006.50000000 6374945.50000000 
0.01400    154113520.00000000 96185992.00000000 243505584.00000000 104094.80468750 8007485.00000000 6325784.50000000 
0.01500    152951488.00000000 95468072.00000000 241677952.00000000 103162.32812500 7941009.00000000 6273401.50000000 
0.01600    151720560.00000000 94707336.00000000 239741776.00000000 102175.84375000 7870577.00000000 6218046.50000000 
0.01700    150421152.00000000 93905848.00000000 237700096.00000000 101137.13281250 7796369.00000000 6159585.00000000 
0.01800    149055872.00000000 93063400.00000000 235556544.00000000 100047.71093750 7718511.00000000 6098345.50000000 
0.01900    147630768.00000000 92181864.00000000 233314656.00000000 98910.56250000  7637162.50000000 6034315.50000000 
0.02000    146145520.00000000 91263584.00000000 230977184.00000000 97727.81250000  7552433.50000000 5967665.00000000 
0.02100    144600336.00000000 90310144.00000000 228550000.00000000 96501.37500000  7464518.00000000 5898509.00000000 
0.02200    142999696.00000000 89321832.00000000 226034832.00000000 95232.96875000  7373589.50000000 5826906.00000000 
0.02300    141349136.00000000 88300688.00000000 223438688.00000000 93925.18750000  7279706.00000000 5753058.00000000 
0.02400    139646992.00000000 87248800.00000000 220761984.00000000 92581.75781250  7183199.00000000 5677084.00000000 
0.02500    137898880.00000000 86167904.00000000 218011680.00000000 91204.39062500  7084070.50000000 5599096.00000000 
0.02600    136105248.00000000 85059584.00000000 215191728.00000000 89795.31250000  6982606.50000000 5519188.50000000 
0.02700    134271200.00000000 83925440.00000000 212307328.00000000 88356.24218750  6878922.00000000 5437531.00000000 
0.02800    132397872.00000000 82766600.00000000 209361568.00000000 86891.17187500  6773162.50000000 5354302.00000000 
0.02900    130489488.00000000 81586576.00000000 206359296.00000000 85402.40625000  6665593.50000000 5269587.50000000 
0.03000    128548872.00000000 80385592.00000000 203304256.00000000 83891.60156250  6556333.50000000 5183546.00000000 
0.03100    126577848.00000000 79165784.00000000 200204592.00000000 82362.99218750  6445512.00000000 5096321.00000000 
0.03200    124580392.00000000 77930000.00000000 197061488.00000000 80817.64062500  6333432.50000000 5008017.00000000 
0.03300    122559296.00000000 76678816.00000000 193882480.00000000 79258.07031250  6220146.00000000 4918828.50000000 
0.03400    120517288.00000000 75414112.00000000 190669248.00000000 77687.26562500  6105937.50000000 4828858.00000000 
0.03500    118457312.00000000 74138680.00000000 187426160.00000000 76107.42187500  5990879.50000000 4738253.00000000 
0.03600    116383720.00000000 72854288.00000000 184161744.00000000 74522.46093750  5875236.00000000 4647134.50000000 
0.03700    114297064.00000000 71562384.00000000 180878720.00000000 72933.43750000  5759129.50000000 4555671.00000000 
0.03800    112201536.00000000 70264696.00000000 177579568.00000000 71342.35156250  5642735.50000000 4463973.50000000 
0.03900    110100552.00000000 68962496.00000000 174270416.00000000 69752.67187500  5526214.50000000 4372178.50000000 
0.04000    107996040.00000000 67657920.00000000 170956352.00000000 68166.36718750  5409763.00000000 4280393.50000000 
0.04100    105890696.00000000 66352160.00000000 167640880.00000000 66585.17968750  5293445.50000000 4188730.00000000 
0.04200    103787928.00000000 65047964.00000000 164330384.00000000 65010.87890625  5177505.00000000 4097346.75000000 
0.04300    101690064.00000000 63746540.00000000 161023152.00000000 63447.03906250  5062095.00000000 4006374.00000000 
0.04400    99599104.00000000 62449300.00000000 157730720.00000000 61894.81250000  4947298.50000000 3915891.75000000 
0.04500    97518936.00000000 61158724.00000000 154452704.00000000 60355.55468750  4833339.50000000 3826035.75000000 
0.04600    95450672.00000000 59874728.00000000 151194592.00000000 58832.33984375  4720243.00000000 3736894.00000000 
0.04700    93397776.00000000 58599728.00000000 147958640.00000000 57325.57812500  4608263.00000000 3648561.00000000 
0.04800    91361944.00000000 57335372.00000000 144749488.00000000 55837.99609375  4497444.50000000 3561181.50000000 
0.04900    89345832.00000000 56082680.00000000 141569680.00000000 54370.72656250  4387905.00000000 3474798.75000000 
0.05000    87350472.00000000 54843036.00000000 138424464.00000000 52925.59375000  4279808.00000000 3389530.75000000 
0.05100    85378864.00000000 53617060.00000000 135315168.00000000 51503.28906250  4173200.50000000 3305448.25000000 
0.05200    83432712.00000000 52407328.00000000 132247424.00000000 50105.39453125  4068261.25000000 3222625.25000000 
0.05300    81513696.00000000 51213620.00000000 129220896.00000000 48733.74609375  3964989.75000000 3141144.00000000 
0.05400    79623360.00000000 50038096.00000000 126238968.00000000 47388.42968750  3863541.50000000 3061079.50000000 
0.05500    77764456.00000000 48881016.00000000 123305000.00000000 46071.06640625  3763981.00000000 2982485.50000000 
0.05600    75936448.00000000 47743636.00000000 120421360.00000000 44782.27343750  3666355.75000000 2905440.00000000 
0.05700    74142936.00000000 46626824.00000000 117590440.00000000 43523.17968750  3570736.50000000 2829962.75000000 
0.05800    72383864.00000000 45531048.00000000 114814336.00000000 42294.12890625  3477241.75000000 2756119.75000000 
0.05900    70661248.00000000 44457728.00000000 112095096.00000000 41095.61718750  3385871.25000000 2683979.50000000 
0.06000    68975136.00000000 43407444.00000000 109432928.00000000 39928.59375000  3296647.50000000 2613513.00000000 
0.06100    67327392.00000000 42380480.00000000 106831120.00000000 38793.08984375  3209677.75000000 2544813.00000000 
0.06200    65719364.00000000 41377384.00000000 104290544.00000000 37689.48437500  3124965.25000000 2477881.00000000 
0.06300    64150260.00000000 40398924.00000000 101812496.00000000 36618.32031250  3042549.50000000 2412749.00000000 
0.06400    62621364.00000000 39445208.00000000 99397632.00000000 35579.03125000  2962394.25000000 2349443.00000000 
0.06500    61133440.00000000 38516632.00000000 97047160.00000000 34571.99609375  2884591.75000000 2287942.00000000 
0.06600    59687756.00000000 37614244.00000000 94761696.00000000 33597.52734375  2809113.00000000 2228285.00000000 
0.06700    58282560.00000000 36737056.00000000 92542456.00000000 32655.19921875  2735981.75000000 2170454.50000000 
0.06800    56919844.00000000 35886104.00000000 90388008.00000000 31744.61328125  2665116.50000000 2114453.25000000 
0.06900    55599712.00000000 35061044.00000000 88300776.00000000 30865.76367188  2596631.25000000 2060285.25000000 
0.07000    54321300.00000000 34262044.00000000 86279464.00000000 30017.82617188  2530422.50000000 2007915.62500000 
0.07100    53085060.00000000 33489390.00000000 84324600.00000000 29201.15820312  2466522.75000000 1957391.62500000 
0.07200    51890328.00000000 32742434.00000000 82435304.00000000 28414.92968750  2404871.75000000 1908592.25000000 
0.07300    50737908.00000000 32021740.00000000 80612320.00000000 27658.23632812  2345458.25000000 1861601.37500000 
0.07400    49626256.00000000 31326678.00000000 78854608.00000000 26931.04687500  2288242.00000000 1816322.87500000 
0.07500    48555904.00000000 30656908.00000000 77160768.00000000 26232.43164062  2233189.00000000 1772747.50000000 
0.07600    47525872.00000000 30012648.00000000 75531688.00000000 25561.42773438  2180239.75000000 1730853.62500000 
0.07700    46536020.00000000 29393210.00000000 73965360.00000000 24917.89453125  2129394.25000000 1690595.62500000 
0.07800    45585832.00000000 28798578.00000000 72461696.00000000 24300.52539062  2080564.50000000 1651943.00000000 
0.07900    44673128.00000000 28227742.00000000 71018648.00000000 23708.90039062  2033724.50000000 1614849.12500000 
0.08000    43799148.00000000 27680562.00000000 69634808.00000000 23141.85742188  1988781.62500000 1579274.37500000 
0.08100    42962044.00000000 27156718.00000000 68310840.00000000 22598.64453125  1945729.12500000 1545160.75000000 
0.08200    42161068.00000000 26655508.00000000 67043076.00000000 22078.51171875  1904475.12500000 1512491.50000000 
0.08300    41395496.00000000 26176332.00000000 65831412.00000000 21580.53710938  1864959.87500000 1481197.50000000 
0.08400    40664348.00000000 25718824.00000000 64674820.00000000 21103.56835938  1827141.75000000 1451232.25000000 
0.08500    39966376.00000000 25282070.00000000 63570424.00000000 20647.13281250  1790933.25000000 1422541.00000000 
0.08600    39300688.00000000 24865652.00000000 62517480.00000000 20209.66601562  1756287.37500000 1395087.87500000 
0.08700    38665824.00000000 24468694.00000000 61513736.00000000 19790.76562500  1723118.37500000 1368822.25000000 
0.08800    38061036.00000000 24090832.00000000 60557432.00000000 19389.07421875  1691368.87500000 1343673.00000000 
0.08900    37485524.00000000 23731180.00000000 59647284.00000000 19004.16015625  1660978.50000000 1319571.37500000 
0.09000    36937464.00000000 23389160.00000000 58781132.00000000 18634.55078125  1631872.12500000 1296516.00000000 
0.09100    36416076.00000000 23063712.00000000 57957504.00000000 18279.61328125  1603982.25000000 1274422.50000000 
0.09200    35919776.00000000 22754500.00000000 57173980.00000000 17938.70703125  1577235.75000000 1253231.50000000 
0.09300    35448376.00000000 22460550.00000000 56429472.00000000 17610.58398438  1551594.75000000 1232903.00000000 
0.09400    34999344.00000000 22181066.00000000 55720700.00000000 17294.27734375  1526947.75000000 1213372.75000000 
0.09500    34572188.00000000 21915730.00000000 55047148.00000000 16989.27734375  1503248.75000000 1194602.25000000 
0.09600    34165728.00000000 21663234.00000000 54406496.00000000 16694.83984375  1480450.25000000 1176546.12500000 
0.09700    33778612.00000000 21423056.00000000 53796484.00000000 16409.84375000  1458474.25000000 1159135.37500000 
0.09800    33409704.00000000 21194600.00000000 53215108.00000000 16133.69042969  1437263.37500000 1142355.37500000 
0.09900    33057792.00000000 20976962.00000000 52662012.00000000 15865.66308594  1416755.12500000 1126101.62500000 
0.10000    32721954.00000000 20769516.00000000 52133564.00000000 15604.87207031  1396904.87500000 1110378.12500000 
0.10100    32400564.00000000 20571444.00000000 51628968.00000000 15351.01464844  1377631.87500000 1095118.25000000 
0.10200    32092850.00000000 20381932.00000000 51145920.00000000 15103.35449219  1358893.37500000 1080281.50000000 
0.10300    31797410.00000000 20200638.00000000 50683144.00000000 14860.95117188  1340639.62500000 1065838.87500000 
0.10400    31513516.00000000 20026574.00000000 50238096.00000000 14623.64062500  1322829.87500000 1051739.12500000 
0.10500    31240128.00000000 19859362.00000000 49809800.00000000 14390.58398438  1305409.12500000 1037953.75000000 
0.10600    30975882.00000000 19697948.00000000 49396928.00000000 14161.55957031  1288315.75000000 1024432.81250000 
0.10700    30719944.00000000 19542094.00000000 48997544.00000000 13935.96386719  1271526.87500000 1011149.75000000 
0.10800    30471462.00000000 19391056.00000000 48609528.00000000 13713.46777344  1254999.12500000 998068.81250000 
0.10900    30229616.00000000 19244132.00000000 48232320.00000000 13493.45800781  1238698.87500000 985170.87500000 
0.11000    29993104.00000000 19101074.00000000 47864192.00000000 13275.88574219  1222566.00000000 972420.06250000 
0.11100    29761540.00000000 18961022.00000000 47503872.00000000 13060.20507812  1206594.75000000 959788.18750000 
0.11200    29533946.00000000 18823426.00000000 47149608.00000000 12846.25683594  1190749.12500000 947259.50000000 
0.11300    29309498.00000000 18688064.00000000 46800580.00000000 12633.71386719  1174994.50000000 934801.06250000 
0.11400    29087352.00000000 18554412.00000000 46455852.00000000 12422.51660156  1159311.37500000 922394.37500000 
0.11500    28867362.00000000 18421874.00000000 46113800.00000000 12212.20703125  1143674.87500000 910030.68750000 
0.11600    28648228.00000000 18290230.00000000 45773972.00000000 12002.85742188  1128071.50000000 897687.81250000 
0.11700    28429626.00000000 18158792.00000000 45434904.00000000 11794.25292969  1112472.25000000 885348.37500000 
0.11800    28210996.00000000 18027380.00000000 45095752.00000000 11586.32812500  1096863.50000000 873000.25000000 
0.11900    27992132.00000000 17895880.00000000 44755560.00000000 11378.87792969  1081232.62500000 860637.56250000 
0.12000    27771896.00000000 17763634.00000000 44413948.00000000 11172.07128906  1065569.50000000 848247.06250000 
0.12100    27550480.00000000 17630484.00000000 44070624.00000000 10965.69140625  1049876.50000000 835820.18750000 
0.12200    27327184.00000000 17496070.00000000 43723660.00000000 10759.82226562  1034136.37500000 823365.37500000 
0.12300    27101746.00000000 17360456.00000000 43373824.00000000 10554.60156250  1018339.37500000 810855.00000000 
0.12400    26873494.00000000 17223112.00000000 43019380.00000000 10349.81933594  1002480.43750000 798298.31250000 
0.12500    26642926.00000000 17083862.00000000 42660676.00000000 10145.62890625  986574.50000000 785697.75000000 
0.12600    26409078.00000000 16942700.00000000 42297464.00000000 9942.22070312   970610.31250000 773046.43750000 
0.12700    26172212.00000000 16799508.00000000 41928360.00000000 9739.51660156   954588.93750000 760348.06250000 
0.12800    25932010.00000000 16654044.00000000 41554248.00000000 9537.69824219   938517.62500000 747610.62500000 
0.12900    25688220.00000000 16506243.00000000 41174336.00000000 9336.79882812   922401.81250000 734830.12500000 
0.13000    25440858.00000000 16355964.00000000 40788356.00000000 9137.03320312   906245.87500000 722012.68750000 
0.13100    25189998.00000000 16203260.00000000 40396732.00000000 8938.46191406   890055.81250000 709169.00000000 
0.13200    24935350.00000000 16048135.00000000 39998912.00000000 8741.20898438   873839.81250000 696300.43750000 
0.13300    24677006.00000000 15890387.00000000 39595148.00000000 8545.50000000   857614.12500000 683410.06250000 
0.13400    24415050.00000000 15730149.00000000 39184920.00000000 8351.38281250   841373.75000000 670516.12500000 
0.13500    24149518.00000000 15567498.00000000 38769088.00000000 8159.02636719   825147.31250000 657622.25000000 
0.13600    23880596.00000000 15402399.00000000 38347152.00000000 7968.52978516   808934.93750000 644732.43750000 
0.13700    23608050.00000000 15234807.00000000 37919612.00000000 7780.13769531   792752.50000000 631867.06250000 
0.13800    23332238.00000000 15064793.00000000 37486376.00000000 7593.83544922   776608.12500000 619018.06250000 
0.13900    23053342.00000000 14892608.00000000 37047892.00000000 7409.95996094   760521.43750000 606219.12500000 
0.14000    22771416.00000000 14718364.00000000 36604432.00000000 7228.55273438   744500.81250000 593462.18750000 
0.14100    22486534.00000000 14541878.00000000 36155828.00000000 7049.69873047   728559.81250000 580767.43750000 
0.14200    22199124.00000000 14363492.00000000 35702784.00000000 6873.58984375   712709.68750000 568135.43750000 
0.14300    21909292.00000000 14183270.00000000 35245216.00000000 6700.30615234   696965.62500000 555585.06250000 
0.14400    21617162.00000000 14001220.00000000 34784152.00000000 6529.92822266   681337.12500000 543125.62500000 
0.14500    21323124.00000000 13817735.00000000 34319328.00000000 6362.73193359   665841.06250000 530764.18750000 
0.14600    21027142.00000000 13632725.00000000 33851112.00000000 6198.70898438   650494.31250000 518515.59375000 
0.14700    20729772.00000000 13446436.00000000 33380216.00000000 6037.83691406   635301.87500000 506383.09375000 
0.14800    20430958.00000000 13259025.00000000 32906992.00000000 5880.31835938   620266.87500000 494381.06250000 
0.14900    20131302.00000000 13070659.00000000 32431574.00000000 5726.24365234   605423.68750000 482512.06250000 
0.15000    19830794.00000000 12881447.00000000 31954528.00000000 5575.68066406   590768.93750000 470793.06250000 
0.15100    19529638.00000000 12691568.00000000 31476002.00000000 5428.55810547   576306.62500000 459229.78125000 
0.15200    19228300.00000000 12501193.00000000 30997062.00000000 5285.09619141   562066.25000000 447833.93750000 
0.15300    18927046.00000000 12310469.00000000 30517302.00000000 5145.22070312   548037.06250000 436603.34375000 
0.15400    18625840.00000000 12119503.00000000 30037612.00000000 5009.00390625   534237.43750000 425552.12500000 
0.15500    18325296.00000000 11928689.00000000 29558460.00000000 4876.47265625   520672.59375000 414683.12500000 
0.15600    18025226.00000000 11737914.00000000 29080062.00000000 4747.55371094   507350.37500000 404003.62500000 
0.15700    17726384.00000000 11547559.00000000 28602708.00000000 4622.35937500   494281.03125000 393523.65625000 
0.15800    17428688.00000000 11357472.00000000 28126862.00000000 4500.75537109   481463.53125000 383242.59375000 
0.15900    17132198.00000000 11168161.00000000 27653164.00000000 4382.85107422   468907.21875000 373161.78125000 
0.16000    16837506.00000000 10979525.00000000 27181644.00000000 4268.48730469   456616.78125000 363292.84375000 
0.16100    16545066.00000000 10791889.00000000 26712848.00000000 4157.80126953   444594.78125000 353635.28125000 
0.16200    16254308.00000000 10605239.00000000 26246814.00000000 4050.62695312   432844.15625000 344190.81250000 
0.16300    15966155.00000000 10419896.00000000 25784318.00000000 3946.92138672   421366.93750000 334962.65625000 
0.16400    15680116.00000000 10235621.00000000 25325328.00000000 3846.68432617   410164.28125000 325952.03125000 
0.16500    15396978.00000000 10053089.00000000 24870318.00000000 3749.77270508   399235.81250000 317157.71875000 
0.16600    15116582.00000000 9871928.00000000 24419738.00000000 3656.23291016   388585.68750000 308585.34375000 
0.16700    14839142.00000000 9692441.00000000 23973296.00000000 3565.90161133   378204.09375000 300225.40625000 
0.16800    14564818.00000000 9514746.00000000 23531880.00000000 3478.68530273   368099.28125000 292087.71875000 
0.16900    14293825.00000000 9339049.00000000 23095188.00000000 3394.62182617   358270.43750000 284162.71875000 
0.17000    14026274.00000000 9165215.00000000 22663630.00000000 3313.52465820   348710.25000000 276452.06250000 
