# SAXS profile: number of points = 501, q_min = 0, q_max = 0.5, delta_q = 0.001
#    q    intensity 
0.00000    162236128.00000000 101201288.00000000 256272032.00000000 103677.84375000 8202569.50000000 6478396.00000000 
0.00100    162210784.00000000 101185216.00000000 256229344.00000000 103654.02343750 8200921.00000000 6477081.00000000 
0.00200    162132432.00000000 101136072.00000000 256104944.00000000 103581.86718750 8195974.50000000 6473222.00000000 
0.00300    162001952.00000000 101054240.00000000 255896544.00000000 103461.90625000 8187806.50000000 6466788.00000000 
0.00400    161815984.00000000 100940256.00000000 255604832.00000000 103294.00781250 8176258.00000000 6457757.50000000 
0.00500    161576112.00000000 100793512.00000000 255228480.00000000 103079.01562500 8161537.50000000 6446226.50000000 
0.00600    161282288.00000000 100614664.00000000 254772368.00000000 102815.86718750 8143521.00000000 6432037.00000000 
0.00700    160937184.00000000 100402888.00000000 254230480.00000000 102507.13281250 8122329.00000000 6415437.00000000 
0.00800    160539920.00000000 100159904.00000000 253610032.00000000 102150.71875000 8097888.50000000 6396299.00000000 
0.00900    160088144.00000000 99885728.00000000 252908512.00000000 101749.36718750 8070296.50000000 6374679.50000000 
0.01000    159586864.00000000 99580416.00000000 252127264.00000000 101302.38281250 8039611.50000000 6350614.50000000 
0.01100    159036336.00000000 99243784.00000000 251264048.00000000 100810.88281250 8005827.50000000 6324090.00000000 
0.01200    158437536.00000000 98876320.00000000 250325504.00000000 100274.67968750 7969009.50000000 6295219.00000000 
0.01300    157788656.00000000 98478864.00000000 249308688.00000000 99696.16406250  7929148.00000000 6263982.00000000 
0.01400    157090576.00000000 98050864.00000000 248215584.00000000 99074.30468750  7886350.00000000 6230427.00000000 
0.01500    156343440.00000000 97593528.00000000 247046656.00000000 98411.31250000  7840694.00000000 6194605.00000000 
0.01600    155549232.00000000 97107432.00000000 245804768.00000000 97707.37500000  7792163.00000000 6156498.00000000 
0.01700    154708544.00000000 96592472.00000000 244489008.00000000 96963.64062500  7740829.00000000 6116256.50000000 
0.01800    153822864.00000000 96049984.00000000 243102608.00000000 96181.15625000  7686793.50000000 6073862.50000000 
0.01900    152893088.00000000 95480632.00000000 241647024.00000000 95361.75000000  7630084.00000000 6029390.00000000 
0.02000    151917760.00000000 94884048.00000000 240122176.00000000 94504.82812500  7570793.00000000 5982870.00000000 
0.02100    150902448.00000000 94261136.00000000 238530320.00000000 93613.05468750  7508996.00000000 5934381.50000000 
0.02200    149842976.00000000 93612440.00000000 236872576.00000000 92686.90625000  7444705.00000000 5883974.50000000 
0.02300    148745072.00000000 92939544.00000000 235153312.00000000 91727.62500000  7378111.50000000 5831687.00000000 
0.02400    147607936.00000000 92241640.00000000 233370480.00000000 90736.67187500  7309181.50000000 5777612.00000000 
0.02500    146430656.00000000 91520464.00000000 231528928.00000000 89715.29687500  7238061.00000000 5721812.00000000 
0.02600    145217024.00000000 90776656.00000000 229629680.00000000 88664.64062500  7164853.50000000 5664302.50000000 
0.02700    143967760.00000000 90010992.00000000 227670432.00000000 87586.78906250  7089543.00000000 5605236.00000000 
0.02800    142684112.00000000 89223400.00000000 225660432.00000000 86482.20312500  7012291.50000000 5544578.00000000 
0.02900    141366368.00000000 88415168.00000000 223596720.00000000 85352.84375000  6933181.00000000 5482502.00000000 
0.03000    140016704.00000000 87587872.00000000 221483712.00000000 84199.31250000  6852280.00000000 5418974.50000000 
0.03100    138636816.00000000 86740048.00000000 219319968.00000000 83024.46875000  6769728.50000000 5354125.50000000 
0.03200    137227744.00000000 85875008.00000000 217111296.00000000 81828.96093750  6685525.50000000 5288040.00000000 
0.03300    135789792.00000000 84992344.00000000 214857984.00000000 80614.14062500  6599872.50000000 5220765.50000000 
0.03400    134325488.00000000 84092040.00000000 212562736.00000000 79380.92968750  6512793.50000000 5152373.00000000 
0.03500    132835952.00000000 83177776.00000000 210228000.00000000 78132.60156250  6424398.00000000 5082913.50000000 
0.03600    131322272.00000000 82247800.00000000 207853360.00000000 76869.09375000  6334749.50000000 5012492.00000000 
0.03700    129786432.00000000 81303440.00000000 205445744.00000000 75592.17968750  6244012.50000000 4941197.00000000 
0.03800    128228696.00000000 80346144.00000000 203003280.00000000 74303.70312500  6152226.00000000 4869063.00000000 
0.03900    126651688.00000000 79376112.00000000 200529968.00000000 73004.70312500  6059498.00000000 4796222.00000000 
0.04000    125055968.00000000 78394248.00000000 198026688.00000000 71696.82812500  5965948.50000000 4722683.50000000 
0.04100    123443776.00000000 77402808.00000000 195496928.00000000 70381.62500000  5871642.50000000 4648529.00000000 
0.04200    121815680.00000000 76400888.00000000 192942160.00000000 69060.31250000  5776676.00000000 4573888.00000000 
0.04300    120173648.00000000 75390112.00000000 190365920.00000000 67735.03125000  5681159.00000000 4498769.50000000 
0.04400    118518680.00000000 74371688.00000000 187768576.00000000 66406.21875000  5585179.00000000 4423297.00000000 
0.04500    116852680.00000000 73345544.00000000 185153648.00000000 65075.83203125  5488814.00000000 4347513.50000000 
0.04600    115176400.00000000 72312784.00000000 182522096.00000000 63744.95312500  5392137.00000000 4271467.00000000 
0.04700    113492056.00000000 71274240.00000000 179875328.00000000 62414.87890625  5295277.50000000 4195262.50000000 
0.04800    111800200.00000000 70230664.00000000 177218608.00000000 61087.06640625  5198327.50000000 4118954.50000000 
0.04900    110102824.00000000 69183720.00000000 174552224.00000000 59762.72265625  5101357.50000000 4042619.75000000 
0.05000    108399968.00000000 68133832.00000000 171878816.00000000 58443.22265625  5004395.50000000 3966316.75000000 
0.05100    106694832.00000000 67081044.00000000 169199232.00000000 57129.62109375  4907596.00000000 3890120.00000000 
0.05200    104987680.00000000 66026936.00000000 166514944.00000000 55823.13281250  4811045.50000000 3814068.25000000 
0.05300    103280184.00000000 64972148.00000000 163830800.00000000 54524.83203125  4714763.00000000 3738249.00000000 
0.05400    101573016.00000000 63917216.00000000 161146016.00000000 53236.03906250  4618866.50000000 3662722.50000000 
0.05500    99867424.00000000 62862924.00000000 158465248.00000000 51957.81250000  4523449.50000000 3587532.75000000 
0.05600    98164784.00000000 61810440.00000000 155787248.00000000 50690.33593750  4428552.00000000 3512736.50000000 
0.05700    96467632.00000000 60760212.00000000 153116304.00000000 49436.05078125  4334205.50000000 3438412.75000000 
0.05800    94774896.00000000 59712672.00000000 150452800.00000000 48194.91796875  4240593.50000000 3364599.25000000 
0.05900    93088504.00000000 58668644.00000000 147797680.00000000 46967.77343750  4147667.75000000 3291300.50000000 
0.06000    91409192.00000000 57628860.00000000 145156048.00000000 45755.94921875  4055532.25000000 3218684.75000000 
0.06100    89739440.00000000 56594480.00000000 142527056.00000000 44559.76171875  3964282.00000000 3146688.25000000 
0.06200    88079328.00000000 55565328.00000000 139912496.00000000 43380.39843750  3873897.50000000 3075398.75000000 
0.06300    86429976.00000000 54542808.00000000 137315152.00000000 42218.33984375  3784518.00000000 3004877.25000000 
0.06400    84791984.00000000 53526408.00000000 134734352.00000000 41074.48437500  3696151.00000000 2935096.50000000 
0.06500    83165976.00000000 52517496.00000000 132173544.00000000 39949.12890625  3608851.25000000 2866171.50000000 
0.06600    81553832.00000000 51516296.00000000 129633104.00000000 38842.86718750  3522649.25000000 2798131.50000000 
0.06700    79956648.00000000 50524000.00000000 127114240.00000000 37756.47265625  3437633.50000000 2730979.25000000 
0.06800    78373656.00000000 49540616.00000000 124619064.00000000 36690.28906250  3353805.25000000 2664756.50000000 
0.06900    76806824.00000000 48566664.00000000 122147440.00000000 35644.49609375  3271216.00000000 2599477.75000000 
0.07000    75257216.00000000 47602352.00000000 119702448.00000000 34619.94531250  3189909.50000000 2535229.25000000 
0.07100    73724576.00000000 46648628.00000000 117283872.00000000 33616.47265625  3109904.25000000 2471976.25000000 
0.07200    72209944.00000000 45705520.00000000 114893224.00000000 32634.84765625  3031229.75000000 2409753.50000000 
0.07300    70713856.00000000 44773600.00000000 112531664.00000000 31675.22265625  2953943.50000000 2348625.25000000 
0.07400    69237040.00000000 43853144.00000000 110200072.00000000 30737.56445312  2878055.75000000 2288581.00000000 
0.07500    67780032.00000000 42944776.00000000 107899072.00000000 29822.23242188  2803556.75000000 2229608.00000000 
0.07600    66343508.00000000 42048736.00000000 105629352.00000000 28929.16210938  2730491.50000000 2171795.50000000 
0.07700    64927644.00000000 41165044.00000000 103391824.00000000 28058.61914062  2658888.25000000 2115079.50000000 
0.07800    63533016.00000000 40294028.00000000 101187720.00000000 27210.52734375  2588741.75000000 2059527.25000000 
0.07900    62159800.00000000 39436344.00000000 99017608.00000000 26384.95507812  2520072.00000000 2005124.50000000 
0.08000    60809044.00000000 38591956.00000000 96880824.00000000 25581.88867188  2452903.75000000 1951903.87500000 
0.08100    59480500.00000000 37761236.00000000 94779760.00000000 24801.23437500  2387208.50000000 1899811.25000000 
0.08200    58174632.00000000 36944024.00000000 92713472.00000000 24042.78710938  2323011.00000000 1848917.87500000 
0.08300    56891528.00000000 36140656.00000000 90682488.00000000 23306.45312500  2260323.25000000 1799190.00000000 
0.08400    55631496.00000000 35351932.00000000 88688304.00000000 22592.26171875  2199132.75000000 1750644.62500000 
0.08500    54395280.00000000 34576864.00000000 86730512.00000000 21899.78125000  2139435.00000000 1703264.75000000 
0.08600    53182340.00000000 33816100.00000000 84809528.00000000 21228.85351562  2081212.37500000 1657058.00000000 
0.08700    51992944.00000000 33070076.00000000 82924872.00000000 20579.12890625  2024501.62500000 1612005.50000000 
0.08800    50827084.00000000 32338536.00000000 81077896.00000000 19950.51953125  1969250.12500000 1568130.50000000 
0.08900    49685464.00000000 31621526.00000000 79267984.00000000 19342.47265625  1915473.37500000 1525397.25000000 
0.09000    48567672.00000000 30919056.00000000 77495768.00000000 18754.85546875  1863138.12500000 1483812.12500000 
0.09100    47473132.00000000 30231274.00000000 75760792.00000000 18186.97265625  1812266.37500000 1443352.37500000 
0.09200    46402796.00000000 29558002.00000000 74062144.00000000 17639.03125000  1762796.50000000 1404025.00000000 
0.09300    45356312.00000000 28899516.00000000 72402008.00000000 17110.22656250  1714762.00000000 1365799.50000000 
0.09400    44332952.00000000 28255372.00000000 70778184.00000000 16600.12109375  1668090.00000000 1328665.37500000 
0.09500    43333716.00000000 27625856.00000000 69191320.00000000 16108.50488281  1622804.50000000 1292615.50000000 
0.09600    42357780.00000000 27010714.00000000 67641616.00000000 15634.75488281  1578864.00000000 1257632.25000000 
0.09700    41405112.00000000 26409896.00000000 66128496.00000000 15178.46386719  1536248.62500000 1223682.12500000 
0.09800    40475736.00000000 25823652.00000000 64651808.00000000 14739.33300781  1494942.75000000 1190773.37500000 
0.09900    39569280.00000000 25251538.00000000 63210964.00000000 14316.82519531  1454910.12500000 1158868.12500000 
0.10000    38685140.00000000 24693126.00000000 61806140.00000000 13910.24414062  1416128.25000000 1127962.75000000 
0.10100    37823896.00000000 24148770.00000000 60436308.00000000 13519.19726562  1378586.75000000 1098017.87500000 
0.10200    36984580.00000000 23618358.00000000 59101784.00000000 13143.34277344  1342242.87500000 1069033.25000000 
0.10300    36166992.00000000 23101368.00000000 57801312.00000000 12781.99121094  1307066.00000000 1040964.68750000 
0.10400    35371180.00000000 22597856.00000000 56534924.00000000 12434.85546875  1273046.87500000 1013806.68750000 
0.10500    34597112.00000000 22107566.00000000 55302644.00000000 12101.40820312  1240136.37500000 987535.25000000 
0.10600    33843188.00000000 21630278.00000000 54103104.00000000 11780.93945312  1208305.50000000 962125.81250000 
0.10700    33110282.00000000 21166014.00000000 52936032.00000000 11473.15625000  1177541.75000000 937553.75000000 
0.10800    32397490.00000000 20714514.00000000 51801544.00000000 11177.45117188  1147805.50000000 913792.87500000 
0.10900    31705012.00000000 20275240.00000000 50698132.00000000 10893.36035156  1119073.00000000 890828.31250000 
0.11000    31031826.00000000 19848200.00000000 49625684.00000000 10620.54980469  1091301.75000000 868638.06250000 
0.11100    30378228.00000000 19433280.00000000 48583708.00000000 10358.31835938  1064479.25000000 847187.68750000 
0.11200    29742940.00000000 19029942.00000000 47571556.00000000 10106.31738281  1038547.81250000 826465.43750000 
0.11300    29126222.00000000 18638240.00000000 46588300.00000000 9864.05957031   1013505.00000000 806433.50000000 
0.11400    28527360.00000000 18257762.00000000 45633500.00000000 9631.12597656   989316.00000000 787086.62500000 
0.11500    27946350.00000000 17888354.00000000 44706940.00000000 9407.00878906   965943.81250000 768389.81250000 
0.11600    27382330.00000000 17529774.00000000 43807300.00000000 9191.28125000   943362.12500000 750318.37500000 
0.11700    26835050.00000000 17181768.00000000 42934236.00000000 8983.58789062   921541.87500000 732858.06250000 
0.11800    26303984.00000000 16843968.00000000 42087032.00000000 8783.36035156   900448.18750000 715972.25000000 
0.11900    25788858.00000000 16516212.00000000 41264980.00000000 8590.37695312   880056.81250000 699656.18750000 
0.12000    25289008.00000000 16198169.00000000 40467640.00000000 8404.14648438   860335.37500000 683879.87500000 
0.12100    24804560.00000000 15889642.00000000 39694160.00000000 8224.37597656   841275.25000000 668617.18750000 
0.12200    24334362.00000000 15590359.00000000 38943748.00000000 8050.58349609   822831.37500000 653849.93750000 
0.12300    23878664.00000000 15300134.00000000 38216176.00000000 7882.50292969   804978.50000000 639563.37500000 
0.12400    23436372.00000000 15018496.00000000 37510424.00000000 7719.74511719   787694.87500000 625727.50000000 
0.12500    23007590.00000000 14745316.00000000 36825860.00000000 7561.98876953   770946.06250000 612326.81250000 
0.12600    22591638.00000000 14480295.00000000 36161856.00000000 7409.01708984   754729.31250000 599348.81250000 
0.12700    22188188.00000000 14223291.00000000 35517784.00000000 7260.38232422   738995.43750000 586757.43750000 
0.12800    21796908.00000000 13973930.00000000 34892968.00000000 7115.93652344   723738.00000000 574552.50000000 
0.12900    21417226.00000000 13731967.00000000 34286768.00000000 6975.33251953   708926.50000000 562702.93750000 
0.13000    21048690.00000000 13497283.00000000 33698200.00000000 6838.40429688   694548.06250000 551200.25000000 
0.13100    20691004.00000000 13269358.00000000 33127170.00000000 6704.75634766   680567.12500000 540021.25000000 
0.13200    20343710.00000000 13048158.00000000 32572830.00000000 6574.26123047   666973.50000000 529152.25000000 
0.13300    20006782.00000000 12833430.00000000 32034834.00000000 6446.75048828   653747.93750000 518577.62500000 
0.13400    19679302.00000000 12624859.00000000 31511982.00000000 6321.93750000   640867.18750000 508282.90625000 
0.13500    19361216.00000000 12422355.00000000 31004304.00000000 6199.72363281   628313.25000000 498257.06250000 
0.13600    19052138.00000000 12225417.00000000 30510788.00000000 6079.84570312   616073.81250000 488478.78125000 
0.13700    18751664.00000000 12034122.00000000 30031248.00000000 5962.17822266   604119.43750000 478935.90625000 
0.13800    18459342.00000000 11848085.00000000 29564806.00000000 5846.57324219   592455.12500000 469621.75000000 
0.13900    18174962.00000000 11667060.00000000 29110994.00000000 5732.87548828   581046.18750000 460523.37500000 
0.14000    17898100.00000000 11490960.00000000 28669472.00000000 5621.02929688   569892.62500000 451624.12500000 
0.14100    17628548.00000000 11319464.00000000 28239374.00000000 5510.87451172   558973.00000000 442917.18750000 
0.14200    17365884.00000000 11152378.00000000 27820400.00000000 5402.32080078   548275.87500000 434385.06250000 
0.14300    17109800.00000000 10989663.00000000 27411962.00000000 5295.26708984   537786.87500000 426029.62500000 
0.14400    16860006.00000000 10830864.00000000 27013744.00000000 5189.59716797   527497.62500000 417832.75000000 
0.14500    16616271.00000000 10676040.00000000 26625364.00000000 5085.29199219   517399.65625000 409788.59375000 
0.14600    16378343.00000000 10524902.00000000 26246006.00000000 4982.26123047   507477.71875000 401888.31250000 
0.14700    16145963.00000000 10377340.00000000 25875610.00000000 4880.45507812   497727.53125000 394129.09375000 
0.14800    15918659.00000000 10233105.00000000 25513406.00000000 4779.84863281   488133.90625000 386496.65625000 
0.14900    15696326.00000000 10092042.00000000 25159244.00000000 4680.39453125   478691.50000000 378985.46875000 
0.15000    15478745.00000000 9953959.00000000 24812590.00000000 4582.00878906   469395.25000000 371594.25000000 
0.15100    15265639.00000000 9818856.00000000 24473212.00000000 4484.73046875   460237.90625000 364314.28125000 
0.15200    15056932.00000000 9686515.00000000 24140716.00000000 4388.56347656   451212.71875000 357137.53125000 
0.15300    14852074.00000000 9556702.00000000 23814636.00000000 4293.43701172   442310.37500000 350064.87500000 
0.15400    14651148.00000000 9429390.00000000 23494754.00000000 4199.34033203   433524.25000000 343086.50000000 
0.15500    14453765.00000000 9304432.00000000 23180654.00000000 4106.29052734   424858.81250000 336201.78125000 
0.15600    14259873.00000000 9181634.00000000 22872078.00000000 4014.30786133   416297.46875000 329403.93750000 
0.15700    14069313.00000000 9061067.00000000 22568950.00000000 3923.37060547   407849.18750000 322692.71875000 
0.15800    13881793.00000000 8942278.00000000 22270490.00000000 3833.49414062   399497.18750000 316065.81250000 
0.15900    13697267.00000000 8825522.00000000 21976810.00000000 3744.73364258   391247.28125000 309515.71875000 
0.16000    13515343.00000000 8710531.00000000 21687466.00000000 3657.00927734   383091.93750000 303043.65625000 
0.16100    13336327.00000000 8597099.00000000 21402678.00000000 3570.49267578   375038.78125000 296649.78125000 
0.16200    13159702.00000000 8485405.00000000 21121608.00000000 3485.06079102   367072.03125000 290328.87500000 
0.16300    12985231.00000000 8375157.00000000 20844320.00000000 3400.80322266   359195.84375000 284076.78125000 
0.16400    12813220.00000000 8266346.50000000 20570758.00000000 3317.73193359   351410.59375000 277901.68750000 
0.16500    12643298.00000000 8158852.50000000 20300442.00000000 3235.86572266   343716.65625000 271790.56250000 
0.16600    12475375.00000000 8052693.00000000 20033334.00000000 3155.23388672   336104.87500000 265749.90625000 
0.16700    12309299.00000000 7947616.50000000 19769294.00000000 3075.85253906   328579.15625000 259778.25000000 
0.16800    12145036.00000000 7843726.00000000 19507850.00000000 2997.76098633   321140.81250000 253872.53125000 
0.16900    11982649.00000000 7740979.00000000 19249478.00000000 2921.02197266   313787.53125000 248036.92187500 
0.17000    11821731.00000000 7639210.00000000 18993622.00000000 2845.58471680   306521.90625000 242266.37500000 
