# SAXS profile: number of points = 501, q_min = 0, q_max = 0.5, delta_q = 0.001
#    q    intensity 
0.00000    162233008.00000000 101201952.00000000 256270256.00000000 102928.82031250 8172896.50000000 6454948.00000000 
0.00100    162198656.00000000 101178760.00000000 256210928.00000000 102897.57031250 8170699.00000000 6453228.50000000 
0.00200    162091392.00000000 101109056.00000000 256035552.00000000 102805.67968750 8164171.50000000 6448070.50000000 
0.00300    161906448.00000000 100992864.00000000 255740912.00000000 102652.40625000 8153308.50000000 6439496.00000000 
0.00400    161642784.00000000 100831744.00000000 255328416.00000000 102437.64843750 8138084.50000000 6427502.50000000 
0.00500    161305888.00000000 100624024.00000000 254800272.00000000 102163.50000000 8118561.00000000 6412133.00000000 
0.00600    160895712.00000000 100370104.00000000 254155488.00000000 101828.08593750 8094780.50000000 6393450.50000000 
0.00700    160412528.00000000 100071712.00000000 253398032.00000000 101434.74218750 8066783.00000000 6371412.00000000 
0.00800    159854208.00000000 99729096.00000000 252524912.00000000 100983.53125000 8034697.50000000 6346120.00000000 
0.00900    159228928.00000000 99342600.00000000 251541696.00000000 100474.37500000 7998448.50000000 6317598.00000000 
0.01000    158533856.00000000 98914040.00000000 250449584.00000000 99908.46875000  7958212.00000000 6285947.00000000 
0.01100    157771408.00000000 98441744.00000000 249247696.00000000 99288.01562500  7913994.00000000 6251143.00000000 
0.01200    156940576.00000000 97927040.00000000 247939024.00000000 98614.03125000  7865929.00000000 6213242.00000000 
0.01300    156041136.00000000 97372376.00000000 246527520.00000000 97886.86718750  7814077.00000000 6172497.50000000 
0.01400    155077856.00000000 96776344.00000000 245014848.00000000 97109.56250000  7758552.50000000 6128760.50000000 
0.01500    154053888.00000000 96143312.00000000 243401904.00000000 96283.25781250  7699472.50000000 6082247.00000000 
0.01600    152966672.00000000 95471424.00000000 241693216.00000000 95408.76562500  7636979.50000000 6033006.00000000 
0.01700    151819952.00000000 94762904.00000000 239890704.00000000 94489.49218750  7571106.50000000 5981136.00000000 
0.01800    150616064.00000000 94018752.00000000 237997664.00000000 93525.20312500  7501999.50000000 5926734.00000000 
0.01900    149357808.00000000 93239920.00000000 236016304.00000000 92519.69531250  7429794.00000000 5869861.50000000 
0.02000    148044560.00000000 92427592.00000000 233952624.00000000 91474.48437500  7354630.00000000 5810661.00000000 
0.02100    146679760.00000000 91583856.00000000 231806576.00000000 90390.50000000  7276662.00000000 5749274.50000000 
0.02200    145267824.00000000 90709848.00000000 229582176.00000000 89271.19531250  7196002.00000000 5685723.00000000 
0.02300    143807088.00000000 89805184.00000000 227284032.00000000 88118.70312500  7112765.50000000 5620163.00000000 
0.02400    142301104.00000000 88873800.00000000 224915168.00000000 86934.31250000  7027152.50000000 5552760.50000000 
0.02500    140753840.00000000 87915728.00000000 222481200.00000000 85721.61718750  6939320.00000000 5483529.50000000 
0.02600    139165904.00000000 86932280.00000000 219982272.00000000 84480.90625000  6849314.50000000 5412655.00000000 
0.02700    137542048.00000000 85925672.00000000 217423664.00000000 83216.03125000  6757443.00000000 5340258.50000000 
0.02800    135881248.00000000 84897272.00000000 214810384.00000000 81928.85937500  6663700.00000000 5266412.50000000 
0.02900    134188456.00000000 83847664.00000000 212144608.00000000 80621.45312500  6568393.00000000 5191257.00000000 
0.03000    132465304.00000000 82780736.00000000 209432304.00000000 79296.50781250  6471539.50000000 5114938.00000000 
0.03100    130714504.00000000 81694728.00000000 206674128.00000000 77956.00781250  6373337.50000000 5037567.00000000 
0.03200    128938048.00000000 80592624.00000000 203876880.00000000 76601.77343750  6274044.00000000 4959263.50000000 
0.03300    127139368.00000000 79477208.00000000 201043664.00000000 75237.35937500  6173682.00000000 4880147.50000000 
0.03400    125320400.00000000 78349016.00000000 198177456.00000000 73863.74218750  6072450.00000000 4800340.00000000 
0.03500    123483920.00000000 77209600.00000000 195284016.00000000 72483.52343750  5970472.00000000 4719965.00000000 
0.03600    121631432.00000000 76061032.00000000 192366752.00000000 71099.59375000  5867969.00000000 4639165.00000000 
0.03700    119767160.00000000 74903384.00000000 189427984.00000000 69712.60937500  5765001.00000000 4557958.50000000 
0.03800    117891280.00000000 73738568.00000000 186470720.00000000 68325.78125000  5661744.50000000 4476514.00000000 
0.03900    116008480.00000000 72568576.00000000 183503184.00000000 66939.63281250  5558369.50000000 4394990.50000000 
0.04000    114118888.00000000 71393904.00000000 180524272.00000000 65557.99218750  5454965.00000000 4313447.50000000 
0.04100    112226528.00000000 70217920.00000000 177541344.00000000 64181.86718750  5351709.00000000 4231969.00000000 
0.04200    110331912.00000000 69040560.00000000 174554288.00000000 62812.51562500  5248703.00000000 4150658.75000000 
0.04300    108438992.00000000 67863408.00000000 171567376.00000000 61452.23437500  5146050.50000000 4069651.50000000 
0.04400    106549464.00000000 66687604.00000000 168586544.00000000 60102.76562500  5043925.50000000 3989094.50000000 
0.04500    104664416.00000000 65515116.00000000 165613424.00000000 58765.35156250  4942388.00000000 3908953.25000000 
0.04600    102787056.00000000 64346336.00000000 162650720.00000000 57441.73437500  4841600.00000000 3829397.25000000 
0.04700    100918744.00000000 63182764.00000000 159702384.00000000 56132.78125000  4741642.00000000 3750487.75000000 
0.04800    99060832.00000000 62025732.00000000 156769184.00000000 54840.17187500  4642636.50000000 3672326.50000000 
0.04900    97216120.00000000 60876384.00000000 153857152.00000000 53565.81250000  4544675.00000000 3594947.25000000 
0.05000    95386056.00000000 59735936.00000000 150966624.00000000 52310.01562500  4447781.50000000 3518438.25000000 
0.05100    93570856.00000000 58604568.00000000 148102208.00000000 51073.55078125  4352133.50000000 3442921.50000000 
0.05200    91773712.00000000 57484432.00000000 145262704.00000000 49857.94531250  4257695.50000000 3368357.25000000 
0.05300    89995096.00000000 56375144.00000000 142454032.00000000 48664.28515625  4164713.00000000 3294858.25000000 
0.05400    88237232.00000000 55278848.00000000 139678176.00000000 47492.78125000  4073104.25000000 3222502.25000000 
0.05500    86501528.00000000 54195304.00000000 136935968.00000000 46344.19531250  3982961.50000000 3151302.00000000 
0.05600    84789456.00000000 53125924.00000000 134228816.00000000 45219.21093750  3894375.00000000 3081298.00000000 
0.05700    83099936.00000000 52071028.00000000 131560200.00000000 44118.60546875  3807410.75000000 3012548.00000000 
0.05800    81435880.00000000 51032152.00000000 128930064.00000000 43042.33984375  3722042.00000000 2945094.00000000 
0.05900    79798080.00000000 50009156.00000000 126340344.00000000 41991.14062500  3638352.50000000 2878930.50000000 
0.06000    78187056.00000000 49002332.00000000 123793928.00000000 40964.69921875  3556354.25000000 2814123.00000000 
0.06100    76603680.00000000 48012660.00000000 121290344.00000000 39964.21093750  3476125.50000000 2750676.75000000 
0.06200    75048360.00000000 47040808.00000000 118831312.00000000 38988.48046875  3397611.25000000 2688635.00000000 
0.06300    73522592.00000000 46086532.00000000 116417480.00000000 38038.48437500  3320889.50000000 2627949.75000000 
0.06400    72026248.00000000 45150608.00000000 114050928.00000000 37114.01171875  3245922.50000000 2568683.00000000 
0.06500    70558856.00000000 44233140.00000000 111730288.00000000 36214.69140625  3172776.00000000 2510835.75000000 
0.06600    69123024.00000000 43334748.00000000 109459008.00000000 35340.53906250  3101427.50000000 2454393.25000000 
0.06700    67717312.00000000 42454928.00000000 107234864.00000000 34491.17578125  3031835.75000000 2399372.75000000 
0.06800    66342576.00000000 41594300.00000000 105059240.00000000 33666.22656250  2964037.00000000 2345755.75000000 
0.06900    64998408.00000000 40753360.00000000 102933184.00000000 32865.98437500  2898025.25000000 2293551.50000000 
0.07000    63685632.00000000 39931620.00000000 100855680.00000000 32088.94921875  2833743.25000000 2242697.50000000 
0.07100    62403540.00000000 39129068.00000000 98826624.00000000 31335.47070312  2771239.00000000 2193251.25000000 
0.07200    61153000.00000000 38345720.00000000 96847504.00000000 30605.08984375  2710410.25000000 2145136.50000000 
0.07300    59932948.00000000 37582304.00000000 94917320.00000000 29896.64648438  2651298.25000000 2098377.00000000 
0.07400    58743604.00000000 36837668.00000000 93035432.00000000 29210.29492188  2593868.50000000 2052956.12500000 
0.07500    57584716.00000000 36112740.00000000 91201976.00000000 28545.03125000  2538040.50000000 2008815.87500000 
0.07600    56456032.00000000 35405944.00000000 89415816.00000000 27900.17968750  2483838.00000000 1965911.50000000 
0.07700    55357152.00000000 34718548.00000000 87677096.00000000 27275.58398438  2431195.75000000 1924260.37500000 
0.07800    54287920.00000000 34049324.00000000 85985608.00000000 26670.07226562  2380065.75000000 1883819.87500000 
0.07900    53247436.00000000 33398664.00000000 84339264.00000000 26082.93945312  2330422.75000000 1844563.87500000 
0.08000    52235744.00000000 32765876.00000000 82739136.00000000 25514.01953125  2282229.75000000 1806460.00000000 
0.08100    51251892.00000000 32150752.00000000 81182968.00000000 24962.25976562  2235428.00000000 1769470.87500000 
0.08200    50295500.00000000 31553032.00000000 79670848.00000000 24426.85937500  2190029.25000000 1733550.87500000 
0.08300    49366352.00000000 30972084.00000000 78201136.00000000 23907.39062500  2145914.00000000 1698666.50000000 
0.08400    48463080.00000000 30408034.00000000 76773480.00000000 23403.01171875  2103056.25000000 1664806.00000000 
0.08500    47585544.00000000 29860218.00000000 75387104.00000000 22913.29882812  2061435.62500000 1631907.62500000 
0.08600    46733052.00000000 29328400.00000000 74039712.00000000 22437.18164062  2021005.75000000 1599948.50000000 
0.08700    45905052.00000000 28811916.00000000 72731864.00000000 21974.08984375  1981713.62500000 1568888.50000000 
0.08800    45100076.00000000 28310386.00000000 71462000.00000000 21523.57617188  1943492.37500000 1538690.62500000 
0.08900    44318684.00000000 27823608.00000000 70227696.00000000 21084.83789062  1906307.00000000 1509326.12500000 
0.09000    43559584.00000000 27351072.00000000 69029640.00000000 20657.16796875  1870117.62500000 1480733.00000000 
0.09100    42821884.00000000 26892452.00000000 67865800.00000000 20240.16210938  1834893.00000000 1452922.87500000 
0.09200    42104844.00000000 26446592.00000000 66734592.00000000 19833.01367188  1800566.12500000 1425815.87500000 
0.09300    41407992.00000000 26014000.00000000 65637028.00000000 19435.54492188  1767104.50000000 1399393.37500000 
0.09400    40730444.00000000 25593422.00000000 64569108.00000000 19046.72265625  1734461.00000000 1373628.25000000 
0.09500    40071884.00000000 25185048.00000000 63531524.00000000 18666.55078125  1702596.37500000 1348482.00000000 
0.09600    39430804.00000000 24788224.00000000 62522548.00000000 18294.10546875  1671480.50000000 1323927.62500000 
0.09700    38807232.00000000 24402124.00000000 61540600.00000000 17929.25000000  1641061.62500000 1299919.25000000 
0.09800    38199628.00000000 24026930.00000000 60586276.00000000 17571.45312500  1611312.87500000 1276461.87500000 
0.09900    37608784.00000000 23661754.00000000 59656196.00000000 17220.26757812  1582187.75000000 1253480.12500000 
0.10000    37032508.00000000 23306292.00000000 58750868.00000000 16875.20117188  1553658.25000000 1230985.50000000 
0.10100    36470824.00000000 22960084.00000000 57868644.00000000 16536.16406250  1525686.87500000 1208932.62500000 
0.10200    35922864.00000000 22622836.00000000 57008648.00000000 16202.67773438  1498267.00000000 1187309.87500000 
0.10300    35388080.00000000 22294106.00000000 56169436.00000000 15874.51757812  1471333.87500000 1166073.62500000 
0.10400    34866464.00000000 21973044.00000000 55350676.00000000 15551.33789062  1444872.12500000 1145212.50000000 
0.10500    34355948.00000000 21660110.00000000 54551156.00000000 15233.07519531  1418887.00000000 1124722.12500000 
0.10600    33857240.00000000 21354214.00000000 53769568.00000000 14919.31835938  1393288.87500000 1104555.37500000 
0.10700    33369170.00000000 21055384.00000000 53005496.00000000 14610.03320312  1368121.12500000 1084707.75000000 
0.10800    32891502.00000000 20763032.00000000 52257412.00000000 14304.88867188  1343322.12500000 1065168.12500000 
0.10900    32423582.00000000 20476936.00000000 51525748.00000000 14003.93066406  1318884.62500000 1045894.68750000 
0.11000    31965018.00000000 20196706.00000000 50808140.00000000 13706.95312500  1294807.00000000 1026908.06250000 
0.11100    31514996.00000000 19921814.00000000 50104644.00000000 13413.80566406  1271049.00000000 1008176.00000000 
0.11200    31073402.00000000 19652554.00000000 49414276.00000000 13124.49902344  1247600.87500000 989687.06250000 
0.11300    30639574.00000000 19388144.00000000 48736436.00000000 12838.92578125  1224461.87500000 971427.87500000 
0.11400    30213270.00000000 19128396.00000000 48070808.00000000 12557.08593750  1201609.87500000 953403.50000000 
0.11500    29794174.00000000 18872972.00000000 47415868.00000000 12278.88183594  1179042.00000000 935593.87500000 
0.11600    29381692.00000000 18621910.00000000 46771864.00000000 12004.33105469  1156748.50000000 917998.31250000 
0.11700    28975738.00000000 18374744.00000000 46137896.00000000 11733.60351562  1134698.50000000 900599.50000000 
0.11800    28575492.00000000 18131362.00000000 45513276.00000000 11466.33398438  1112912.00000000 883404.75000000 
0.11900    28180730.00000000 17891438.00000000 44897416.00000000 11202.82031250  1091385.62500000 866395.62500000 
0.12000    27791750.00000000 17654788.00000000 44290008.00000000 10943.05371094  1070087.75000000 849576.25000000 
0.12100    27407984.00000000 17421376.00000000 43690968.00000000 10687.00976562  1049051.50000000 832948.62500000 
0.12200    27029004.00000000 17190680.00000000 43099616.00000000 10434.79492188  1028241.00000000 816500.68750000 
0.12300    26654702.00000000 16962942.00000000 42515152.00000000 10186.32714844  1007679.06250000 800240.68750000 
0.12400    26284754.00000000 16737984.00000000 41937668.00000000 9941.82714844   987338.06250000 784160.25000000 
0.12500    25919128.00000000 16515368.00000000 41367072.00000000 9701.19335938   967256.62500000 768255.00000000 
0.12600    25557634.00000000 16295266.00000000 40802004.00000000 9464.67675781   947396.37500000 752540.75000000 
0.12700    25199966.00000000 16077168.00000000 40243368.00000000 9232.08105469   927780.31250000 737000.50000000 
0.12800    24846190.00000000 15861416.00000000 39690312.00000000 9003.54589844   908402.75000000 721651.43750000 
0.12900    24495958.00000000 15647723.00000000 39142728.00000000 8779.17871094   889259.93750000 706476.31250000 
0.13000    24149222.00000000 15436021.00000000 38600492.00000000 8559.08593750   870362.06250000 691491.93750000 
0.13100    23805976.00000000 15226071.00000000 38063448.00000000 8343.06347656   851703.18750000 676698.43750000 
0.13200    23465962.00000000 15018124.00000000 37531296.00000000 8131.37646484   833300.37500000 662086.50000000 
0.13300    23129188.00000000 14811755.00000000 37003472.00000000 7923.93017578   815133.75000000 647666.81250000 
0.13400    22795438.00000000 14607284.00000000 36480524.00000000 7720.82763672   797226.81250000 633444.50000000 
0.13500    22464924.00000000 14404290.00000000 35962400.00000000 7522.07373047   779569.81250000 619409.75000000 
0.13600    22137314.00000000 14203068.00000000 35448436.00000000 7327.61132812   762166.75000000 605579.62500000 
0.13700    21812736.00000000 14003355.00000000 34939212.00000000 7137.54541016   745024.25000000 591940.18750000 
0.13800    21491260.00000000 13805243.00000000 34433920.00000000 6951.84423828   728142.25000000 578508.81250000 
0.13900    21172448.00000000 13608616.00000000 33933128.00000000 6770.49365234   711522.56250000 565280.68750000 
0.14000    20856640.00000000 13413422.00000000 33436388.00000000 6593.52783203   695168.31250000 552252.87500000 
0.14100    20543570.00000000 13219882.00000000 32943638.00000000 6420.84863281   679071.43750000 539434.18750000 
0.14200    20233372.00000000 13027776.00000000 32455160.00000000 6252.41357422   663250.18750000 526818.68750000 
0.14300    19926096.00000000 12837213.00000000 31970988.00000000 6088.28613281   647691.93750000 514418.65625000 
0.14400    19621610.00000000 12647979.00000000 31490752.00000000 5928.40869141   632408.93750000 502227.15625000 
0.14500    19320006.00000000 12460281.00000000 31014800.00000000 5772.68261719   617393.18750000 490242.65625000 
0.14600    19021272.00000000 12274146.00000000 30542948.00000000 5621.12988281   602649.18750000 478471.50000000 
0.14700    18725164.00000000 12089463.00000000 30075232.00000000 5473.59765625   588173.87500000 466913.37500000 
0.14800    18432048.00000000 11906203.00000000 29611542.00000000 5330.10791016   573964.87500000 455566.31250000 
0.14900    18141772.00000000 11724538.00000000 29151962.00000000 5190.53662109   560037.18750000 444433.03125000 
0.15000    17854056.00000000 11544384.00000000 28696710.00000000 5054.86328125   546371.12500000 433507.21875000 
0.15100    17569512.00000000 11365627.00000000 28245484.00000000 4922.91455078   532973.00000000 422798.68750000 
0.15200    17287794.00000000 11188614.00000000 27798790.00000000 4794.73925781   519849.15625000 412296.40625000 
0.15300    17009056.00000000 11013064.00000000 27356180.00000000 4670.15136719   506982.40625000 402000.62500000 
0.15400    16733202.00000000 10839047.00000000 26917886.00000000 4549.12011719   494378.31250000 391914.93750000 
0.15500    16460265.00000000 10666757.00000000 26484062.00000000 4431.56250000   482035.96875000 382036.65625000 
0.15600    16190077.00000000 10495889.00000000 26054428.00000000 4317.32324219   469952.53125000 372357.43750000 
0.15700    15923045.00000000 10326840.00000000 25629220.00000000 4206.41455078   458125.62500000 362887.81250000 
0.15800    15658843.00000000 10159259.00000000 25208530.00000000 4098.60791016   446547.50000000 353611.06250000 
0.15900    15397629.00000000 9993372.00000000 24792280.00000000 3993.90332031   435221.90625000 344537.15625000 
0.16000    15139360.00000000 9829222.00000000 24380356.00000000 3892.19384766   424138.78125000 335659.31250000 
0.16100    14884197.00000000 9666703.00000000 23973234.00000000 3793.41455078   413304.93750000 326973.15625000 
0.16200    14631951.00000000 9505918.00000000 23570382.00000000 3697.41040039   402699.15625000 318476.21875000 
0.16300    14382711.00000000 9346860.00000000 23172150.00000000 3604.09521484   392336.15625000 310167.71875000 
0.16400    14136416.00000000 9189569.00000000 22778532.00000000 3513.42968750   382201.18750000 302044.59375000 
0.16500    13893224.00000000 9034025.00000000 22389510.00000000 3425.33593750   372294.21875000 294102.31250000 
0.16600    13653094.00000000 8880245.00000000 22005332.00000000 3339.65185547   362609.81250000 286337.87500000 
0.16700    13415951.00000000 8728158.00000000 21625702.00000000 3256.34765625   353142.03125000 278751.90625000 
0.16800    13181825.00000000 8577973.00000000 21250366.00000000 3175.30859375   343886.78125000 271331.40625000 
0.16900    12950877.00000000 8429579.00000000 20880308.00000000 3096.52880859   334845.18750000 264087.00000000 
0.17000    12722857.00000000 8282933.00000000 20514584.00000000 3019.88720703   326011.50000000 257003.62500000 
