# SAXS profile: number of points = 501, q_min = 0, q_max = 0.5, delta_q = 0.001
#    q    intensity 
0.00000    162237424.00000000 101201792.00000000 256271184.00000000 103854.91406250 8209576.50000000 6483940.00000000 
0.00100    162204224.00000000 101180904.00000000 256216944.00000000 103826.15625000 8207561.50000000 6482333.50000000 
0.00200    162103456.00000000 101117264.00000000 256056144.00000000 103739.39062500 8201500.50000000 6477563.00000000 
0.00300    161932960.00000000 101012000.00000000 255786128.00000000 103596.05468750 8191422.50000000 6469679.50000000 
0.00400    161691728.00000000 100864808.00000000 255410448.00000000 103394.84375000 8177353.50000000 6458609.00000000 
0.00500    161382608.00000000 100675512.00000000 254927264.00000000 103138.13281250 8159259.00000000 6444420.00000000 
0.00600    161005520.00000000 100444152.00000000 254335952.00000000 102823.58593750 8137209.50000000 6427147.00000000 
0.00700    160561536.00000000 100171544.00000000 253642800.00000000 102454.20312500 8111298.00000000 6406788.00000000 
0.00800    160050736.00000000 99859064.00000000 252844448.00000000 102029.57812500 8081432.50000000 6383396.50000000 
0.00900    159472080.00000000 99506416.00000000 251941984.00000000 101550.90625000 8047772.00000000 6357000.50000000 
0.01000    158831488.00000000 99113048.00000000 250937728.00000000 101017.91406250 8010306.00000000 6327605.50000000 
0.01100    158127328.00000000 98681928.00000000 249834000.00000000 100433.07812500 7969166.50000000 6295306.50000000 
0.01200    157362192.00000000 98211000.00000000 248631936.00000000 99796.37500000  7924371.50000000 6260134.00000000 
0.01300    156531904.00000000 97701944.00000000 247332144.00000000 99108.85156250  7875896.00000000 6222163.00000000 
0.01400    155639840.00000000 97155416.00000000 245935552.00000000 98373.07031250  7823987.50000000 6181437.50000000 
0.01500    154689312.00000000 96572456.00000000 244446752.00000000 97588.85156250  7768673.50000000 6138032.00000000 
0.01600    153681088.00000000 95953352.00000000 242867648.00000000 96757.38281250  7709970.00000000 6091966.50000000 
0.01700    152616320.00000000 95298968.00000000 241197936.00000000 95881.58593750  7648082.00000000 6043343.50000000 
0.01800    151495504.00000000 94611816.00000000 239442640.00000000 94961.75781250  7582948.00000000 5992287.00000000 
0.01900    150321456.00000000 93891592.00000000 237602960.00000000 93999.26562500  7514821.50000000 5938819.00000000 
0.02000    149093584.00000000 93138712.00000000 235681456.00000000 92996.86718750  7443745.00000000 5882992.50000000 
0.02100    147817696.00000000 92355096.00000000 233679648.00000000 91955.78906250  7369818.50000000 5824971.00000000 
0.02200    146491408.00000000 91541376.00000000 231602112.00000000 90877.21093750  7293128.00000000 5764789.00000000 
0.02300    145119344.00000000 90697976.00000000 229450160.00000000 89763.23437500  7213858.50000000 5702568.50000000 
0.02400    143701616.00000000 89827560.00000000 227229232.00000000 88615.70312500  7132100.50000000 5638360.00000000 
0.02500    142239712.00000000 88929712.00000000 224937792.00000000 87436.38281250  7047964.00000000 5572293.50000000 
0.02600    140737504.00000000 88006208.00000000 222582400.00000000 86226.83593750  6961551.50000000 5504440.50000000 
0.02700    139196640.00000000 87059552.00000000 220165184.00000000 84989.86718750  6873004.00000000 5434931.00000000 
0.02800    137616336.00000000 86089184.00000000 217689264.00000000 83726.79687500  6782482.50000000 5363800.50000000 
0.02900    136002368.00000000 85096424.00000000 215157824.00000000 82439.85156250  6690073.00000000 5291223.00000000 
0.03000    134355056.00000000 84083208.00000000 212574016.00000000 81131.14843750  6595907.00000000 5217318.00000000 
0.03100    132677056.00000000 83050488.00000000 209939888.00000000 79801.96875000  6500133.50000000 5142024.00000000 
0.03200    130969640.00000000 82000000.00000000 207261680.00000000 78454.42187500  6402906.50000000 5065646.00000000 
0.03300    129234000.00000000 80932624.00000000 204539328.00000000 77091.51562500  6304362.50000000 4988178.00000000 
0.03400    127475632.00000000 79849904.00000000 201779936.00000000 75713.92968750  6204542.50000000 4909755.50000000 
0.03500    125693296.00000000 78753064.00000000 198982944.00000000 74324.49218750  6103643.50000000 4830434.50000000 
0.03600    123890904.00000000 77642880.00000000 196153680.00000000 72924.80468750  6001788.00000000 4750425.50000000 
0.03700    122070248.00000000 76521128.00000000 193296320.00000000 71516.60937500  5899178.00000000 4669695.00000000 
0.03800    120232720.00000000 75389368.00000000 190410864.00000000 70102.65625000  5795798.50000000 4588408.50000000 
0.03900    118381440.00000000 74248616.00000000 187504480.00000000 68684.07031250  5691935.50000000 4506723.50000000 
0.04000    116518856.00000000 73100184.00000000 184579056.00000000 67262.94531250  5587604.50000000 4424657.50000000 
0.04100    114645488.00000000 71945808.00000000 181635680.00000000 65841.32812500  5482941.50000000 4342344.50000000 
0.04200    112763992.00000000 70785168.00000000 178680528.00000000 64419.96093750  5378104.50000000 4259877.00000000 
0.04300    110877176.00000000 69620600.00000000 175716496.00000000 63002.39843750  5273235.00000000 4177340.50000000 
0.04400    108986728.00000000 68453528.00000000 172746288.00000000 61588.86718750  5168413.00000000 4094839.75000000 
0.04500    107094160.00000000 67284208.00000000 169770944.00000000 60181.33984375  5063768.00000000 4012461.50000000 
0.04600    105201400.00000000 66115760.00000000 166795520.00000000 58781.76562500  4959400.00000000 3930306.00000000 
0.04700    103310992.00000000 64947456.00000000 163823904.00000000 57391.40234375  4855459.00000000 3848454.25000000 
0.04800    101424800.00000000 63781208.00000000 160856656.00000000 56012.33984375  4751986.50000000 3766973.25000000 
0.04900    99543376.00000000 62618132.00000000 157898272.00000000 54644.78515625  4649155.50000000 3685965.25000000 
0.05000    97670152.00000000 61459248.00000000 154951216.00000000 53291.21484375  4547041.00000000 3605493.75000000 
0.05100    95805568.00000000 60305264.00000000 152017232.00000000 51952.36718750  4445691.50000000 3525672.75000000 
0.05200    93951800.00000000 59157692.00000000 149101440.00000000 50629.64453125  4345309.00000000 3446502.00000000 
0.05300    92110664.00000000 58017484.00000000 146200928.00000000 49324.26562500  4245877.50000000 3368118.25000000 
0.05400    90283000.00000000 56885272.00000000 143323664.00000000 48037.35937500  4147487.25000000 3290565.00000000 
0.05500    88471112.00000000 55762120.00000000 140470656.00000000 46769.65625000  4050281.75000000 3213917.00000000 
0.05600    86675808.00000000 54648772.00000000 137643088.00000000 45522.71093750  3954305.00000000 3138201.75000000 
0.05700    84899648.00000000 53546500.00000000 134844368.00000000 44296.62109375  3859618.75000000 3063517.00000000 
0.05800    83141392.00000000 52455744.00000000 132075912.00000000 43092.61328125  3766332.75000000 2989883.00000000 
0.05900    81405160.00000000 51376988.00000000 129338536.00000000 41911.98437500  3674450.00000000 2917356.25000000 
0.06000    79689928.00000000 50311612.00000000 126634752.00000000 40754.29687500  3584062.25000000 2845988.50000000 
0.06100    77998048.00000000 49260104.00000000 123967048.00000000 39621.16796875  3495211.50000000 2775843.00000000 
0.06200    76330248.00000000 48223264.00000000 121336680.00000000 38512.29296875  3407982.25000000 2706913.50000000 
0.06300    74687736.00000000 47201000.00000000 118744776.00000000 37428.73437500  3322365.25000000 2639292.75000000 
0.06400    73070208.00000000 46194652.00000000 116193696.00000000 36370.60156250  3238420.25000000 2572949.75000000 
0.06500    71479928.00000000 45204472.00000000 113683888.00000000 35338.30078125  3156214.50000000 2507954.25000000 
0.06600    69917616.00000000 44230860.00000000 111216120.00000000 34332.07812500  3075724.75000000 2444320.00000000 
0.06700    68382832.00000000 43274304.00000000 108793224.00000000 33352.22656250  2997028.75000000 2382076.50000000 
0.06800    66877296.00000000 42335044.00000000 106414136.00000000 32398.93750000  2920107.75000000 2321234.25000000 
0.06900    65401176.00000000 41413600.00000000 104081984.00000000 31471.56250000  2845024.25000000 2261801.25000000 
0.07000    63954464.00000000 40510380.00000000 101794752.00000000 30571.04101562  2771745.25000000 2203792.75000000 
0.07100    62537740.00000000 39625452.00000000 99556048.00000000 29696.87695312  2700300.50000000 2147231.50000000 
0.07200    61151912.00000000 38759328.00000000 97364608.00000000 28848.72460938  2630696.75000000 2092114.25000000 
0.07300    59797068.00000000 37911960.00000000 95221192.00000000 28027.05859375  2562933.00000000 2038442.75000000 
0.07400    58473152.00000000 37083420.00000000 93126616.00000000 27231.16796875  2497028.50000000 1986197.62500000 
0.07500    57180724.00000000 36273952.00000000 91080936.00000000 26460.89453125  2432945.50000000 1935418.37500000 
0.07600    55919184.00000000 35483932.00000000 89083992.00000000 25716.14648438  2370701.75000000 1886052.37500000 
0.07700    54689320.00000000 34712756.00000000 87136368.00000000 24996.29882812  2310255.50000000 1838120.50000000 
0.07800    53490936.00000000 33961460.00000000 85238200.00000000 24300.90039062  2251628.00000000 1791607.25000000 
0.07900    52323660.00000000 33228602.00000000 83388768.00000000 23629.54687500  2194761.00000000 1746475.12500000 
0.08000    51187840.00000000 32515408.00000000 81588024.00000000 22982.20312500  2139658.50000000 1702737.00000000 
0.08100    50082964.00000000 31820908.00000000 79836384.00000000 22357.93945312  2086298.25000000 1660366.87500000 
0.08200    49008568.00000000 31145830.00000000 78132744.00000000 21756.28906250  2034632.25000000 1619348.62500000 
0.08300    47965028.00000000 30489126.00000000 76477184.00000000 21176.56250000  1984665.87500000 1579626.87500000 
0.08400    46951524.00000000 29851190.00000000 74869256.00000000 20618.36718750  1936320.75000000 1541220.87500000 
0.08500    45967716.00000000 29231860.00000000 73307560.00000000 20081.17773438  1889615.62500000 1504078.12500000 
0.08600    45013728.00000000 28630610.00000000 71792624.00000000 19564.13281250  1844465.12500000 1468190.12500000 
0.08700    44088368.00000000 28047196.00000000 70323624.00000000 19066.88671875  1800863.00000000 1433508.87500000 
0.08800    43191556.00000000 27481414.00000000 68898728.00000000 18588.31250000  1758769.50000000 1400012.37500000 
0.08900    42322764.00000000 26933064.00000000 67518672.00000000 18128.23437500  1718136.12500000 1367680.37500000 
0.09000    41481568.00000000 26401902.00000000 66180988.00000000 17685.71875000  1678916.75000000 1336456.50000000 
0.09100    40667008.00000000 25887164.00000000 64886304.00000000 17259.96484375  1641073.75000000 1306325.50000000 
0.09200    39879172.00000000 25388968.00000000 63632880.00000000 16850.70117188  1604576.62500000 1277250.37500000 
0.09300    39116528.00000000 24906706.00000000 62420396.00000000 16456.86914062  1569359.75000000 1249197.00000000 
0.09400    38379108.00000000 24440146.00000000 61247116.00000000 16078.04003906  1535377.25000000 1222124.62500000 
0.09500    37666116.00000000 23988706.00000000 60112056.00000000 15713.21972656  1502599.75000000 1196012.12500000 
0.09600    36976612.00000000 23552002.00000000 59014456.00000000 15361.97753906  1470983.00000000 1170805.37500000 
0.09700    36310324.00000000 23129740.00000000 57953316.00000000 15023.65820312  1440472.50000000 1146478.75000000 
0.09800    35666212.00000000 22721462.00000000 56928008.00000000 14697.58691406  1411027.75000000 1122998.25000000 
0.09900    35043456.00000000 22326806.00000000 55936664.00000000 14383.10644531  1382598.62500000 1100326.50000000 
0.10000    34441504.00000000 21945082.00000000 54977864.00000000 14079.37695312  1355126.37500000 1078424.37500000 
0.10100    33860268.00000000 21576180.00000000 54051516.00000000 13786.14746094  1328593.25000000 1057263.00000000 
0.10200    33297428.00000000 21219404.00000000 53155320.00000000 13502.44238281  1302943.25000000 1036801.37500000 
0.10300    32754068.00000000 20874364.00000000 52289100.00000000 13228.04199219  1278119.62500000 1017009.25000000 
0.10400    32228164.00000000 20540704.00000000 51451276.00000000 12962.09863281  1254110.00000000 997838.18750000 
0.10500    31719626.00000000 20217932.00000000 50641172.00000000 12704.32031250  1230847.50000000 979281.25000000 
0.10600    31227424.00000000 19905358.00000000 49856472.00000000 12453.93457031  1208289.12500000 961289.00000000 
0.10700    30751010.00000000 19603114.00000000 49097384.00000000 12210.57714844  1186399.37500000 943839.56250000 
0.10800    30289724.00000000 19310030.00000000 48362084.00000000 11973.81152344  1165145.87500000 926882.31250000 
0.10900    29842422.00000000 19026398.00000000 47649440.00000000 11743.10839844  1144483.75000000 910407.62500000 
0.11000    29408992.00000000 18751218.00000000 46958796.00000000 11517.97753906  1124392.62500000 894378.62500000 
0.11100    28988358.00000000 18484418.00000000 46288696.00000000 11298.05566406  1104811.62500000 878767.62500000 
0.11200    28579878.00000000 18225268.00000000 45638604.00000000 11083.03613281  1085726.12500000 863548.31250000 
0.11300    28183054.00000000 17973768.00000000 45006420.00000000 10872.53808594  1067082.25000000 848699.50000000 
0.11400    27797134.00000000 17729152.00000000 44391904.00000000 10666.21386719  1048883.37500000 834181.68750000 
0.11500    27421552.00000000 17491456.00000000 43794304.00000000 10463.52636719  1031067.81250000 819989.43750000 
0.11600    27055686.00000000 17259862.00000000 43211844.00000000 10264.63183594  1013609.68750000 806088.43750000 
0.11700    26699124.00000000 17034214.00000000 42644376.00000000 10068.87988281  996503.62500000 792462.06250000 
0.11800    26350934.00000000 16813898.00000000 42090460.00000000 9876.21484375   979702.00000000 779087.75000000 
0.11900    26010700.00000000 16598996.00000000 41549832.00000000 9686.30761719   963190.37500000 765943.43750000 
0.12000    25677862.00000000 16388728.00000000 41020944.00000000 9499.02636719   946950.43750000 753013.37500000 
0.12100    25352302.00000000 16183345.00000000 40503484.00000000 9314.23046875   930960.37500000 740288.31250000 
0.12200    25033168.00000000 15981966.00000000 39996504.00000000 9131.68359375   915194.75000000 727750.62500000 
0.12300    24719838.00000000 15784653.00000000 39498868.00000000 8951.23535156   899632.93750000 715372.56250000 
0.12400    24412274.00000000 15590923.00000000 39010680.00000000 8772.81445312   884270.18750000 703155.31250000 
0.12500    24109664.00000000 15400563.00000000 38530916.00000000 8596.40527344   869086.81250000 691081.18750000 
0.12600    23812144.00000000 15213440.00000000 38058944.00000000 8421.79687500   854066.00000000 679145.43750000 
0.12700    23518714.00000000 15029208.00000000 37593908.00000000 8248.92089844   839200.12500000 667332.43750000 
0.12800    23229536.00000000 14847627.00000000 37135360.00000000 8077.87695312   824470.81250000 655633.56250000 
0.12900    22943974.00000000 14668605.00000000 36683328.00000000 7908.39208984   809882.12500000 644041.00000000 
0.13000    22661850.00000000 14491651.00000000 36236232.00000000 7740.66748047   795416.62500000 632547.93750000 
0.13100    22382744.00000000 14316888.00000000 35794808.00000000 7574.53173828   781060.06250000 621148.50000000 
0.13200    22106624.00000000 14143964.00000000 35357720.00000000 7410.11621094   766822.62500000 609840.68750000 
0.13300    21833188.00000000 13972913.00000000 34924812.00000000 7247.34130859   752696.25000000 598614.93750000 
0.13400    21561938.00000000 13803275.00000000 34495752.00000000 7086.21875000   738670.31250000 587481.75000000 
0.13500    21293016.00000000 13635208.00000000 34070900.00000000 6926.89062500   724735.75000000 576417.93750000 
0.13600    21025948.00000000 13468433.00000000 33648844.00000000 6769.26367188   710912.75000000 565436.56250000 
0.13700    20760904.00000000 13302949.00000000 33229342.00000000 6613.45654297   697175.56250000 554533.50000000 
0.13800    20497324.00000000 13138442.00000000 32812864.00000000 6459.45214844   683544.25000000 543706.25000000 
0.13900    20235510.00000000 12975005.00000000 32399340.00000000 6307.38671875   670008.56250000 532958.87500000 
0.14000    19975120.00000000 12812594.00000000 31987758.00000000 6157.28173828   656579.93750000 522286.59375000 
0.14100    19716126.00000000 12651004.00000000 31578690.00000000 6009.22265625   643243.68750000 511693.00000000 
0.14200    19458374.00000000 12490240.00000000 31171196.00000000 5863.25097656   630012.56250000 501183.31250000 
0.14300    19201658.00000000 12330287.00000000 30766082.00000000 5719.39111328   616891.75000000 490755.50000000 
0.14400    18946318.00000000 12170987.00000000 30362526.00000000 5577.67626953   603878.25000000 480414.06250000 
0.14500    18692042.00000000 12012427.00000000 29960936.00000000 5438.31494141   590979.93750000 470163.71875000 
0.14600    18438918.00000000 11854494.00000000 29561218.00000000 5301.27392578   578199.06250000 460003.25000000 
0.14700    18187068.00000000 11697367.00000000 29162814.00000000 5166.59326172   565545.62500000 449941.21875000 
0.14800    17936094.00000000 11540754.00000000 28766242.00000000 5034.37207031   553014.68750000 439973.96875000 
0.14900    17686182.00000000 11384829.00000000 28371468.00000000 4904.65185547   540617.62500000 430112.46875000 
0.15000    17437432.00000000 11229634.00000000 27978416.00000000 4777.45996094   528355.87500000 420356.37500000 
0.15100    17189974.00000000 11074898.00000000 27587096.00000000 4652.84863281   516243.40625000 410711.28125000 
0.15200    16943726.00000000 10921060.00000000 27197496.00000000 4530.94433594   504273.65625000 401183.21875000 
0.15300    16698508.00000000 10767902.00000000 26809954.00000000 4411.69189453   492456.87500000 391775.06250000 
0.15400    16454612.00000000 10615365.00000000 26424034.00000000 4295.09667969   480795.65625000 382486.56250000 
0.15500    16212142.00000000 10463700.00000000 26040560.00000000 4181.29101562   469296.53125000 373321.34375000 
0.15600    15970948.00000000 10312675.00000000 25658802.00000000 4070.23364258   457959.96875000 364289.78125000 
0.15700    15731458.00000000 10162584.00000000 25279322.00000000 3961.94921875   446801.87500000 355391.53125000 
0.15800    15493205.00000000 10013263.00000000 24902102.00000000 3856.42578125   435815.71875000 346630.28125000 
0.15900    15256704.00000000 9864923.00000000 24527376.00000000 3753.71801758   425010.18750000 338010.31250000 
0.16000    15021847.00000000 9717514.00000000 24155190.00000000 3653.80004883   414387.78125000 329530.87500000 
0.16100    14788657.00000000 9571031.00000000 23785366.00000000 3556.68432617   403953.21875000 321200.93750000 
0.16200    14557349.00000000 9425616.00000000 23418534.00000000 3462.34545898   393709.43750000 313018.68750000 
0.16300    14327919.00000000 9281215.00000000 23054458.00000000 3370.75244141   383655.12500000 304988.59375000 
0.16400    14100431.00000000 9137971.00000000 22693276.00000000 3281.90234375   373798.75000000 297113.65625000 
0.16500    13875020.00000000 8995903.00000000 22335172.00000000 3195.74804688   364142.37500000 289392.25000000 
0.16600    13651692.00000000 8854989.00000000 21980424.00000000 3112.29223633   354683.84375000 281829.90625000 
0.16700    13430510.00000000 8715350.00000000 21628822.00000000 3031.45263672   345427.09375000 274425.37500000 
0.16800    13211470.00000000 8576937.00000000 21280610.00000000 2953.23535156   336373.68750000 267180.81250000 
0.16900    12994953.00000000 8439982.00000000 20935954.00000000 2877.56591797   327523.90625000 260096.57812500 
0.17000    12780608.00000000 8304266.00000000 20594880.00000000 2804.39770508   318877.84375000 253174.14062500 
