# SAXS profile: number of points = 501, q_min = 0, q_max = 0.5, delta_q = 0.001
#    q    intensity 
0.00000    162232752.00000000 101202288.00000000 256270176.00000000 111223.14843750 8495842.00000000 6709976.50000000 
0.00100    162198448.00000000 101178368.00000000 256210848.00000000 111188.98437500 8493529.00000000 6708147.50000000 
0.00200    162088432.00000000 101108776.00000000 256032176.00000000 111088.89062500 8486696.00000000 6702798.00000000 
0.00300    161903456.00000000 100991648.00000000 255735664.00000000 110923.07031250 8475360.00000000 6693845.00000000 
0.00400    161636832.00000000 100827984.00000000 255316848.00000000 110690.60156250 8459428.00000000 6681352.50000000 
0.00500    161295008.00000000 100618296.00000000 254783984.00000000 110392.30468750 8439012.00000000 6665353.00000000 
0.00600    160879040.00000000 100360872.00000000 254130960.00000000 110029.89843750 8414211.00000000 6645804.00000000 
0.00700    160388256.00000000 100060632.00000000 253365040.00000000 109602.77343750 8384942.50000000 6622823.50000000 
0.00800    159821760.00000000 99715240.00000000 252483168.00000000 109112.61718750 8351359.50000000 6596433.00000000 
0.00900    159189024.00000000 99325456.00000000 251487856.00000000 108560.21093750 8313513.00000000 6566679.00000000 
0.01000    158485728.00000000 98892376.00000000 250381904.00000000 107946.38281250 8271393.00000000 6533605.50000000 
0.01100    157712768.00000000 98414720.00000000 249166592.00000000 107273.73437500 8225179.00000000 6497322.00000000 
0.01200    156869360.00000000 97894976.00000000 247843744.00000000 106542.28125000 8174925.50000000 6457796.00000000 
0.01300    155957056.00000000 97334704.00000000 246415008.00000000 105754.25000000 8120735.50000000 6415200.00000000 
0.01400    154981616.00000000 96732664.00000000 244883120.00000000 104910.39062500 8062674.00000000 6369617.00000000 
0.01500    153942400.00000000 96092304.00000000 243251520.00000000 104013.58593750 8000870.00000000 6320963.00000000 
0.01600    152841968.00000000 95413800.00000000 241521664.00000000 103065.00000000 7935447.50000000 6269580.00000000 
0.01700    151678240.00000000 94697960.00000000 239696032.00000000 102066.24218750 7866499.00000000 6215398.00000000 
0.01800    150458192.00000000 93945264.00000000 237780304.00000000 101020.25000000 7794270.00000000 6158576.00000000 
0.01900    149180928.00000000 93158200.00000000 235774288.00000000 99928.72656250  7718689.50000000 6099121.00000000 
0.02000    147849632.00000000 92336736.00000000 233682576.00000000 98793.26562500  7639988.50000000 6037256.50000000 
0.02100    146462736.00000000 91483616.00000000 231508480.00000000 97617.37500000  7558337.00000000 5973072.00000000 
0.02200    145029888.00000000 90599416.00000000 229255120.00000000 96400.93750000  7473885.50000000 5906608.50000000 
0.02300    143548208.00000000 89684480.00000000 226926048.00000000 95148.60937500  7386710.50000000 5838091.00000000 
0.02400    142020832.00000000 88742544.00000000 224526928.00000000 93861.85156250  7297052.50000000 5767502.00000000 
0.02500    140448208.00000000 87771952.00000000 222057488.00000000 92542.86718750  7204925.00000000 5695106.50000000 
0.02600    138836896.00000000 86776944.00000000 219524112.00000000 91195.26562500  7110642.50000000 5620917.00000000 
0.02700    137186912.00000000 85757632.00000000 216931168.00000000 89819.96093750  7014299.00000000 5545090.50000000 
0.02800    135499408.00000000 84716144.00000000 214279584.00000000 88419.76562500  6916003.00000000 5467734.50000000 
0.02900    133779464.00000000 83653176.00000000 211574416.00000000 86997.25000000  6815975.00000000 5389015.50000000 
0.03000    132028360.00000000 82571816.00000000 208821520.00000000 85555.43750000  6714349.50000000 5309018.50000000 
0.03100    130248664.00000000 81470832.00000000 206023808.00000000 84095.68750000  6611270.50000000 5227907.50000000 
0.03200    128442840.00000000 80354600.00000000 203184112.00000000 82620.67968750  6506974.50000000 5145777.50000000 
0.03300    126613488.00000000 79223656.00000000 200306256.00000000 81135.07812500  6401507.50000000 5062766.00000000 
0.03400    124763912.00000000 78079728.00000000 197396928.00000000 79637.89843750  6295112.00000000 4978997.50000000 
0.03500    122894992.00000000 76924024.00000000 194456992.00000000 78133.63281250  6187976.00000000 4894590.50000000 
0.03600    121010512.00000000 75757664.00000000 191491968.00000000 76622.89843750  6080115.50000000 4809663.00000000 
0.03700    119112232.00000000 74583096.00000000 188502720.00000000 75109.39062500  5971766.50000000 4724319.00000000 
0.03800    117202928.00000000 73400584.00000000 185500160.00000000 73595.40625000  5863113.00000000 4638700.50000000 
0.03900    115284912.00000000 72212368.00000000 182480416.00000000 72081.73437500  5754175.50000000 4552895.00000000 
0.04000    113360616.00000000 71019552.00000000 179449152.00000000 70571.01562500  5645260.50000000 4467046.00000000 
0.04100    111431840.00000000 69823648.00000000 176414032.00000000 69065.49218750  5536386.50000000 4381210.00000000 
0.04200    109502616.00000000 68626888.00000000 173372640.00000000 67566.80468750  5427692.00000000 4295526.50000000 
0.04300    107572800.00000000 67430128.00000000 170334064.00000000 66077.29687500  5319384.00000000 4210106.50000000 
0.04400    105645576.00000000 66234132.00000000 167297856.00000000 64597.91796875  5211509.00000000 4125063.50000000 
0.04500    103723856.00000000 65040992.00000000 164269088.00000000 63130.73828125  5104213.50000000 4040470.25000000 
0.04600    101808848.00000000 63851880.00000000 161250528.00000000 61677.93359375  4997704.00000000 3956413.00000000 
0.04700    99902144.00000000 62667620.00000000 158244912.00000000 60240.29687500  4891913.00000000 3873000.00000000 
0.04800    98006416.00000000 61489792.00000000 155256496.00000000 58818.91796875  4787090.50000000 3790303.25000000 
0.04900    96123232.00000000 60318908.00000000 152286944.00000000 57416.06640625  4683286.50000000 3708364.50000000 
0.05000    94253976.00000000 59156824.00000000 149339584.00000000 56032.51562500  4580602.00000000 3627309.75000000 
0.05100    92401112.00000000 58004004.00000000 146414736.00000000 54668.90625000  4479084.50000000 3547196.25000000 
0.05200    90565272.00000000 56861968.00000000 143520688.00000000 53327.22265625  4378897.00000000 3468090.00000000 
0.05300    88749208.00000000 55731192.00000000 140654128.00000000 52007.63281250  4280090.00000000 3390044.25000000 
0.05400    86952680.00000000 54612852.00000000 137818736.00000000 50711.34375000  4182667.25000000 3313127.50000000 
0.05500    85178808.00000000 53507664.00000000 135018896.00000000 49438.89453125  4086771.50000000 3237399.00000000 
0.05600    83427848.00000000 52416572.00000000 132255120.00000000 48190.94921875  3992438.00000000 3162868.25000000 
0.05700    81700520.00000000 51340580.00000000 129528512.00000000 46968.58984375  3899726.00000000 3089633.50000000 
0.05800    79999856.00000000 50279884.00000000 126842352.00000000 45771.67187500  3808666.25000000 3017680.75000000 
0.05900    78325112.00000000 49235368.00000000 124197032.00000000 44600.72265625  3719352.75000000 2947070.25000000 
0.06000    76678912.00000000 48207592.00000000 121594176.00000000 43456.52734375  3631762.00000000 2877840.50000000 
0.06100    75059808.00000000 47196720.00000000 119036088.00000000 42338.64843750  3545950.25000000 2809997.50000000 
0.06200    73469664.00000000 46204368.00000000 116524240.00000000 41248.16015625  3461931.50000000 2743584.25000000 
0.06300    71909488.00000000 45229724.00000000 114057040.00000000 40183.92187500  3379770.50000000 2678607.50000000 
0.06400    70378712.00000000 44274212.00000000 111638328.00000000 39146.42968750  3299435.75000000 2615087.50000000 
0.06500    68880016.00000000 43337192.00000000 109267928.00000000 38136.07812500  3220958.00000000 2553020.25000000 
0.06600    67411976.00000000 42419380.00000000 106946928.00000000 37152.38281250  3144360.00000000 2492411.50000000 
0.06700    65974988.00000000 41521712.00000000 104675040.00000000 36195.03906250  3069588.75000000 2433272.75000000 
0.06800    64570752.00000000 40643336.00000000 102454144.00000000 35263.87500000  2996708.25000000 2375609.75000000 
0.06900    63198404.00000000 39784520.00000000 100283296.00000000 34358.73046875  2925680.00000000 2319389.00000000 
0.07000    61858272.00000000 38945888.00000000 98163336.00000000 33479.35937500  2856475.25000000 2264634.25000000 
0.07100    60550048.00000000 38127596.00000000 96093688.00000000 32624.63867188  2789116.00000000 2211340.25000000 
0.07200    59274404.00000000 37329124.00000000 94075624.00000000 31794.95703125  2723559.25000000 2159450.25000000 
0.07300    58031528.00000000 36551112.00000000 92107856.00000000 30989.51367188  2659796.75000000 2108988.00000000 
0.07400    56820084.00000000 35792644.00000000 90191112.00000000 30207.88281250  2597837.50000000 2059947.87500000 
0.07500    55640624.00000000 35054376.00000000 88325224.00000000 29449.32226562  2537607.00000000 2012253.62500000 
0.07600    54493080.00000000 34335792.00000000 86508536.00000000 28713.62109375  2479059.00000000 1965931.62500000 
0.07700    53376904.00000000 33637064.00000000 84742072.00000000 27999.61328125  2422214.50000000 1920927.25000000 
0.07800    52291688.00000000 32957822.00000000 83024984.00000000 27307.18359375  2367007.75000000 1877218.25000000 
0.07900    51237300.00000000 32297692.00000000 81356608.00000000 26635.62890625  2313402.50000000 1834789.62500000 
0.08000    50212884.00000000 31656370.00000000 79735200.00000000 25984.04492188  2261390.50000000 1793608.50000000 
0.08100    49218740.00000000 31033800.00000000 78162216.00000000 25352.21289062  2210892.25000000 1753640.87500000 
0.08200    48253604.00000000 30429792.00000000 76634472.00000000 24739.21289062  2161884.00000000 1714848.50000000 
0.08300    47317424.00000000 29843472.00000000 75153272.00000000 24144.25000000  2114337.50000000 1677200.62500000 
0.08400    46408760.00000000 29275384.00000000 73715552.00000000 23566.97070312  2068188.50000000 1640685.00000000 
0.08500    45527868.00000000 28724476.00000000 72322200.00000000 23006.78906250  2023393.25000000 1605232.87500000 
0.08600    44673936.00000000 28190318.00000000 70971744.00000000 22462.64843750  1979943.37500000 1570841.75000000 
0.08700    43846084.00000000 27672926.00000000 69662688.00000000 21934.06445312  1937745.12500000 1537455.25000000 
0.08800    43043876.00000000 27171726.00000000 68394560.00000000 21420.70703125  1896782.75000000 1505032.62500000 
0.08900    42266800.00000000 26686248.00000000 67165864.00000000 20921.62304688  1857007.25000000 1473572.37500000 
0.09000    41513468.00000000 26216060.00000000 65975704.00000000 20436.68945312  1818380.50000000 1443013.50000000 
0.09100    40783956.00000000 25760664.00000000 64822408.00000000 19964.80664062  1780838.00000000 1413312.62500000 
0.09200    40076752.00000000 25319752.00000000 63705836.00000000 19505.44726562  1744358.37500000 1384464.00000000 
0.09300    39391712.00000000 24892722.00000000 62624480.00000000 19058.41210938  1708895.12500000 1356418.75000000 
0.09400    38728036.00000000 24479296.00000000 61576216.00000000 18622.93359375  1674392.75000000 1329130.37500000 
0.09500    38084796.00000000 24078760.00000000 60560876.00000000 18198.71484375  1640823.62500000 1302582.75000000 
0.09600    37461196.00000000 23690768.00000000 59576944.00000000 17785.05078125  1608146.75000000 1276755.50000000 
0.09700    36856544.00000000 23315092.00000000 58623760.00000000 17381.67578125  1576302.75000000 1251585.75000000 
0.09800    36270400.00000000 22950822.00000000 57699732.00000000 16988.20312500  1545296.37500000 1227065.50000000 
0.09900    35701680.00000000 22597984.00000000 56803292.00000000 16603.96679688  1515050.12500000 1203158.25000000 
0.10000    35149808.00000000 22255712.00000000 55934124.00000000 16228.70312500  1485548.00000000 1179843.37500000 
0.10100    34613904.00000000 21923796.00000000 55090012.00000000 15862.21777344  1456748.37500000 1157087.62500000 
0.10200    34093612.00000000 21601588.00000000 54271088.00000000 15503.75878906  1428614.00000000 1134841.87500000 
0.10300    33587632.00000000 21288714.00000000 53475504.00000000 15153.60449219  1401126.50000000 1113129.50000000 
0.10400    33095782.00000000 20984746.00000000 52701696.00000000 14810.88281250  1374245.00000000 1091880.75000000 
0.10500    32617708.00000000 20689624.00000000 51950004.00000000 14475.76953125  1347939.62500000 1071109.50000000 
0.10600    32151702.00000000 20402292.00000000 51218184.00000000 14147.64453125  1322202.25000000 1050754.37500000 
0.10700    31698288.00000000 20122670.00000000 50505376.00000000 13826.43652344  1296964.50000000 1030827.62500000 
0.10800    31256010.00000000 19850278.00000000 49811320.00000000 13512.16894531  1272259.87500000 1011288.25000000 
0.10900    30824648.00000000 19584844.00000000 49134460.00000000 13204.15625000  1248014.12500000 992125.75000000 
0.11000    30403618.00000000 19326020.00000000 48473492.00000000 12902.58886719  1224226.00000000 973329.31250000 
0.11100    29992194.00000000 19073210.00000000 47828880.00000000 12607.18164062  1200885.62500000 954872.68750000 
0.11200    29590192.00000000 18826202.00000000 47198240.00000000 12317.76660156  1177946.37500000 936743.93750000 
0.11300    29196638.00000000 18584852.00000000 46581316.00000000 12034.25585938  1155412.87500000 918912.43750000 
0.11400    28811274.00000000 18348350.00000000 45977328.00000000 11756.50097656  1133265.37500000 901389.06250000 
0.11500    28433658.00000000 18116872.00000000 45386068.00000000 11484.28222656  1111480.25000000 884156.62500000 
0.11600    28063242.00000000 17890076.00000000 44805576.00000000 11217.74414062  1090051.25000000 867193.93750000 
0.11700    27699834.00000000 17667202.00000000 44236256.00000000 10956.61718750  1068951.62500000 850500.56250000 
0.11800    27342234.00000000 17448530.00000000 43676712.00000000 10700.77148438  1048197.62500000 834053.50000000 
0.11900    26991274.00000000 17233182.00000000 43126440.00000000 10450.17871094  1027738.18750000 817851.31250000 
0.12000    26645324.00000000 17021506.00000000 42585260.00000000 10204.78222656  1007594.81250000 801889.87500000 
0.12100    26305038.00000000 16813316.00000000 42052012.00000000 9964.51269531   987751.31250000 786156.18750000 
0.12200    25969506.00000000 16607864.00000000 41526580.00000000 9729.31250000   968186.56250000 770643.75000000 
0.12300    25638518.00000000 16405253.00000000 41008728.00000000 9499.14453125   948906.56250000 755351.87500000 
0.12400    25312042.00000000 16205119.00000000 40497144.00000000 9273.87207031   929898.93750000 740262.56250000 
0.12500    24989354.00000000 16007349.00000000 39991560.00000000 9053.49609375   911152.06250000 725382.50000000 
0.12600    24670564.00000000 15811994.00000000 39492004.00000000 8837.89453125   892679.12500000 710708.18750000 
0.12700    24355344.00000000 15618630.00000000 38997672.00000000 8627.03417969   874457.75000000 696228.18750000 
0.12800    24043374.00000000 15427076.00000000 38509040.00000000 8420.96972656   856485.81250000 681941.75000000 
0.12900    23734522.00000000 15237481.00000000 38024328.00000000 8219.47558594   838766.43750000 667851.87500000 
0.13000    23428642.00000000 15049301.00000000 37544468.00000000 8022.59277344   821301.00000000 653950.18750000 
0.13100    23125468.00000000 14862850.00000000 37068520.00000000 7830.17382812   804064.81250000 640229.68750000 
0.13200    22824898.00000000 14677729.00000000 36596156.00000000 7642.25292969   787072.62500000 626695.12500000 
0.13300    22526606.00000000 14493990.00000000 36127932.00000000 7458.71582031   770317.75000000 613351.06250000 
0.13400    22230920.00000000 14311485.00000000 35662816.00000000 7279.47802734   753799.43750000 600178.25000000 
0.13500    21937334.00000000 14130023.00000000 35200920.00000000 7104.45410156   737515.12500000 587190.56250000 
0.13600    21645848.00000000 13949816.00000000 34741968.00000000 6933.66699219   721462.56250000 574387.68750000 
0.13700    21356300.00000000 13770495.00000000 34286312.00000000 6766.94531250   705639.75000000 561755.37500000 
0.13800    21068636.00000000 13592159.00000000 33833408.00000000 6604.19580078   690049.37500000 549301.81250000 
0.13900    20782954.00000000 13414811.00000000 33382750.00000000 6445.42041016   674691.87500000 537028.62500000 
0.14000    20499126.00000000 13238403.00000000 32934962.00000000 6290.50585938   659552.75000000 524934.31250000 
0.14100    20217020.00000000 13062846.00000000 32489648.00000000 6139.38330078   644648.56250000 513016.56250000 
0.14200    19936622.00000000 12888167.00000000 32046822.00000000 5991.89501953   629963.31250000 501276.31250000 
0.14300    19657838.00000000 12714328.00000000 31606340.00000000 5848.01708984   615509.93750000 489711.65625000 
0.14400    19380772.00000000 12541153.00000000 31168014.00000000 5707.68164062   601280.25000000 478318.53125000 
0.14500    19105518.00000000 12368844.00000000 30732310.00000000 5570.68505859   587270.68750000 467106.59375000 
0.14600    18831794.00000000 12197498.00000000 30298974.00000000 5437.03173828   573486.00000000 456066.28125000 
0.14700    18559756.00000000 12026867.00000000 29867892.00000000 5306.69287109   559924.68750000 445204.37500000 
0.14800    18289380.00000000 11857039.00000000 29439246.00000000 5179.41552734   546584.00000000 434517.75000000 
0.14900    18020760.00000000 11688065.00000000 29012716.00000000 5055.20898438   533465.18750000 424001.65625000 
0.15000    17753792.00000000 11519776.00000000 28589032.00000000 4933.97998047   520567.78125000 413660.46875000 
0.15100    17488562.00000000 11352644.00000000 28167642.00000000 4815.59765625   507885.28125000 403494.87500000 
0.15200    17225246.00000000 11186314.00000000 27748988.00000000 4700.03417969   495426.93750000 393503.18750000 
0.15300    16963546.00000000 11020896.00000000 27332898.00000000 4587.16845703   483184.59375000 383682.43750000 
0.15400    16703805.00000000 10856374.00000000 26919202.00000000 4476.92773438   471153.78125000 374036.31250000 
0.15500    16446083.00000000 10692869.00000000 26508220.00000000 4369.18652344   459345.31250000 364560.12500000 
0.15600    16189971.00000000 10530325.00000000 26100252.00000000 4263.94433594   447748.43750000 355257.03125000 
0.15700    15935938.00000000 10368905.00000000 25695142.00000000 4161.16748047   436364.18750000 346127.12500000 
0.15800    15683809.00000000 10208525.00000000 25292904.00000000 4060.63525391   425187.75000000 337164.18750000 
0.15900    15433786.00000000 10049223.00000000 24893770.00000000 3962.37109375   414229.93750000 328372.65625000 
0.16000    15185777.00000000 9891128.00000000 24497610.00000000 3866.34423828   403477.15625000 319744.56250000 
0.16100    14940069.00000000 9734254.00000000 24104892.00000000 3772.41674805   392938.71875000 311292.28125000 
0.16200    14696397.00000000 9578592.00000000 23715422.00000000 3680.59887695   382604.34375000 303005.46875000 
0.16300    14455113.00000000 9424254.00000000 23329272.00000000 3590.78369141   372475.43750000 294881.96875000 
0.16400    14216050.00000000 9271224.00000000 22946788.00000000 3502.98413086   362556.46875000 286928.34375000 
0.16500    13979317.00000000 9119422.00000000 22567666.00000000 3417.10034180   352838.96875000 279136.56250000 
0.16600    13744913.00000000 8969136.00000000 22192380.00000000 3333.10205078   343326.15625000 271509.06250000 
0.16700    13513093.00000000 8820262.00000000 21820782.00000000 3250.99975586   334010.15625000 264043.90625000 
0.16800    13283726.00000000 8672752.00000000 21452940.00000000 3170.69677734   324891.71875000 256740.35937500 
0.16900    13056953.00000000 8526855.00000000 21089146.00000000 3092.24072266   315981.75000000 249598.37500000 
0.17000    12832544.00000000 8382539.50000000 20729260.00000000 3015.52514648   307260.09375000 242614.53125000 
