# SAXS profile: number of points = 501, q_min = 0, q_max = 0.5, delta_q = 0.001
#    q    intensity 
0.00000    162237456.00000000 101201552.00000000 256271728.00000000 108776.38281250 8401840.00000000 6635751.50000000 
0.00100    162200896.00000000 101177464.00000000 256212240.00000000 108744.45312500 8399619.00000000 6634003.50000000 
0.00200    162086576.00000000 101106984.00000000 256030096.00000000 108647.67187500 8392869.00000000 6628655.50000000 
0.00300    161895920.00000000 100988192.00000000 255730000.00000000 108487.07812500 8381637.50000000 6619921.00000000 
0.00400    161627840.00000000 100823576.00000000 255308816.00000000 108263.35156250 8365972.50000000 6607571.50000000 
0.00500    161282928.00000000 100611176.00000000 254767840.00000000 107976.36718750 8345881.00000000 6591754.50000000 
0.00600    160862576.00000000 100352560.00000000 254107968.00000000 107626.03125000 8321367.50000000 6572497.00000000 
0.00700    160368160.00000000 100047752.00000000 253332560.00000000 107214.64062500 8292504.50000000 6549846.00000000 
0.00800    159799104.00000000 99697888.00000000 252441712.00000000 106741.06250000 8259374.50000000 6523787.00000000 
0.00900    159156976.00000000 99302336.00000000 251434320.00000000 106207.84375000 8222015.00000000 6494415.50000000 
0.01000    158444064.00000000 98863384.00000000 250316160.00000000 105615.04687500 8180429.00000000 6461690.50000000 
0.01100    157662304.00000000 98381120.00000000 249085424.00000000 104964.14062500 8134798.00000000 6425818.00000000 
0.01200    156811008.00000000 97855352.00000000 247745600.00000000 104256.54687500 8085084.50000000 6386779.50000000 
0.01300    155888800.00000000 97287280.00000000 246299616.00000000 103493.60937500 8031473.50000000 6344639.00000000 
0.01400    154900704.00000000 96678504.00000000 244748512.00000000 102676.33593750 7974025.00000000 6299485.50000000 
0.01500    153848336.00000000 96028720.00000000 243096464.00000000 101806.43750000 7912847.00000000 6251354.00000000 
0.01600    152731696.00000000 95341016.00000000 241343664.00000000 100885.94531250 7848037.50000000 6200397.00000000 
0.01700    151555520.00000000 94615072.00000000 239493744.00000000 99915.78125000  7779683.50000000 6146687.00000000 
0.01800    150318368.00000000 93852064.00000000 237550912.00000000 98898.40625000  7707971.50000000 6090257.00000000 
0.01900    149023216.00000000 93053368.00000000 235516480.00000000 97835.16406250  7632946.50000000 6031250.50000000 
0.02000    147673232.00000000 92219352.00000000 233396496.00000000 96729.21093750  7554792.00000000 5969789.00000000 
0.02100    146268768.00000000 91353888.00000000 231189488.00000000 95581.37500000  7473617.00000000 5905952.00000000 
0.02200    144813376.00000000 90455272.00000000 228902704.00000000 94393.83593750  7389538.50000000 5839842.50000000 
0.02300    143309168.00000000 89526704.00000000 226538944.00000000 93168.71093750  7302729.00000000 5771533.00000000 
0.02400    141757744.00000000 88569496.00000000 224100288.00000000 91908.46093750  7213306.00000000 5701207.50000000 
0.02500    140161376.00000000 87584192.00000000 221591536.00000000 90615.35156250  7121431.00000000 5628925.00000000 
0.02600    138522144.00000000 86572152.00000000 219016096.00000000 89292.06250000  7027261.00000000 5554830.50000000 
0.02700    136844816.00000000 85536304.00000000 216378528.00000000 87939.10156250  6930932.50000000 5479025.00000000 
0.02800    135128880.00000000 84476008.00000000 213683728.00000000 86560.85156250  6832561.50000000 5401639.50000000 
0.02900    133378832.00000000 83394968.00000000 210930640.00000000 85158.32812500  6732396.50000000 5322821.50000000 
0.03000    131596680.00000000 82293768.00000000 208128960.00000000 83734.22656250  6630459.00000000 5242618.50000000 
0.03100    129784352.00000000 81173392.00000000 205280336.00000000 82290.94531250  6527086.50000000 5161216.50000000 
0.03200    127944712.00000000 80036480.00000000 202387120.00000000 80830.79687500  6422279.00000000 5078766.50000000 
0.03300    126081152.00000000 78884464.00000000 199456112.00000000 79356.17187500  6316239.00000000 4995240.00000000 
0.03400    124194744.00000000 77718072.00000000 196488896.00000000 77868.55468750  6209119.50000000 4910916.00000000 
0.03500    122288352.00000000 76539600.00000000 193492832.00000000 76371.07031250  6101069.50000000 4825862.50000000 
0.03600    120365672.00000000 75349824.00000000 190467616.00000000 74866.17968750  5992262.50000000 4740172.50000000 
0.03700    118428928.00000000 74151136.00000000 187419632.00000000 73355.68750000  5882895.50000000 4654027.00000000 
0.03800    116480152.00000000 72946184.00000000 184354112.00000000 71841.18750000  5773005.50000000 4567530.50000000 
0.03900    114521976.00000000 71734440.00000000 181273472.00000000 70325.55468750  5662864.00000000 4480714.50000000 
0.04000    112556968.00000000 70517568.00000000 178179632.00000000 68810.82812500  5552482.50000000 4393778.00000000 
0.04100    110586496.00000000 69297328.00000000 175078240.00000000 67299.01562500  5442154.50000000 4306820.50000000 
0.04200    108614720.00000000 68076200.00000000 171975024.00000000 65792.26562500  5331857.50000000 4219917.50000000 
0.04300    106642600.00000000 66854068.00000000 168869824.00000000 64291.80078125  5221832.50000000 4133222.75000000 
0.04400    104673064.00000000 65633416.00000000 165769328.00000000 62799.85937500  5112216.50000000 4046807.75000000 
0.04500    102708336.00000000 64415700.00000000 162674848.00000000 61318.23437500  5003083.50000000 3960791.50000000 
0.04600    100750488.00000000 63201684.00000000 159591968.00000000 59849.05468750  4894607.00000000 3875253.50000000 
0.04700    98801968.00000000 61992572.00000000 156522784.00000000 58393.20312500  4786882.00000000 3790316.25000000 
0.04800    96864376.00000000 60790260.00000000 153469968.00000000 56952.85156250  4680013.50000000 3706035.00000000 
0.04900    94939304.00000000 59596312.00000000 150436320.00000000 55529.23828125  4574141.00000000 3622519.25000000 
0.05000    93029448.00000000 58410640.00000000 147427136.00000000 54123.68750000  4469328.50000000 3539867.25000000 
0.05100    91135968.00000000 57235200.00000000 144442928.00000000 52737.82031250  4365713.00000000 3458107.75000000 
0.05200    89261536.00000000 56070840.00000000 141488016.00000000 51372.85546875  4263364.50000000 3377358.25000000 
0.05300    87406984.00000000 54918480.00000000 138563904.00000000 50029.28125000  4162409.75000000 3297674.00000000 
0.05400    85573904.00000000 53779736.00000000 135674768.00000000 48708.67187500  4062911.75000000 3219137.75000000 
0.05500    83764896.00000000 52654724.00000000 132822368.00000000 47412.38281250  3964907.75000000 3141767.75000000 
0.05600    81979224.00000000 51544904.00000000 130006368.00000000 46140.46484375  3868552.00000000 3065690.00000000 
0.05700    80220320.00000000 50451096.00000000 127232088.00000000 44894.62890625  3773837.75000000 2990896.25000000 
0.05800    78488600.00000000 49373300.00000000 124499808.00000000 43674.82812500  3680864.00000000 2917465.50000000 
0.05900    76785576.00000000 48313644.00000000 121812376.00000000 42481.64062500  3589676.25000000 2845445.25000000 
0.06000    75112040.00000000 47271228.00000000 119170624.00000000 41316.39453125  3500331.75000000 2774854.25000000 
0.06100    73468520.00000000 46248152.00000000 116577352.00000000 40179.10937500  3412879.75000000 2705741.75000000 
0.06200    71856440.00000000 45244048.00000000 114032704.00000000 39069.83984375  3327340.75000000 2638156.50000000 
0.06300    70276952.00000000 44259716.00000000 111538520.00000000 37989.32421875  3243762.50000000 2572091.25000000 
0.06400    68729800.00000000 43295700.00000000 109095864.00000000 36937.52734375  3162162.50000000 2507560.25000000 
0.06500    67216352.00000000 42351780.00000000 106705808.00000000 35914.41015625  3082543.00000000 2444624.75000000 
0.06600    65737348.00000000 41429428.00000000 104369008.00000000 34920.42578125  3004975.75000000 2383297.75000000 
0.06700    64292648.00000000 40528060.00000000 102086416.00000000 33955.26171875  2929427.25000000 2323540.50000000 
0.06800    62882556.00000000 39648000.00000000 99858848.00000000 33019.43750000  2855938.00000000 2265399.75000000 
0.06900    61507744.00000000 38789752.00000000 97686280.00000000 32111.69531250  2784493.00000000 2208869.00000000 
0.07000    60168252.00000000 37953324.00000000 95569160.00000000 31232.93750000  2715070.00000000 2153943.25000000 
0.07100    58864188.00000000 37139036.00000000 93507512.00000000 30382.03906250  2647672.50000000 2100618.75000000 
0.07200    57595688.00000000 36346136.00000000 91502624.00000000 29558.90429688  2582277.75000000 2048864.75000000 
0.07300    56362552.00000000 35575608.00000000 89552272.00000000 28763.43750000  2518935.25000000 1998713.62500000 
0.07400    55164960.00000000 34827108.00000000 87658680.00000000 27994.67773438  2457555.00000000 1950113.25000000 
0.07500    54002124.00000000 34099836.00000000 85819648.00000000 27252.76367188  2398123.75000000 1903061.62500000 
0.07600    52874568.00000000 33394758.00000000 84035624.00000000 26536.55664062  2340630.75000000 1857516.00000000 
0.07700    51781480.00000000 32710740.00000000 82306336.00000000 25845.61132812  2285043.00000000 1813482.50000000 
0.07800    50722652.00000000 32048274.00000000 80631088.00000000 25179.58007812  2231326.25000000 1770930.87500000 
0.07900    49697532.00000000 31406972.00000000 79009096.00000000 24537.52148438  2179410.25000000 1729814.87500000 
0.08000    48705820.00000000 30786168.00000000 77439904.00000000 23918.99218750  2129286.50000000 1690115.75000000 
0.08100    47746644.00000000 30185710.00000000 75922488.00000000 23323.00585938  2080941.87500000 1651802.00000000 
0.08200    46819728.00000000 29605468.00000000 74455176.00000000 22748.98242188  2034288.12500000 1614815.37500000 
0.08300    45924532.00000000 29044772.00000000 73038032.00000000 22196.14453125  1989255.50000000 1579140.12500000 
0.08400    45059728.00000000 28503260.00000000 71669872.00000000 21663.87109375  1945840.00000000 1544744.62500000 
0.08500    44225584.00000000 27981124.00000000 70348976.00000000 21151.00000000  1903989.12500000 1511562.37500000 
0.08600    43420740.00000000 27476854.00000000 69075536.00000000 20657.17773438  1863633.25000000 1479593.75000000 
0.08700    42644312.00000000 26990648.00000000 67845880.00000000 20181.57031250  1824741.12500000 1448768.87500000 
0.08800    41895324.00000000 26521838.00000000 66661120.00000000 19723.06835938  1787234.50000000 1419036.00000000 
0.08900    41173604.00000000 26069808.00000000 65518732.00000000 19280.87304688  1751063.00000000 1390380.50000000 
0.09000    40477888.00000000 25634308.00000000 64417680.00000000 18854.77148438  1716188.62500000 1362743.25000000 
0.09100    39807480.00000000 25214474.00000000 63356576.00000000 18443.36132812  1682553.37500000 1336076.37500000 
0.09200    39160708.00000000 24809896.00000000 62333548.00000000 18046.21289062  1650087.87500000 1310343.00000000 
0.09300    38537940.00000000 24420256.00000000 61348056.00000000 17662.45507812  1618733.12500000 1285504.75000000 
0.09400    37937188.00000000 24044570.00000000 60397700.00000000 17291.15039062  1588444.37500000 1261506.37500000 
0.09500    37357752.00000000 23682338.00000000 59481760.00000000 16931.99218750  1559167.50000000 1238325.00000000 
0.09600    36799052.00000000 23333166.00000000 58598240.00000000 16583.86523438  1530852.75000000 1215892.87500000 
0.09700    36259904.00000000 22996552.00000000 57745912.00000000 16246.55468750  1503440.87500000 1194178.12500000 
0.09800    35739472.00000000 22671506.00000000 56923272.00000000 15919.02636719  1476884.75000000 1173140.75000000 
0.09900    35236780.00000000 22357814.00000000 56128816.00000000 15600.67480469  1451122.25000000 1152750.00000000 
0.10000    34750788.00000000 22054788.00000000 55361412.00000000 15290.92578125  1426099.50000000 1132950.62500000 
0.10100    34280460.00000000 21761896.00000000 54618844.00000000 14989.24511719  1401786.50000000 1113704.12500000 
0.10200    33825388.00000000 21478430.00000000 53900532.00000000 14695.02539062  1378137.00000000 1094992.87500000 
0.10300    33384618.00000000 21203950.00000000 53204544.00000000 14407.72167969  1355089.37500000 1076752.12500000 
0.10400    32956498.00000000 20937898.00000000 52530032.00000000 14126.93164062  1332612.37500000 1058966.00000000 
0.10500    32541216.00000000 20680008.00000000 51875132.00000000 13852.01074219  1310656.25000000 1041597.93750000 
0.10600    32137490.00000000 20429054.00000000 51238340.00000000 13582.64843750  1289169.12500000 1024616.75000000 
0.10700    31744332.00000000 20185252.00000000 50618956.00000000 13318.43750000  1268131.62500000 1007987.56250000 
0.10800    31360966.00000000 19947776.00000000 50015472.00000000 13058.88964844  1247513.62500000 991683.81250000 
0.10900    30987074.00000000 19716194.00000000 49426696.00000000 12803.82226562  1227249.75000000 975669.00000000 
0.11000    30621368.00000000 19490026.00000000 48851604.00000000 12552.51953125  1207335.25000000 959928.62500000 
0.11100    30263614.00000000 19268714.00000000 48289076.00000000 12305.18847656  1187736.25000000 944438.06250000 
0.11200    29913024.00000000 19052088.00000000 47737604.00000000 12061.30664062  1168402.75000000 929162.93750000 
0.11300    29568668.00000000 18839484.00000000 47196340.00000000 11820.57519531  1149320.87500000 914088.43750000 
0.11400    29230096.00000000 18630908.00000000 46664716.00000000 11583.06933594  1130478.37500000 899200.68750000 
0.11500    28897076.00000000 18425370.00000000 46141140.00000000 11348.32714844  1111829.25000000 884471.93750000 
0.11600    28568510.00000000 18223208.00000000 45625480.00000000 11116.25488281  1093386.25000000 869893.62500000 
0.11700    28244172.00000000 18023426.00000000 45116384.00000000 10886.85839844  1075095.75000000 855446.81250000 
0.11800    27923506.00000000 17825902.00000000 44612952.00000000 10659.83203125  1056959.25000000 841114.25000000 
0.11900    27605916.00000000 17630458.00000000 44114788.00000000 10435.23632812  1038952.06250000 826880.87500000 
0.12000    27291100.00000000 17436924.00000000 43620724.00000000 10212.86425781  1021064.81250000 812746.87500000 
0.12100    26978988.00000000 17244868.00000000 43130980.00000000 9992.81933594   1003295.75000000 798694.62500000 
0.12200    26668620.00000000 17054264.00000000 42644236.00000000 9774.94531250   985629.50000000 784726.37500000 
0.12300    26359914.00000000 16864432.00000000 42160108.00000000 9559.37597656   968061.87500000 770830.00000000 
0.12400    26052798.00000000 16675636.00000000 41678464.00000000 9346.01562500   950567.81250000 756990.93750000 
0.12500    25746698.00000000 16487347.00000000 41198240.00000000 9134.94824219   933164.37500000 743222.93750000 
0.12600    25441686.00000000 16299753.00000000 40719452.00000000 8926.11230469   915838.00000000 729507.50000000 
0.12700    25137064.00000000 16112411.00000000 40241716.00000000 8719.66601562   898595.31250000 715848.43750000 
0.12800    24833198.00000000 15925363.00000000 39764640.00000000 8515.55468750   881424.50000000 702251.25000000 
0.12900    24529518.00000000 15738420.00000000 39288100.00000000 8313.92773438   864332.75000000 688713.87500000 
0.13000    24226048.00000000 15551505.00000000 38811656.00000000 8114.82910156   847324.37500000 675232.50000000 
0.13100    23922802.00000000 15364499.00000000 38335216.00000000 7918.29199219   830398.31250000 661804.00000000 
0.13200    23619442.00000000 15177393.00000000 37858512.00000000 7724.48925781   813551.87500000 648442.56250000 
0.13300    23316104.00000000 14990215.00000000 37381980.00000000 7533.42529297   796803.43750000 635148.18750000 
0.13400    23012816.00000000 14802843.00000000 36904748.00000000 7345.21630859   780149.06250000 621928.87500000 
0.13500    22709252.00000000 14615226.00000000 36427452.00000000 7159.94531250   763601.06250000 608777.93750000 
0.13600    22405764.00000000 14427361.00000000 35949488.00000000 6977.70361328   747159.31250000 595712.62500000 
0.13700    22102044.00000000 14239356.00000000 35471752.00000000 6798.58740234   730834.62500000 582731.31250000 
0.13800    21798480.00000000 14051090.00000000 34993236.00000000 6622.67382812   714629.56250000 569844.62500000 
0.13900    21494964.00000000 13862768.00000000 34515024.00000000 6450.06298828   698564.56250000 557055.06250000 
0.14000    21191570.00000000 13674227.00000000 34036676.00000000 6280.81787109   682634.81250000 544370.31250000 
0.14100    20888352.00000000 13485636.00000000 33558300.00000000 6114.93603516   666861.93750000 531803.06250000 
0.14200    20585366.00000000 13297005.00000000 33079994.00000000 5952.62304688   651239.43750000 519348.87500000 
0.14300    20282958.00000000 13108508.00000000 32602102.00000000 5793.86865234   635781.06250000 507022.59375000 
0.14400    19980802.00000000 12919966.00000000 32124670.00000000 5638.71533203   620503.37500000 494828.18750000 
0.14500    19679622.00000000 12731726.00000000 31648482.00000000 5487.25927734   605408.56250000 482774.93750000 
0.14600    19379064.00000000 12543781.00000000 31172938.00000000 5339.46191406   590504.62500000 470866.46875000 
0.14700    19079442.00000000 12356134.00000000 30698696.00000000 5195.45312500   575802.81250000 459116.28125000 
0.14800    18780986.00000000 12168895.00000000 30225672.00000000 5055.16650391   561306.18750000 447522.93750000 
0.14900    18483866.00000000 11982171.00000000 29754538.00000000 4918.67675781   547024.81250000 436093.71875000 
0.15000    18187834.00000000 11796139.00000000 29285058.00000000 4785.93798828   532963.25000000 424838.93750000 
0.15100    17893520.00000000 11610843.00000000 28817710.00000000 4657.04394531   519135.18750000 413759.84375000 
0.15200    17600792.00000000 11426345.00000000 28353024.00000000 4531.92578125   505549.43750000 402871.78125000 
0.15300    17310112.00000000 11242785.00000000 27890800.00000000 4410.54101562   492198.81250000 392163.75000000 
0.15400    17021170.00000000 11060204.00000000 27431494.00000000 4292.90576172   479095.56250000 381650.75000000 
0.15500    16734479.00000000 10878808.00000000 26975156.00000000 4178.96240234   466244.53125000 371337.03125000 
0.15600    16450189.00000000 10698540.00000000 26522330.00000000 4068.63647461   453650.00000000 361220.56250000 
0.15700    16168288.00000000 10519741.00000000 26073234.00000000 3961.96411133   441320.71875000 351313.21875000 
0.15800    15888963.00000000 10342175.00000000 25627806.00000000 3858.82812500   429247.65625000 341608.00000000 
0.15900    15612312.00000000 10166262.00000000 25186472.00000000 3759.21362305   417450.46875000 332117.43750000 
0.16000    15338597.00000000 9991821.00000000 24749396.00000000 3662.98193359   405918.87500000 322835.59375000 
0.16100    15068043.00000000 9819153.00000000 24316862.00000000 3570.10400391   394660.15625000 313771.50000000 
0.16200    14800334.00000000 9648268.00000000 23888930.00000000 3480.50952148   383671.56250000 304921.31250000 
0.16300    14535880.00000000 9479125.00000000 23466008.00000000 3394.05322266   372958.21875000 296286.78125000 
0.16400    14274967.00000000 9311934.00000000 23048188.00000000 3310.73510742   362517.34375000 287870.03125000 
0.16500    14017379.00000000 9146724.00000000 22635478.00000000 3230.38525391   352346.87500000 279668.50000000 
0.16600    13763299.00000000 8983584.00000000 22228226.00000000 3152.97729492   342448.03125000 271682.75000000 
0.16700    13512855.00000000 8822520.00000000 21826458.00000000 3078.30957031   332818.31250000 263908.68750000 
0.16800    13266122.00000000 8663691.00000000 21430300.00000000 3006.35156250   323454.40625000 256350.70312500 
0.16900    13023181.00000000 8507083.00000000 21040334.00000000 2937.02148438   314357.96875000 249005.95312500 
0.17000    12783969.00000000 8352768.00000000 20655938.00000000 2870.17724609   305521.25000000 241866.90625000 
