# SAXS profile: number of points = 501, q_min = 0, q_max = 0.5, delta_q = 0.001
#    q    intensity 
0.00000    162238272.00000000 101202112.00000000 256271856.00000000 99456.47656250  8033819.50000000 6345110.50000000 
0.00100    162212528.00000000 101185552.00000000 256229104.00000000 99433.30468750  8032261.50000000 6343866.50000000 
0.00200    162132736.00000000 101136384.00000000 256103552.00000000 99364.50000000  8027439.00000000 6340105.00000000 
0.00300    162000848.00000000 101054032.00000000 255894176.00000000 99250.78125000  8019497.50000000 6333855.50000000 
0.00400    161813600.00000000 100939288.00000000 255601072.00000000 99091.15625000  8008369.50000000 6325142.00000000 
0.00500    161572848.00000000 100792184.00000000 255224416.00000000 98886.45312500  7994055.50000000 6313933.00000000 
0.00600    161278208.00000000 100612328.00000000 254764048.00000000 98636.65625000  7976648.00000000 6300255.00000000 
0.00700    160931440.00000000 100399528.00000000 254222768.00000000 98342.38281250  7956039.50000000 6284128.00000000 
0.00800    160534000.00000000 100155544.00000000 253598416.00000000 98004.14843750  7932397.00000000 6265574.50000000 
0.00900    160080016.00000000 99879720.00000000 252894352.00000000 97621.62500000  7905666.00000000 6244618.50000000 
0.01000    159577120.00000000 99571784.00000000 252108592.00000000 97196.71093750  7875891.50000000 6221272.00000000 
0.01100    159023696.00000000 99233488.00000000 251242816.00000000 96728.63281250  7843142.00000000 6195580.00000000 
0.01200    158422096.00000000 98864704.00000000 250299264.00000000 96218.42968750  7807391.50000000 6167565.50000000 
0.01300    157770832.00000000 98464944.00000000 249277152.00000000 95667.49218750  7768761.00000000 6137291.50000000 
0.01400    157070944.00000000 98035248.00000000 248178480.00000000 95075.31250000  7727215.00000000 6104724.50000000 
0.01500    156319632.00000000 97575440.00000000 247005008.00000000 94443.64843750  7682864.50000000 6069921.00000000 
0.01600    155520032.00000000 97087584.00000000 245756784.00000000 93772.60156250  7635757.00000000 6032952.00000000 
0.01700    154676192.00000000 96569616.00000000 244434336.00000000 93063.89062500  7585899.00000000 5993867.00000000 
0.01800    153787360.00000000 96023912.00000000 243041296.00000000 92318.09375000  7533389.00000000 5952709.50000000 
0.01900    152851648.00000000 95451176.00000000 241577440.00000000 91535.96093750  7478306.00000000 5909497.00000000 
0.02000    151873888.00000000 94851856.00000000 240045744.00000000 90718.45312500  7420660.50000000 5864286.50000000 
0.02100    150851376.00000000 94225088.00000000 238446000.00000000 89867.38281250  7360559.50000000 5817153.50000000 
0.02200    149788528.00000000 93573360.00000000 236780032.00000000 88983.02343750  7298060.50000000 5768066.50000000 
0.02300    148684688.00000000 92896712.00000000 235051600.00000000 88066.74218750  7233238.00000000 5717250.00000000 
0.02400    147540336.00000000 92195072.00000000 233258960.00000000 87119.64062500  7166147.50000000 5664602.00000000 
0.02500    146357248.00000000 91469616.00000000 231406208.00000000 86143.32812500  7096893.00000000 5610279.00000000 
0.02600    145137040.00000000 90721624.00000000 229496544.00000000 85139.11718750  7025532.50000000 5554287.50000000 
0.02700    143881696.00000000 89951120.00000000 227528720.00000000 84107.67968750  6952151.00000000 5496703.50000000 
0.02800    142590480.00000000 89159080.00000000 225505328.00000000 83050.19531250  6876842.00000000 5437572.50000000 
0.02900    141265792.00000000 88346440.00000000 223429664.00000000 81968.53125000  6799638.50000000 5376990.50000000 
0.03000    139908112.00000000 87513280.00000000 221302624.00000000 80863.68750000  6720692.50000000 5315033.00000000 
0.03100    138519760.00000000 86661784.00000000 219128352.00000000 79737.46875000  6640070.50000000 5251760.00000000 
0.03200    137102096.00000000 85790680.00000000 216905296.00000000 78590.58593750  6557855.00000000 5187217.00000000 
0.03300    135656048.00000000 84902792.00000000 214637952.00000000 77424.96875000  6474112.00000000 5121460.00000000 
0.03400    134181944.00000000 83997696.00000000 212328592.00000000 76241.79687500  6388982.00000000 5054606.00000000 
0.03500    132683304.00000000 83076960.00000000 209979712.00000000 75041.96875000  6302459.50000000 4986677.50000000 
0.03600    131159520.00000000 82141440.00000000 207591824.00000000 73827.69531250  6214753.00000000 4917784.00000000 
0.03700    129613672.00000000 81190992.00000000 205165808.00000000 72600.34375000  6125880.00000000 4847981.00000000 
0.03800    128045456.00000000 80227520.00000000 202708144.00000000 71360.74218750  6035938.00000000 4777307.50000000 
0.03900    126457816.00000000 79251752.00000000 200219712.00000000 70110.20312500  5945051.00000000 4705908.00000000 
0.04000    124851512.00000000 78264280.00000000 197700144.00000000 68850.73437500  5853285.50000000 4633797.50000000 
0.04100    123228224.00000000 77265816.00000000 195153008.00000000 67583.05468750  5760715.50000000 4561060.50000000 
0.04200    121588688.00000000 76257504.00000000 192582144.00000000 66309.44531250  5667455.50000000 4487781.00000000 
0.04300    119935112.00000000 75239928.00000000 189988480.00000000 65030.62109375  5573601.00000000 4413993.50000000 
0.04400    118268640.00000000 74214720.00000000 187372784.00000000 63747.84765625  5479242.00000000 4339811.00000000 
0.04500    116590728.00000000 73182224.00000000 184740576.00000000 62462.85546875  5384434.50000000 4265276.00000000 
0.04600    114902952.00000000 72143192.00000000 182091968.00000000 61176.43750000  5289307.50000000 4190481.50000000 
0.04700    113205904.00000000 71098544.00000000 179428560.00000000 59890.46093750  5193945.50000000 4115467.50000000 
0.04800    111502344.00000000 70048936.00000000 176753264.00000000 58605.82812500  5098384.00000000 4040317.00000000 
0.04900    109792744.00000000 68995528.00000000 174068224.00000000 57323.71093750  5002790.50000000 3965104.75000000 
0.05000    108078472.00000000 67938464.00000000 171376336.00000000 56046.06250000  4907131.00000000 3889893.00000000 
0.05100    106360800.00000000 66879668.00000000 168679152.00000000 54772.93750000  4811647.50000000 3814719.25000000 
0.05200    104640832.00000000 65819264.00000000 165978512.00000000 53505.87500000  4716267.00000000 3739646.00000000 
0.05300    102920848.00000000 64758388.00000000 163275952.00000000 52246.74609375  4621184.50000000 3664778.25000000 
0.05400    101202072.00000000 63697404.00000000 160575392.00000000 50995.89453125  4526379.00000000 3590149.75000000 
0.05500    99484632.00000000 62637504.00000000 157876880.00000000 49754.52343750  4432025.00000000 3515833.00000000 
0.05600    97770712.00000000 61579000.00000000 155183424.00000000 48523.55078125  4338087.50000000 3441869.50000000 
0.05700    96060864.00000000 60523428.00000000 152495376.00000000 47304.42187500  4244738.50000000 3368318.50000000 
0.05800    94356856.00000000 59470608.00000000 149817296.00000000 46097.38281250  4151989.00000000 3295246.00000000 
0.05900    92659832.00000000 58421708.00000000 147148160.00000000 44903.80859375  4059905.25000000 3222691.25000000 
0.06000    90970600.00000000 57377424.00000000 144491216.00000000 43724.42968750  3968583.00000000 3150698.50000000 
0.06100    89290928.00000000 56338124.00000000 141849296.00000000 42560.33984375  3878080.00000000 3079344.00000000 
0.06200    87620520.00000000 55304608.00000000 139220688.00000000 41411.78515625  3788434.00000000 3008658.25000000 
0.06300    85960992.00000000 54277808.00000000 136609616.00000000 40280.15625000  3699730.50000000 2938692.25000000 
0.06400    84314264.00000000 53258100.00000000 134018248.00000000 39165.38671875  3611981.00000000 2869481.00000000 
0.06500    82680592.00000000 52246156.00000000 131446312.00000000 38068.85156250  3525283.25000000 2801054.00000000 
0.06600    81060776.00000000 51242620.00000000 128896104.00000000 36991.02734375  3439662.00000000 2733475.50000000 
0.06700    79455624.00000000 50247640.00000000 126367848.00000000 35931.98046875  3355182.75000000 2666790.00000000 
0.06800    77866280.00000000 49262092.00000000 123864920.00000000 34892.60156250  3271875.50000000 2600995.00000000 
0.06900    76293552.00000000 48286224.00000000 121387600.00000000 33873.35546875  3189783.50000000 2536173.00000000 
0.07000    74738088.00000000 47320832.00000000 118936168.00000000 32874.90234375  3108931.25000000 2472322.00000000 
0.07100    73200976.00000000 46366424.00000000 116513456.00000000 31897.15625000  3029395.50000000 2409457.75000000 
0.07200    71682656.00000000 45422828.00000000 114119160.00000000 30940.67382812  2951180.00000000 2347630.25000000 
0.07300    70183416.00000000 44490988.00000000 111755744.00000000 30005.68750000  2874327.75000000 2286866.50000000 
0.07400    68704736.00000000 43571448.00000000 109423352.00000000 29092.91406250  2798872.75000000 2227200.25000000 
0.07500    67246920.00000000 42664536.00000000 107123176.00000000 28201.95898438  2724822.00000000 2168608.00000000 
0.07600    65809612.00000000 41770252.00000000 104855352.00000000 27333.17968750  2652202.25000000 2111165.25000000 
0.07700    64394240.00000000 40889032.00000000 102621944.00000000 26486.83984375  2581058.50000000 2054838.12500000 
0.07800    63001400.00000000 40020944.00000000 100422472.00000000 25662.91601562  2511366.00000000 1999667.50000000 
0.07900    61630760.00000000 39166804.00000000 98258040.00000000 24861.48437500  2443175.25000000 1945657.62500000 
0.08000    60283700.00000000 38326644.00000000 96130240.00000000 24082.79101562  2376491.50000000 1892838.75000000 
0.08100    58959796.00000000 37500640.00000000 94038144.00000000 23326.47070312  2311321.50000000 1841194.00000000 
0.08200    57659648.00000000 36688664.00000000 91983392.00000000 22592.59570312  2247682.25000000 1790735.62500000 
0.08300    56383404.00000000 35891400.00000000 89965768.00000000 21881.19531250  2185568.25000000 1741480.62500000 
0.08400    55131208.00000000 35108692.00000000 87985848.00000000 21191.92187500  2124974.25000000 1693421.12500000 
0.08500    53903748.00000000 34341056.00000000 86043696.00000000 20524.71484375  2065915.12500000 1646564.37500000 
0.08600    52700560.00000000 33588308.00000000 84140744.00000000 19879.51171875  2008400.25000000 1600895.12500000 
0.08700    51522404.00000000 32850424.00000000 82275576.00000000 19255.99414062  1952405.12500000 1556437.37500000 
0.08800    50369144.00000000 32127626.00000000 80449216.00000000 18653.95117188  1897927.25000000 1513158.00000000 
0.08900    49240480.00000000 31420230.00000000 78661920.00000000 18072.87304688  1844975.00000000 1471076.00000000 
0.09000    48136796.00000000 30727910.00000000 76913304.00000000 17512.81445312  1793513.75000000 1430173.62500000 
0.09100    47057784.00000000 30050662.00000000 75203872.00000000 16973.14062500  1743557.87500000 1390446.75000000 
0.09200    46003912.00000000 29388712.00000000 73533104.00000000 16453.63867188  1695065.25000000 1351868.50000000 
0.09300    44974992.00000000 28742102.00000000 71900944.00000000 15953.99902344  1648046.87500000 1314448.37500000 
0.09400    43970472.00000000 28110226.00000000 70308112.00000000 15473.73144531  1602477.25000000 1278170.37500000 
0.09500    42990668.00000000 27493620.00000000 68753384.00000000 15012.44628906  1558328.25000000 1243009.25000000 
0.09600    42035244.00000000 26891932.00000000 67236344.00000000 14569.71093750  1515591.25000000 1208951.87500000 
0.09700    41104228.00000000 26305144.00000000 65758052.00000000 14145.14648438  1474245.87500000 1175987.12500000 
0.09800    40196996.00000000 25732988.00000000 64317132.00000000 13738.01171875  1434262.37500000 1144108.00000000 
0.09900    39313836.00000000 25175622.00000000 62913348.00000000 13348.24511719  1395625.12500000 1113275.25000000 
0.10000    38453968.00000000 24632706.00000000 61547092.00000000 12975.08300781  1358290.37500000 1083487.12500000 
0.10100    37617756.00000000 24104056.00000000 60216768.00000000 12618.18457031  1322256.00000000 1054702.37500000 
0.10200    36804216.00000000 23589570.00000000 58922856.00000000 12276.91699219  1287478.62500000 1026923.93750000 
0.10300    36013200.00000000 23089008.00000000 57664200.00000000 11950.78613281  1253936.25000000 1000114.93750000 
0.10400    35244500.00000000 22602268.00000000 56440580.00000000 11639.32226562  1221599.62500000 974253.56250000 
0.10500    34498252.00000000 22129128.00000000 55252136.00000000 11342.10156250  1190431.12500000 949331.81250000 
0.10600    33773220.00000000 21669320.00000000 54097116.00000000 11058.30273438  1160413.12500000 925307.06250000 
0.10700    33069536.00000000 21222582.00000000 52975680.00000000 10787.71484375  1131507.62500000 902162.68750000 
0.10800    32386372.00000000 20788684.00000000 51886776.00000000 10529.54296875  1103678.12500000 879876.12500000 
0.10900    31723724.00000000 20367448.00000000 50830056.00000000 10283.50585938  1076904.62500000 858416.93750000 
0.11000    31081152.00000000 19958636.00000000 49804728.00000000 10048.89257812  1051138.37500000 837763.87500000 
0.11100    30458136.00000000 19561776.00000000 48810276.00000000 9825.31835938   1026363.62500000 817896.56250000 
0.11200    29854110.00000000 19176990.00000000 47845744.00000000 9612.12695312   1002535.37500000 798779.37500000 
0.11300    29268448.00000000 18803552.00000000 46910624.00000000 9408.96289062   979622.62500000 780387.87500000 
0.11400    28701186.00000000 18441548.00000000 46003780.00000000 9215.26855469   957603.93750000 762705.12500000 
0.11500    28151644.00000000 18090742.00000000 45125072.00000000 9030.42871094   936435.68750000 745701.75000000 
0.11600    27619122.00000000 17750314.00000000 44273716.00000000 8854.04296875   916084.93750000 729351.81250000 
0.11700    27103422.00000000 17420508.00000000 43448880.00000000 8685.69824219   896521.06250000 713620.81250000 
0.11800    26603552.00000000 17100678.00000000 42649180.00000000 8524.75488281   877704.62500000 698491.18750000 
0.11900    26119768.00000000 16790902.00000000 41874540.00000000 8370.88769531   859617.25000000 683943.43750000 
0.12000    25651042.00000000 16490512.00000000 41124080.00000000 8223.57324219   842214.68750000 669940.43750000 
0.12100    25197084.00000000 16199541.00000000 40396912.00000000 8082.46582031   825478.37500000 656473.93750000 
0.12200    24757266.00000000 15917344.00000000 39692300.00000000 7946.99707031   809362.12500000 643497.50000000 
0.12300    24331324.00000000 15644048.00000000 39009536.00000000 7816.90625000   793842.06250000 631004.81250000 
0.12400    23918518.00000000 15378843.00000000 38347804.00000000 7691.73193359   778886.18750000 618964.68750000 
0.12500    23518544.00000000 15121755.00000000 37706276.00000000 7570.98681641   764471.31250000 607354.18750000 
0.12600    23130802.00000000 14872444.00000000 37084460.00000000 7454.49951172   750565.06250000 596156.12500000 
0.12700    22754862.00000000 14630671.00000000 36481316.00000000 7341.76416016   737136.00000000 585335.50000000 
0.12800    22390082.00000000 14396054.00000000 35896308.00000000 7232.51318359   724158.31250000 574891.06250000 
0.12900    22036404.00000000 14168355.00000000 35328536.00000000 7126.40527344   711612.00000000 564783.37500000 
0.13000    21693042.00000000 13947316.00000000 34777644.00000000 7023.09765625   699458.68750000 554999.37500000 
0.13100    21359650.00000000 13732508.00000000 34242216.00000000 6922.30029297   687681.31250000 545514.68750000 
0.13200    21035698.00000000 13523814.00000000 33722016.00000000 6823.77246094   676250.12500000 536315.81250000 
0.13300    20720856.00000000 13321033.00000000 33216682.00000000 6727.25439453   665156.87500000 527384.81250000 
0.13400    20414744.00000000 13123725.00000000 32725020.00000000 6632.42285156   654355.25000000 518698.59375000 
0.13500    20116604.00000000 12931678.00000000 32246552.00000000 6539.16210938   643835.37500000 510241.53125000 
0.13600    19826358.00000000 12744657.00000000 31780466.00000000 6447.18212891   633582.56250000 502000.25000000 
0.13700    19543628.00000000 12562408.00000000 31326356.00000000 6356.27539062   623565.56250000 493949.56250000 
0.13800    19267764.00000000 12384687.00000000 30883616.00000000 6266.29248047   613771.37500000 486082.84375000 
0.13900    18998628.00000000 12211394.00000000 30451628.00000000 6177.04833984   604183.06250000 478388.31250000 
0.14000    18735850.00000000 12042094.00000000 30029726.00000000 6088.32958984   594777.81250000 470841.37500000 
0.14100    18478870.00000000 11876713.00000000 29617522.00000000 6000.15576172   585541.12500000 463441.75000000 
0.14200    18227512.00000000 11714925.00000000 29214028.00000000 5912.26953125   576457.37500000 456166.37500000 
0.14300    17981492.00000000 11556636.00000000 28819218.00000000 5824.53906250   567516.87500000 449004.78125000 
0.14400    17740134.00000000 11401580.00000000 28432408.00000000 5736.92236328   558701.18750000 441947.87500000 
0.14500    17503672.00000000 11249552.00000000 28053300.00000000 5649.32177734   549994.25000000 434988.87500000 
0.14600    17271506.00000000 11100385.00000000 27681044.00000000 5561.69873047   541391.06250000 428115.43750000 
0.14700    17043400.00000000 10953988.00000000 27315556.00000000 5473.99804688   532875.93750000 421319.81250000 
0.14800    16819088.00000000 10810096.00000000 26956108.00000000 5386.05419922   524445.93750000 414586.43750000 
0.14900    16598314.00000000 10668494.00000000 26602514.00000000 5297.90283203   516078.93750000 407915.31250000 
0.15000    16380773.00000000 10529189.00000000 26254438.00000000 5209.54052734   507774.50000000 401299.40625000 
0.15100    16166302.00000000 10391865.00000000 25911300.00000000 5120.91259766   499523.65625000 394729.53125000 
0.15200    15954772.00000000 10256596.00000000 25572926.00000000 5032.07714844   491323.25000000 388201.43750000 
0.15300    15745817.00000000 10123026.00000000 25238930.00000000 4942.92626953   483162.00000000 381708.15625000 
0.15400    15539306.00000000 9991102.00000000 24908710.00000000 4853.54443359   475031.65625000 375246.43750000 
0.15500    15335196.00000000 9860837.00000000 24582484.00000000 4763.93359375   466936.93750000 368812.56250000 
0.15600    15133100.00000000 9731927.00000000 24259788.00000000 4674.09765625   458863.81250000 362398.50000000 
0.15700    14932886.00000000 9604427.00000000 23940266.00000000 4584.10546875   450815.90625000 356011.75000000 
0.15800    14734506.00000000 9478084.00000000 23623578.00000000 4493.94189453   442787.15625000 349637.62500000 
0.15900    14537878.00000000 9352983.00000000 23309852.00000000 4403.74365234   434775.43750000 343285.75000000 
0.16000    14342683.00000000 9228939.00000000 22998760.00000000 4313.45458984   426775.75000000 336945.03125000 
0.16100    14149049.00000000 9105963.00000000 22690142.00000000 4223.22412109   418801.18750000 330620.96875000 
0.16200    13956683.00000000 8983820.00000000 22383794.00000000 4133.04150391   410833.34375000 324308.71875000 
0.16300    13765598.00000000 8862620.00000000 22079220.00000000 4042.99853516   402880.50000000 318008.93750000 
0.16400    13575628.00000000 8742233.00000000 21776882.00000000 3953.18896484   394942.75000000 311724.15625000 
0.16500    13386748.00000000 8622544.00000000 21476244.00000000 3863.64135742   387023.09375000 305449.59375000 
0.16600    13199025.00000000 8503665.00000000 21177470.00000000 3774.45263672   379118.75000000 299191.75000000 
0.16700    13012186.00000000 8385374.50000000 20880138.00000000 3685.66284180   371230.84375000 292947.90625000 
0.16800    12826179.00000000 8267776.50000000 20584466.00000000 3597.34594727   363364.03125000 286721.78125000 
0.16900    12641256.00000000 8150871.50000000 20290192.00000000 3509.64892578   355523.56250000 280516.62500000 
0.17000    12457074.00000000 8034532.50000000 19997500.00000000 3422.57885742   347706.62500000 274327.59375000 
