# SAXS profile: number of points = 501, q_min = 0, q_max = 0.5, delta_q = 0.001
#    q    intensity 
0.00000    162233600.00000000 101202000.00000000 256269904.00000000 101656.96093750 8122227.00000000 6414951.50000000 
0.00100    162201728.00000000 101180288.00000000 256216816.00000000 101627.64062500 8120223.50000000 6413333.50000000 
0.00200    162100352.00000000 101115976.00000000 256053408.00000000 101540.31250000 8114076.00000000 6408534.00000000 
0.00300    161930560.00000000 101008336.00000000 255778400.00000000 101394.72656250 8103893.50000000 6400484.00000000 
0.00400    161685872.00000000 100859584.00000000 255397664.00000000 101192.71093750 8089656.50000000 6389370.50000000 
0.00500    161372416.00000000 100666824.00000000 254909248.00000000 100933.00000000 8071406.00000000 6375023.00000000 
0.00600    160990832.00000000 100431344.00000000 254308848.00000000 100615.73437500 8049153.50000000 6357526.00000000 
0.00700    160541296.00000000 100156000.00000000 253605280.00000000 100243.53125000 8022933.00000000 6336970.50000000 
0.00800    160021008.00000000 99838456.00000000 252796464.00000000 99815.25781250  7992816.50000000 6313291.00000000 
0.00900    159437712.00000000 99481064.00000000 251882592.00000000 99332.57031250  7958881.00000000 6286612.00000000 
0.01000    158790432.00000000 99082536.00000000 250865936.00000000 98796.57812500  7921119.00000000 6256991.50000000 
0.01100    158079472.00000000 98644800.00000000 249748208.00000000 98207.63281250  7879613.00000000 6224389.50000000 
0.01200    157304144.00000000 98166864.00000000 248530480.00000000 97567.58593750  7834461.50000000 6188916.50000000 
0.01300    156464480.00000000 97651176.00000000 247215376.00000000 96877.75781250  7785715.00000000 6150675.00000000 
0.01400    155564208.00000000 97097064.00000000 245804336.00000000 96138.93750000  7733532.50000000 6109637.00000000 
0.01500    154605616.00000000 96507280.00000000 244300144.00000000 95352.07031250  7677891.50000000 6065951.00000000 
0.01600    153588032.00000000 95881416.00000000 242704272.00000000 94519.89843750  7618958.00000000 6019626.50000000 
0.01700    152515952.00000000 95220832.00000000 241019744.00000000 93643.28125000  7556803.00000000 5970851.00000000 
0.01800    151386272.00000000 94525952.00000000 239248576.00000000 92723.61718750  7491529.00000000 5919562.50000000 
0.01900    150204400.00000000 93797520.00000000 237393136.00000000 91762.53125000  7423272.50000000 5865902.50000000 
0.02000    148969408.00000000 93038376.00000000 235455888.00000000 90763.45312500  7352143.50000000 5810004.50000000 
0.02100    147686768.00000000 92248112.00000000 233440912.00000000 89726.31250000  7278240.50000000 5751935.00000000 
0.02200    146354080.00000000 91427568.00000000 231352176.00000000 88653.24218750  7201665.00000000 5691742.50000000 
0.02300    144975664.00000000 90578648.00000000 229186848.00000000 87546.77343750  7122600.50000000 5629599.50000000 
0.02400    143554032.00000000 89701952.00000000 226953840.00000000 86408.70312500  7041089.00000000 5565539.50000000 
0.02500    142088288.00000000 88799408.00000000 224654864.00000000 85241.61718750  6957357.00000000 5499713.00000000 
0.02600    140585216.00000000 87872080.00000000 222292416.00000000 84046.26562500  6871484.00000000 5432191.00000000 
0.02700    139042560.00000000 86920560.00000000 219869216.00000000 82824.82812500  6783556.50000000 5363081.00000000 
0.02800    137463920.00000000 85946968.00000000 217389248.00000000 81580.90625000  6693828.50000000 5292508.00000000 
0.02900    135850384.00000000 84951944.00000000 214856400.00000000 80314.50000000  6602276.50000000 5220542.50000000 
0.03000    134206088.00000000 83937952.00000000 212272112.00000000 79029.36718750  6509196.00000000 5147299.00000000 
0.03100    132533608.00000000 82905192.00000000 209643360.00000000 77726.75781250  6414653.50000000 5072901.50000000 
0.03200    130832792.00000000 81855240.00000000 206971280.00000000 76408.92187500  6318750.50000000 4997450.00000000 
0.03300    129106704.00000000 80788720.00000000 204257040.00000000 75077.23437500  6221713.00000000 4921081.50000000 
0.03400    127357408.00000000 79708768.00000000 201507936.00000000 73734.66406250  6123552.50000000 4843869.00000000 
0.03500    125587304.00000000 78614760.00000000 198726944.00000000 72383.32812500  6024500.00000000 4765928.50000000 
0.03600    123799008.00000000 77509680.00000000 195914032.00000000 71024.62500000  5924691.00000000 4687354.00000000 
0.03700    121994784.00000000 76394832.00000000 193077760.00000000 69660.85156250  5824215.00000000 4608274.00000000 
0.03800    120176056.00000000 75270304.00000000 190215728.00000000 68293.59375000  5723211.00000000 4528782.50000000 
0.03900    118344248.00000000 74137552.00000000 187333824.00000000 66924.64843750  5621841.00000000 4448938.50000000 
0.04000    116503392.00000000 72997576.00000000 184437568.00000000 65556.43750000  5520209.00000000 4368876.00000000 
0.04100    114654960.00000000 71853360.00000000 181528208.00000000 64190.23046875  5418417.50000000 4288692.00000000 
0.04200    112799072.00000000 70704600.00000000 178609584.00000000 62827.66406250  5316624.00000000 4208528.00000000 
0.04300    110940952.00000000 69553392.00000000 175683056.00000000 61471.01953125  5214884.50000000 4128372.25000000 
0.04400    109079232.00000000 68399944.00000000 172754112.00000000 60120.88671875  5113381.50000000 4048391.25000000 
0.04500    107218792.00000000 67246560.00000000 169823184.00000000 58779.96484375  5012253.50000000 3968649.00000000 
0.04600    105360216.00000000 66094064.00000000 166896304.00000000 57448.83984375  4911525.50000000 3889259.00000000 
0.04700    103505168.00000000 64943356.00000000 163973680.00000000 56129.49609375  4811326.50000000 3810276.50000000 
0.04800    101655768.00000000 63795728.00000000 161059632.00000000 54822.94531250  4711756.50000000 3731767.75000000 
0.04900    99813448.00000000 62652136.00000000 158155936.00000000 53530.52343750  4612940.50000000 3653834.75000000 
0.05000    97979496.00000000 61513788.00000000 155266416.00000000 52253.25000000  4514938.00000000 3576540.00000000 
0.05100    96156360.00000000 60381168.00000000 152393008.00000000 50992.51562500  4417903.00000000 3499948.50000000 
0.05200    94345528.00000000 59256048.00000000 149537184.00000000 49749.53906250  4321769.50000000 3424120.75000000 
0.05300    92547904.00000000 58138536.00000000 146703328.00000000 48524.63671875  4226717.50000000 3349124.25000000 
0.05400    90765368.00000000 57030392.00000000 143891824.00000000 47319.32812500  4132872.00000000 3275029.25000000 
0.05500    88998400.00000000 55931292.00000000 141105264.00000000 46134.28515625  4040190.75000000 3201871.25000000 
0.05600    87249488.00000000 54843100.00000000 138346832.00000000 44969.77734375  3948795.50000000 3129720.25000000 
0.05700    85520312.00000000 53765888.00000000 135617248.00000000 43826.77734375  3858737.25000000 3058594.00000000 
0.05800    83809176.00000000 52700832.00000000 132917288.00000000 42706.36718750  3770067.00000000 2988546.00000000 
0.05900    82119880.00000000 51648716.00000000 130250760.00000000 41608.34375000  3682830.75000000 2919633.50000000 
0.06000    80452904.00000000 50609700.00000000 127617976.00000000 40532.97656250  3597091.50000000 2851884.75000000 
0.06100    78809344.00000000 49585032.00000000 125021928.00000000 39481.48437500  3512843.25000000 2785307.25000000 
0.06200    77188184.00000000 48574664.00000000 122462752.00000000 38453.59375000  3430176.00000000 2719982.00000000 
0.06300    75592440.00000000 47578932.00000000 119941728.00000000 37449.53125000  3349085.50000000 2655884.50000000 
0.06400    74021936.00000000 46599000.00000000 117460712.00000000 36469.43750000  3269632.25000000 2593053.50000000 
0.06500    72477408.00000000 45634924.00000000 115019264.00000000 35513.82812500  3191780.00000000 2531499.25000000 
0.06600    70959688.00000000 44686944.00000000 112620248.00000000 34582.17187500  3115606.25000000 2471254.50000000 
0.06700    69468672.00000000 43756092.00000000 110263824.00000000 33674.87890625  3041081.00000000 2412314.00000000 
0.06800    68004840.00000000 42841728.00000000 107950392.00000000 32791.92578125  2968258.75000000 2354701.25000000 
0.06900    66569376.00000000 41944564.00000000 105680776.00000000 31932.60937500  2897106.00000000 2298382.50000000 
0.07000    65162412.00000000 41064832.00000000 103456024.00000000 31097.10742188  2827654.75000000 2243441.50000000 
0.07100    63784100.00000000 40202992.00000000 101275272.00000000 30285.16015625  2759875.50000000 2189785.75000000 
0.07200    62433864.00000000 39358400.00000000 99140384.00000000 29496.72265625  2693758.25000000 2137452.00000000 
0.07300    61113132.00000000 38532124.00000000 97049920.00000000 28731.08007812  2629342.75000000 2086437.12500000 
0.07400    59821144.00000000 37723984.00000000 95006288.00000000 27988.31250000  2566560.75000000 2036735.87500000 
0.07500    58558100.00000000 36933432.00000000 93008176.00000000 27267.51757812  2505433.50000000 1988335.12500000 
0.07600    57324268.00000000 36160908.00000000 91055632.00000000 26568.55273438  2445936.75000000 1941200.37500000 
0.07700    56119540.00000000 35406636.00000000 89149440.00000000 25890.96679688  2388026.25000000 1895360.87500000 
0.07800    54943512.00000000 34670368.00000000 87288136.00000000 25234.24023438  2331733.25000000 1850767.37500000 
0.07900    53795948.00000000 33952060.00000000 85472264.00000000 24597.87695312  2276992.25000000 1807381.12500000 
0.08000    52677608.00000000 33251588.00000000 83701328.00000000 23981.33789062  2223794.00000000 1765238.75000000 
0.08100    51587228.00000000 32568760.00000000 81975928.00000000 23384.39453125  2172103.75000000 1724283.50000000 
0.08200    50524852.00000000 31903394.00000000 80293912.00000000 22805.88671875  2121878.00000000 1684495.00000000 
0.08300    49489948.00000000 31255448.00000000 78655480.00000000 22245.89062500  2073104.00000000 1645841.00000000 
0.08400    48482788.00000000 30624450.00000000 77061456.00000000 21703.48632812  2025756.37500000 1608321.50000000 
0.08500    47502196.00000000 30010624.00000000 75509440.00000000 21178.09765625  1979775.75000000 1571895.37500000 
0.08600    46548684.00000000 29413242.00000000 73999952.00000000 20669.03515625  1935148.87500000 1536522.50000000 
0.08700    45620960.00000000 28832284.00000000 72531768.00000000 20176.24804688  1891828.62500000 1502195.50000000 
0.08800    44718760.00000000 28267720.00000000 71103472.00000000 19698.49804688  1849784.00000000 1468874.62500000 
0.08900    43841920.00000000 27718736.00000000 69716624.00000000 19235.75390625  1808978.37500000 1436550.75000000 
0.09000    42990080.00000000 27185632.00000000 68368336.00000000 18787.04492188  1769378.50000000 1405151.62500000 
0.09100    42161940.00000000 26667480.00000000 67058524.00000000 18351.80664062  1730934.00000000 1374683.87500000 
0.09200    41357488.00000000 26164556.00000000 65785840.00000000 17930.00195312  1693621.25000000 1345127.25000000 
0.09300    40576600.00000000 25675890.00000000 64550284.00000000 17520.67578125  1657389.25000000 1316408.00000000 
0.09400    39817784.00000000 25201642.00000000 63350164.00000000 17123.39257812  1622203.50000000 1288539.37500000 
0.09500    39080572.00000000 24741324.00000000 62185280.00000000 16737.56835938  1588037.12500000 1261482.37500000 
0.09600    38365260.00000000 24294378.00000000 61053940.00000000 16362.61718750  1554850.12500000 1235193.62500000 
0.09700    37670992.00000000 23860684.00000000 59956388.00000000 15998.45117188  1522606.37500000 1209653.12500000 
0.09800    36996520.00000000 23439906.00000000 58890756.00000000 15644.19335938  1491277.12500000 1184825.87500000 
0.09900    36341872.00000000 23031454.00000000 57856240.00000000 15299.74707031  1460814.75000000 1160696.25000000 
0.10000    35705844.00000000 22634872.00000000 56852324.00000000 14964.38574219  1431186.62500000 1137241.25000000 
0.10100    35088796.00000000 22250254.00000000 55877304.00000000 14637.82324219  1402353.62500000 1114416.37500000 
0.10200    34489396.00000000 21877010.00000000 54931008.00000000 14319.64453125  1374302.87500000 1092193.25000000 
0.10300    33907068.00000000 21514522.00000000 54012016.00000000 14009.45312500  1346993.62500000 1070574.12500000 
0.10400    33341586.00000000 21162796.00000000 53119908.00000000 13707.09375000  1320381.12500000 1049506.75000000 
0.10500    32792224.00000000 20821260.00000000 52253288.00000000 13412.02832031  1294466.50000000 1028989.56250000 
0.10600    32258132.00000000 20489584.00000000 51411440.00000000 13123.91406250  1269177.87500000 1008975.00000000 
0.10700    31739334.00000000 20167304.00000000 50593384.00000000 12842.51464844  1244540.87500000 989469.25000000 
0.10800    31234852.00000000 19854238.00000000 49798052.00000000 12567.54492188  1220479.75000000 970431.31250000 
0.10900    30744044.00000000 19550110.00000000 49025260.00000000 12298.92089844  1196988.75000000 951843.06250000 
0.11000    30266848.00000000 19254304.00000000 48273724.00000000 12036.15136719  1174058.87500000 933692.87500000 
0.11100    29802270.00000000 18966640.00000000 47542272.00000000 11779.09960938  1151657.75000000 915958.06250000 
0.11200    29350214.00000000 18686868.00000000 46830516.00000000 11527.61816406  1129741.37500000 898616.56250000 
0.11300    28909822.00000000 18414318.00000000 46137520.00000000 11281.42578125  1108315.12500000 881666.06250000 
0.11400    28480852.00000000 18148998.00000000 45462684.00000000 11040.39160156  1087351.50000000 865067.87500000 
0.11500    28062694.00000000 17890646.00000000 44804780.00000000 10804.37304688  1066835.50000000 848830.25000000 
0.11600    27654986.00000000 17638826.00000000 44163864.00000000 10573.18066406  1046729.62500000 832921.18750000 
0.11700    27257144.00000000 17393140.00000000 43538344.00000000 10346.69335938  1027048.37500000 817336.37500000 
0.11800    26868832.00000000 17153366.00000000 42928048.00000000 10124.74316406  1007748.62500000 802054.93750000 
0.11900    26489654.00000000 16919508.00000000 42331948.00000000 9907.38183594   988834.75000000 787073.06250000 
0.12000    26119098.00000000 16690943.00000000 41749764.00000000 9694.14843750   970278.37500000 772376.43750000 
0.12100    25757098.00000000 16467614.00000000 41181032.00000000 9485.33691406   952074.87500000 757958.68750000 
0.12200    25402944.00000000 16249283.00000000 40624492.00000000 9280.69726562   934213.31250000 743801.50000000 
0.12300    25056202.00000000 16035565.00000000 40079804.00000000 9080.17382812   916672.37500000 729905.37500000 
0.12400    24716884.00000000 15826160.00000000 39546408.00000000 8883.62207031   899450.87500000 716252.50000000 
0.12500    24384214.00000000 15621219.00000000 39024220.00000000 8691.05175781   882531.00000000 702839.12500000 
0.12600    24058522.00000000 15420211.00000000 38512000.00000000 8502.45312500   865914.06250000 689657.62500000 
0.12700    23738880.00000000 15223134.00000000 38009788.00000000 8317.60839844   849584.75000000 676706.37500000 
0.12800    23425124.00000000 15029567.00000000 37516624.00000000 8136.54882812   833538.00000000 663969.06250000 
0.12900    23117164.00000000 14839390.00000000 37032552.00000000 7959.26171875   817766.37500000 651444.75000000 
0.13000    22814506.00000000 14652626.00000000 36556852.00000000 7785.67187500   802255.37500000 639129.75000000 
0.13100    22516816.00000000 14468777.00000000 36088600.00000000 7615.65576172   787004.68750000 627009.50000000 
0.13200    22224444.00000000 14287922.00000000 35628228.00000000 7449.19921875   772007.68750000 615095.68750000 
0.13300    21936574.00000000 14109837.00000000 35175728.00000000 7286.33935547   757260.25000000 603365.25000000 
0.13400    21653048.00000000 13934377.00000000 34729404.00000000 7126.94433594   742756.62500000 591828.75000000 
0.13500    21374034.00000000 13761280.00000000 34289412.00000000 6971.06298828   728487.18750000 580470.50000000 
0.13600    21098754.00000000 13590737.00000000 33855924.00000000 6818.54199219   714453.75000000 569295.62500000 
0.13700    20827638.00000000 13422198.00000000 33428120.00000000 6669.36474609   700644.12500000 558301.06250000 
0.13800    20559752.00000000 13255852.00000000 33005748.00000000 6523.47851562   687061.87500000 547474.31250000 
0.13900    20295534.00000000 13091484.00000000 32589050.00000000 6380.84960938   673700.43750000 536818.18750000 
0.14000    20034878.00000000 12929012.00000000 32177144.00000000 6241.39599609   660552.25000000 526332.00000000 
0.14100    19777086.00000000 12768262.00000000 31769938.00000000 6105.08789062   647610.87500000 516011.37500000 
0.14200    19522164.00000000 12609187.00000000 31367232.00000000 5971.88476562   634885.87500000 505849.84375000 
0.14300    19270464.00000000 12451740.00000000 30968920.00000000 5841.69287109   622367.31250000 495846.93750000 
0.14400    19021266.00000000 12295788.00000000 30574310.00000000 5714.40478516   610041.18750000 485999.62500000 
0.14500    18774828.00000000 12141193.00000000 30183872.00000000 5590.06494141   597916.93750000 476307.81250000 
0.14600    18530624.00000000 11988019.00000000 29797144.00000000 5468.60351562   585988.00000000 466767.90625000 
0.14700    18289186.00000000 11836243.00000000 29413976.00000000 5349.84570312   574247.50000000 457376.59375000 
0.14800    18049914.00000000 11685504.00000000 29034024.00000000 5233.80761719   562699.68750000 448132.31250000 
0.14900    17812654.00000000 11535933.00000000 28657328.00000000 5120.37158203   551323.68750000 439030.31250000 
0.15000    17577606.00000000 11387552.00000000 28283572.00000000 5009.48779297   540137.31250000 430063.28125000 
0.15100    17344476.00000000 11240152.00000000 27912888.00000000 4901.10839844   529135.68750000 421247.21875000 
0.15200    17113406.00000000 11093840.00000000 27545022.00000000 4795.16503906   518297.71875000 412561.25000000 
0.15300    16884156.00000000 10948488.00000000 27179914.00000000 4691.56494141   507636.06250000 404010.68750000 
0.15400    16656611.00000000 10803997.00000000 26817260.00000000 4590.19824219   497137.81250000 395591.21875000 
0.15500    16430805.00000000 10660579.00000000 26456898.00000000 4491.07617188   486809.62500000 387301.09375000 
0.15600    16206538.00000000 10517797.00000000 26099290.00000000 4394.04345703   476638.81250000 379138.90625000 
0.15700    15984107.00000000 10375963.00000000 25744054.00000000 4299.07958984   466629.12500000 371104.34375000 
0.15800    15763019.00000000 10234924.00000000 25390726.00000000 4206.06591797   456771.84375000 363187.28125000 
0.15900    15543598.00000000 10094693.00000000 25039868.00000000 4114.99169922   447066.00000000 355395.12500000 
0.16000    15325519.00000000 9955301.00000000 24691090.00000000 4025.75805664   437507.37500000 347715.87500000 
0.16100    15108989.00000000 9816608.00000000 24344608.00000000 3938.32739258   428100.96875000 340159.50000000 
0.16200    14893761.00000000 9678712.00000000 23999842.00000000 3852.58764648   418833.84375000 332714.81250000 
0.16300    14680062.00000000 9541472.00000000 23657220.00000000 3768.53247070   409703.18750000 325376.59375000 
0.16400    14467567.00000000 9404957.00000000 23316746.00000000 3686.08398438   400717.46875000 318153.59375000 
0.16500    14256385.00000000 9269254.00000000 22978172.00000000 3605.16845703   391859.90625000 311037.18750000 
0.16600    14046635.00000000 9134270.00000000 22641502.00000000 3525.71484375   383132.21875000 304023.71875000 
0.16700    13838081.00000000 9000015.00000000 22306872.00000000 3447.70849609   374535.34375000 297116.37500000 
0.16800    13630818.00000000 8866447.00000000 21974156.00000000 3371.08764648   366065.03125000 290310.06250000 
0.16900    13424929.00000000 8733637.00000000 21643254.00000000 3295.83886719   357722.78125000 283602.00000000 
0.17000    13220251.00000000 8601530.00000000 21314556.00000000 3221.87329102   349499.28125000 276995.59375000 
