# SAXS profile: number of points = 501, q_min = 0, q_max = 0.5, delta_q = 0.001
#    q    intensity 
0.00000    162234368.00000000 101201144.00000000 256270240.00000000 103926.46875000 8212412.00000000 6486133.00000000 
0.00100    162204224.00000000 101182064.00000000 256221168.00000000 103899.59375000 8210548.50000000 6484659.00000000 
0.00200    162112048.00000000 101122856.00000000 256071760.00000000 103819.91406250 8204932.50000000 6480241.50000000 
0.00300    161955568.00000000 101025768.00000000 255822560.00000000 103686.50000000 8195557.50000000 6472887.50000000 
0.00400    161734592.00000000 100888576.00000000 255471952.00000000 103500.32812500 8182459.50000000 6462581.50000000 
0.00500    161448384.00000000 100712816.00000000 255026400.00000000 103261.27343750 8165668.50000000 6449367.50000000 
0.00600    161097040.00000000 100497808.00000000 254478208.00000000 102969.68750000 8145163.50000000 6433274.50000000 
0.00700    160688672.00000000 100245200.00000000 253835024.00000000 102627.00000000 8121048.00000000 6414295.00000000 
0.00800    160213808.00000000 99954512.00000000 253095472.00000000 102232.83593750 8093326.00000000 6392516.00000000 
0.00900    159680000.00000000 99626360.00000000 252258592.00000000 101788.14843750 8061965.00000000 6367865.50000000 
0.01000    159087040.00000000 99261944.00000000 251327392.00000000 101293.77343750 8027148.00000000 6340506.50000000 
0.01100    158434160.00000000 98860776.00000000 250303792.00000000 100751.26562500 7988856.50000000 6310374.50000000 
0.01200    157725824.00000000 98421920.00000000 249188464.00000000 100159.32812500 7947146.50000000 6277636.50000000 
0.01300    156957552.00000000 97948824.00000000 247979968.00000000 99521.07812500  7902120.50000000 6242187.50000000 
0.01400    156130704.00000000 97439856.00000000 246684576.00000000 98836.82812500  7853775.50000000 6204199.50000000 
0.01500    155249408.00000000 96897096.00000000 245302064.00000000 98108.00000000  7802263.50000000 6163657.50000000 
0.01600    154314288.00000000 96320928.00000000 243833424.00000000 97335.57812500  7747613.50000000 6120724.50000000 
0.01700    153327088.00000000 95711624.00000000 242282096.00000000 96520.39843750  7689931.50000000 6075334.00000000 
0.01800    152286816.00000000 95070952.00000000 240648304.00000000 95664.80468750  7629298.00000000 6027628.00000000 
0.01900    151194128.00000000 94398608.00000000 238935296.00000000 94769.22656250  7565762.00000000 5977703.00000000 
0.02000    150056464.00000000 93696552.00000000 237146896.00000000 93835.42968750  7499461.50000000 5925533.50000000 
0.02100    148869056.00000000 92964552.00000000 235282000.00000000 92865.42187500  7430504.00000000 5871280.50000000 
0.02200    147635952.00000000 92204232.00000000 233345792.00000000 91859.39062500  7358937.50000000 5815039.50000000 
0.02300    146358272.00000000 91416936.00000000 231339968.00000000 90820.54687500  7284890.00000000 5756783.50000000 
0.02400    145038368.00000000 90602312.00000000 229264736.00000000 89749.92968750  7208488.00000000 5696655.50000000 
0.02500    143677168.00000000 89761560.00000000 227125664.00000000 88648.46093750  7129849.00000000 5634772.00000000 
0.02600    142275600.00000000 88897160.00000000 224924864.00000000 87518.68750000  7049048.50000000 5571216.50000000 
0.02700    140836096.00000000 88009488.00000000 222665552.00000000 86362.27343750  6966197.50000000 5506026.50000000 
0.02800    139361296.00000000 87098976.00000000 220346576.00000000 85180.64843750  6881415.50000000 5439336.50000000 
0.02900    137853312.00000000 86166504.00000000 217974816.00000000 83975.03125000  6794847.00000000 5371193.50000000 
0.03000    136312128.00000000 85214432.00000000 215551920.00000000 82748.39062500  6706538.50000000 5301673.50000000 
0.03100    134738976.00000000 84243304.00000000 213080976.00000000 81501.73437500  6616679.00000000 5230956.00000000 
0.03200    133138536.00000000 83254552.00000000 210564112.00000000 80236.85937500  6525322.50000000 5159044.50000000 
0.03300    131511408.00000000 82248912.00000000 208004944.00000000 78956.06250000  6432718.50000000 5086099.00000000 
0.03400    129858624.00000000 81227264.00000000 205406240.00000000 77660.30468750  6338796.00000000 5012211.00000000 
0.03500    128182768.00000000 80191032.00000000 202772064.00000000 76351.54687500  6243796.50000000 4937401.50000000 
0.03600    126486008.00000000 79140944.00000000 200101632.00000000 75032.00781250  6147776.50000000 4861776.00000000 
0.03700    124769648.00000000 78079032.00000000 197401056.00000000 73702.72656250  6050926.00000000 4785523.00000000 
0.03800    123035848.00000000 77007104.00000000 194673248.00000000 72366.76562500  5953314.00000000 4708658.00000000 
0.03900    121286784.00000000 75924064.00000000 191921008.00000000 71024.07031250  5855074.50000000 4631310.50000000 
0.04000    119523632.00000000 74832992.00000000 189147072.00000000 69677.64843750  5756283.50000000 4553472.00000000 
0.04100    117747952.00000000 73733808.00000000 186352784.00000000 68328.31250000  5657084.50000000 4475352.00000000 
0.04200    115962528.00000000 72627448.00000000 183542144.00000000 66977.88281250  5557578.50000000 4396934.00000000 
0.04300    114169528.00000000 71515896.00000000 180718048.00000000 65628.28125000  5457840.50000000 4318365.00000000 
0.04400    112368888.00000000 70399704.00000000 177882992.00000000 64280.15234375  5358081.00000000 4239701.50000000 
0.04500    110564088.00000000 69280224.00000000 175041024.00000000 62935.54687500  5258263.50000000 4161039.75000000 
0.04600    108755664.00000000 68158952.00000000 172191248.00000000 61596.20703125  5158604.50000000 4082502.75000000 
0.04700    106946096.00000000 67036512.00000000 169340272.00000000 60262.79687500  5059136.50000000 4004065.50000000 
0.04800    105136856.00000000 65912916.00000000 166490128.00000000 58937.06250000  4959978.00000000 3925905.50000000 
0.04900    103329360.00000000 64790856.00000000 163641936.00000000 57620.53906250  4861200.50000000 3848018.00000000 
0.05000    101524952.00000000 63670156.00000000 160797904.00000000 56314.01953125  4762989.50000000 3770529.25000000 
0.05100    99726104.00000000 62552636.00000000 157961920.00000000 55018.46484375  4665289.50000000 3693485.25000000 
0.05200    97933536.00000000 61438532.00000000 155134016.00000000 53735.68750000  4568251.50000000 3616925.50000000 
0.05300    96148840.00000000 60328756.00000000 152321168.00000000 52466.37109375  4471935.00000000 3540950.75000000 
0.05400    94372384.00000000 59224696.00000000 149519680.00000000 51210.96093750  4376468.00000000 3465624.75000000 
0.05500    92607136.00000000 58126784.00000000 146734064.00000000 49971.65234375  4281856.00000000 3390948.50000000 
0.05600    90853552.00000000 57035620.00000000 143968576.00000000 48748.26171875  4188216.50000000 3317054.25000000 
0.05700    89114192.00000000 55952356.00000000 141223104.00000000 47542.28906250  4095617.25000000 3243941.00000000 
0.05800    87387832.00000000 54877748.00000000 138499664.00000000 46353.54296875  4004056.50000000 3171651.00000000 
0.05900    85676824.00000000 53812088.00000000 135798784.00000000 45183.85937500  3913675.75000000 3100266.50000000 
0.06000    83983608.00000000 52756484.00000000 133125280.00000000 44033.14062500  3824433.25000000 3029814.00000000 
0.06100    82307288.00000000 51711660.00000000 130478456.00000000 42902.08984375  3736483.25000000 2960335.75000000 
0.06200    80649288.00000000 50677848.00000000 127859496.00000000 41791.76953125  3649786.00000000 2891838.50000000 
0.06300    79010776.00000000 49655900.00000000 125272776.00000000 40701.87109375  3564415.50000000 2824421.00000000 
0.06400    77392536.00000000 48646244.00000000 122715560.00000000 39632.89843750  3480415.25000000 2758044.25000000 
0.06500    75795872.00000000 47649608.00000000 120192256.00000000 38585.56250000  3397834.25000000 2692759.25000000 
0.06600    74220488.00000000 46666472.00000000 117702552.00000000 37559.97656250  3316669.25000000 2628619.50000000 
0.06700    72668080.00000000 45696548.00000000 115248736.00000000 36556.41796875  3236967.50000000 2565595.25000000 
0.06800    71138440.00000000 44741032.00000000 112831120.00000000 35575.26953125  3158748.75000000 2503764.50000000 
0.06900    69632752.00000000 43800120.00000000 110450528.00000000 34616.07812500  3082004.00000000 2443096.75000000 
0.07000    68151120.00000000 42874196.00000000 108108416.00000000 33679.44921875  3006815.50000000 2383622.50000000 
0.07100    66694724.00000000 41963360.00000000 105804616.00000000 32765.25000000  2933148.50000000 2325349.00000000 
0.07200    65263408.00000000 41067868.00000000 103539808.00000000 31873.04882812  2861014.25000000 2268294.25000000 
0.07300    63857680.00000000 40188604.00000000 101316192.00000000 31003.75195312  2790455.75000000 2212442.25000000 
0.07400    62477468.00000000 39324744.00000000 99133352.00000000 30156.48242188  2721455.00000000 2157822.00000000 
0.07500    61123864.00000000 38477480.00000000 96990824.00000000 29331.41601562  2653964.25000000 2104430.50000000 
0.07600    59796060.00000000 37646212.00000000 94889416.00000000 28527.97265625  2588051.50000000 2052251.75000000 
0.07700    58495160.00000000 36831180.00000000 92830256.00000000 27746.61914062  2523677.50000000 2001296.50000000 
0.07800    57221000.00000000 36033008.00000000 90812928.00000000 26986.44921875  2460825.75000000 1951548.87500000 
0.07900    55973092.00000000 35251432.00000000 88838216.00000000 26247.53515625  2399561.75000000 1903008.50000000 
0.08000    54752652.00000000 34486312.00000000 86905600.00000000 25529.58398438  2339754.25000000 1855662.25000000 
0.08100    53558460.00000000 33738496.00000000 85015056.00000000 24832.05468750  2281483.25000000 1809519.25000000 
0.08200    52391056.00000000 33006656.00000000 83167048.00000000 24154.72070312  2224714.75000000 1764528.75000000 
0.08300    51250892.00000000 32291798.00000000 81361136.00000000 23497.26953125  2169400.75000000 1720712.12500000 
0.08400    50136616.00000000 31593252.00000000 79596144.00000000 22859.23242188  2115530.00000000 1678037.62500000 
0.08500    49048764.00000000 30911366.00000000 77872944.00000000 22240.17773438  2063102.62500000 1636483.50000000 
0.08600    47987216.00000000 30245884.00000000 76192448.00000000 21639.59375000  2012072.87500000 1596047.12500000 
0.08700    46951568.00000000 29596628.00000000 74552024.00000000 21057.35937500  1962423.87500000 1556701.25000000 
0.08800    45942036.00000000 28963410.00000000 72952880.00000000 20492.74414062  1914126.50000000 1518431.25000000 
0.08900    44957512.00000000 28346126.00000000 71393888.00000000 19945.23632812  1867161.50000000 1481212.12500000 
0.09000    43998600.00000000 27744648.00000000 69875128.00000000 19414.40625000  1821518.87500000 1445012.00000000 
0.09100    43064300.00000000 27159062.00000000 68394744.00000000 18899.89648438  1777146.12500000 1409840.50000000 
0.09200    42154420.00000000 26588686.00000000 66954508.00000000 18401.06835938  1733997.12500000 1375638.12500000 
0.09300    41268564.00000000 26033392.00000000 65551288.00000000 17917.60937500  1692074.50000000 1342398.50000000 
0.09400    40406164.00000000 25493190.00000000 64186108.00000000 17449.11132812  1651335.12500000 1310084.50000000 
0.09500    39567448.00000000 24967678.00000000 62858312.00000000 16994.65234375  1611750.75000000 1278698.62500000 
0.09600    38751368.00000000 24456584.00000000 61566320.00000000 16554.20898438  1573280.62500000 1248196.50000000 
0.09700    37957912.00000000 23959706.00000000 60310728.00000000 16127.06835938  1535907.12500000 1218571.12500000 
0.09800    37186204.00000000 23476792.00000000 59089052.00000000 15712.97851562  1499590.25000000 1189772.12500000 
0.09900    36436180.00000000 23007532.00000000 57902360.00000000 15311.30078125  1464308.75000000 1161801.50000000 
0.10000    35707224.00000000 22551404.00000000 56749144.00000000 14921.53613281  1430016.75000000 1134616.25000000 
0.10100    34998608.00000000 22108362.00000000 55628260.00000000 14543.32519531  1396693.12500000 1108193.75000000 
0.10200    34310308.00000000 21678182.00000000 54539468.00000000 14176.30175781  1364306.25000000 1082517.25000000 
0.10300    33641540.00000000 21260268.00000000 53482072.00000000 13819.99023438  1332821.25000000 1057546.87500000 
0.10400    32991616.00000000 20854686.00000000 52455036.00000000 13473.92089844  1302214.12500000 1033286.93750000 
0.10500    32360664.00000000 20461054.00000000 51458168.00000000 13137.80371094  1272455.75000000 1009698.93750000 
0.10600    31747428.00000000 20078506.00000000 50489476.00000000 12811.10546875  1243502.12500000 986746.37500000 
0.10700    31151932.00000000 19707398.00000000 49548756.00000000 12493.67089844  1215349.87500000 964432.31250000 
0.10800    30573320.00000000 19347288.00000000 48635624.00000000 12184.99023438  1187957.62500000 942717.18750000 
0.10900    30011518.00000000 18997532.00000000 47749056.00000000 11884.68164062  1161289.87500000 921594.68750000 
0.11000    29465776.00000000 18658160.00000000 46887848.00000000 11592.53710938  1135338.75000000 901019.81250000 
0.11100    28935464.00000000 18328728.00000000 46051676.00000000 11308.15429688  1110066.75000000 881002.43750000 
0.11200    28420174.00000000 18008908.00000000 45239660.00000000 11031.32714844  1085449.37500000 861500.00000000 
0.11300    27919584.00000000 17698298.00000000 44450524.00000000 10761.65136719  1061464.00000000 842494.87500000 
0.11400    27433252.00000000 17396804.00000000 43684392.00000000 10498.94628906  1038103.31250000 823985.06250000 
0.11500    26960266.00000000 17103982.00000000 42940108.00000000 10242.91406250  1015316.68750000 805942.37500000 
0.11600    26500692.00000000 16819534.00000000 42216888.00000000 9993.33789062   993105.93750000 788353.56250000 
0.11700    26053940.00000000 16543410.00000000 41513508.00000000 9750.04101562   971433.81250000 771191.50000000 
0.11800    25619140.00000000 16274946.00000000 40829872.00000000 9512.69140625   950289.50000000 754453.18750000 
0.11900    25196210.00000000 16013917.00000000 40165552.00000000 9281.03125000   929653.68750000 738111.56250000 
0.12000    24784702.00000000 15760302.00000000 39518868.00000000 9055.00878906   909505.93750000 722161.18750000 
0.12100    24384558.00000000 15513673.00000000 38890272.00000000 8834.53125000   889834.31250000 706591.43750000 
0.12200    23994780.00000000 15273746.00000000 38278512.00000000 8619.20800781   870618.68750000 691384.06250000 
0.12300    23615088.00000000 15040334.00000000 37682620.00000000 8408.95800781   851838.43750000 676528.31250000 
0.12400    23245158.00000000 14813092.00000000 37102436.00000000 8203.64746094   833494.31250000 662005.75000000 
0.12500    22884784.00000000 14591848.00000000 36537484.00000000 8003.16894531   815551.62500000 647806.81250000 
0.12600    22533414.00000000 14376327.00000000 35987076.00000000 7807.48242188   798012.25000000 633935.75000000 
0.12700    22190794.00000000 14166239.00000000 35450024.00000000 7616.19580078   780863.06250000 620363.68750000 
0.12800    21856502.00000000 13961503.00000000 34926364.00000000 7429.40722656   764084.06250000 607086.06250000 
0.12900    21530172.00000000 13761720.00000000 34415520.00000000 7246.95507812   747666.12500000 594100.87500000 
0.13000    21211438.00000000 13566803.00000000 33916936.00000000 7068.80126953   731604.87500000 581394.12500000 
0.13100    20900404.00000000 13376566.00000000 33429732.00000000 6894.78759766   715885.06250000 568957.18750000 
0.13200    20596250.00000000 13190637.00000000 32953652.00000000 6724.79052734   700490.75000000 556780.68750000 
0.13300    20298760.00000000 13009008.00000000 32488562.00000000 6558.89794922   685429.56250000 544865.00000000 
0.13400    20007820.00000000 12831445.00000000 32033636.00000000 6396.91699219   670685.75000000 533201.06250000 
0.13500    19723206.00000000 12657671.00000000 31588592.00000000 6238.71044922   656246.00000000 521774.56250000 
0.13600    19444590.00000000 12487577.00000000 31152868.00000000 6084.36132812   642107.93750000 510584.93750000 
0.13700    19171688.00000000 12320975.00000000 30726038.00000000 5933.69433594   628262.75000000 499630.00000000 
0.13800    18904186.00000000 12157654.00000000 30307994.00000000 5786.71923828   614705.93750000 488900.93750000 
0.13900    18641920.00000000 11997598.00000000 29897958.00000000 5643.35693359   601427.00000000 478391.25000000 
0.14000    18384902.00000000 11840652.00000000 29495856.00000000 5503.51806641   588429.81250000 468101.00000000 
0.14100    18132616.00000000 11686601.00000000 29101286.00000000 5367.20214844   575699.50000000 458024.71875000 
0.14200    17884822.00000000 11535309.00000000 28713842.00000000 5234.29052734   563228.43750000 448150.00000000 
0.14300    17641576.00000000 11386629.00000000 28333608.00000000 5104.77734375   551020.06250000 438482.71875000 
0.14400    17402682.00000000 11240514.00000000 27959316.00000000 4978.57275391   539061.56250000 429010.50000000 
0.14500    17167770.00000000 11096764.00000000 27591722.00000000 4855.68896484   527353.75000000 419734.50000000 
0.14600    16936662.00000000 10955374.00000000 27229948.00000000 4736.02929688   515895.93750000 410653.90625000 
0.14700    16709554.00000000 10816073.00000000 26874000.00000000 4619.54833984   504673.31250000 401762.65625000 
0.14800    16485862.00000000 10678856.00000000 26523308.00000000 4506.19189453   493685.12500000 393046.75000000 
0.14900    16265573.00000000 10543584.00000000 26177958.00000000 4395.84960938   482928.50000000 384519.50000000 
0.15000    16048679.00000000 10410260.00000000 25837866.00000000 4288.56982422   472396.25000000 376167.62500000 
0.15100    15834985.00000000 10278693.00000000 25502142.00000000 4184.18701172   462094.31250000 367988.93750000 
0.15200    15624270.00000000 10148856.00000000 25171302.00000000 4082.76538086   452007.28125000 359987.21875000 
0.15300    15416547.00000000 10020691.00000000 24844714.00000000 3984.15332031   442135.71875000 352150.28125000 
0.15400    15211605.00000000 9894003.00000000 24522342.00000000 3888.30761719   432471.03125000 344475.06250000 
0.15500    15009395.00000000 9768875.00000000 24204096.00000000 3795.21289062   423017.84375000 336964.84375000 
0.15600    14809670.00000000 9645086.00000000 23889710.00000000 3704.75244141   413764.71875000 329613.90625000 
0.15700    14612694.00000000 9522739.00000000 23579086.00000000 3616.92895508   404715.68750000 322419.18750000 
0.15800    14417895.00000000 9401638.00000000 23271716.00000000 3531.56689453   395855.03125000 315371.28125000 
0.15900    14225628.00000000 9281920.00000000 22968210.00000000 3448.72973633   387187.46875000 308475.40625000 
0.16000    14035429.00000000 9163193.00000000 22667566.00000000 3368.27758789   378707.37500000 301731.15625000 
0.16100    13847483.00000000 9045760.00000000 22370438.00000000 3290.23168945   370413.75000000 295126.37500000 
0.16200    13661710.00000000 8929342.00000000 22076176.00000000 3214.43188477   362295.03125000 288660.75000000 
0.16300    13477853.00000000 8813915.00000000 21784768.00000000 3140.82788086   354354.06250000 282332.37500000 
0.16400    13296015.00000000 8699708.00000000 21496652.00000000 3069.39379883   346582.62500000 276139.31250000 
0.16500    13116013.00000000 8586327.00000000 21210818.00000000 3000.05419922   338981.56250000 270080.84375000 
0.16600    12937900.00000000 8473923.00000000 20927834.00000000 2932.75781250   331541.81250000 264144.21875000 
0.16700    12761583.00000000 8362445.00000000 20647328.00000000 2867.38891602   324259.37500000 258333.54687500 
0.16800    12586885.00000000 8251843.50000000 20369404.00000000 2803.90917969   317131.21875000 252643.81250000 
0.16900    12414000.00000000 8142096.50000000 20093994.00000000 2742.30078125   310161.75000000 247075.46875000 
0.17000    12242715.00000000 8033205.00000000 19820802.00000000 2682.45263672   303333.03125000 241620.03125000 
