# SAXS profile: number of points = 501, q_min = 0, q_max = 0.5, delta_q = 0.001
#    q    intensity 
0.00000    162235440.00000000 101202064.00000000 256270800.00000000 92077.26562500  7730069.50000000 6105182.00000000 
0.00100    162206560.00000000 101182960.00000000 256222624.00000000 92053.60937500  7728332.00000000 6103811.00000000 
0.00200    162117792.00000000 101126224.00000000 256079536.00000000 91983.87500000  7723234.50000000 6099792.00000000 
0.00300    161966368.00000000 101032096.00000000 255839008.00000000 91867.40625000  7714653.50000000 6093076.50000000 
0.00400    161751616.00000000 100900192.00000000 255502688.00000000 91704.82031250  7702668.50000000 6083707.50000000 
0.00500    161476304.00000000 100730480.00000000 255070544.00000000 91496.25781250  7687345.50000000 6071625.50000000 
0.00600    161138944.00000000 100523560.00000000 254543808.00000000 91242.41406250  7668629.50000000 6056958.50000000 
0.00700    160741776.00000000 100279584.00000000 253922096.00000000 90943.22656250  7646578.50000000 6039636.00000000 
0.00800    160285120.00000000 99999496.00000000 253209424.00000000 90599.11718750  7621253.00000000 6019713.50000000 
0.00900    159769600.00000000 99683400.00000000 252401360.00000000 90211.14843750  7592636.50000000 5997244.50000000 
0.01000    159197952.00000000 99331752.00000000 251502976.00000000 89779.49218750  7560765.50000000 5972231.00000000 
0.01100    158568752.00000000 98944352.00000000 250514880.00000000 89305.50781250  7525748.50000000 5944730.50000000 
0.01200    157882944.00000000 98522184.00000000 249439072.00000000 88789.10937500  7487616.00000000 5914769.50000000 
0.01300    157142144.00000000 98065632.00000000 248273728.00000000 88231.43750000  7446421.50000000 5882401.00000000 
0.01400    156343360.00000000 97574216.00000000 247022496.00000000 87634.30468750  7402211.50000000 5847682.00000000 
0.01500    155492432.00000000 97050488.00000000 245687776.00000000 86997.75000000  7355042.50000000 5810633.50000000 
0.01600    154588176.00000000 96494640.00000000 244269680.00000000 86322.30468750  7304985.50000000 5771321.50000000 
0.01700    153633856.00000000 95906256.00000000 242770640.00000000 85610.50000000  7252182.00000000 5729803.50000000 
0.01800    152629344.00000000 95287824.00000000 241193056.00000000 84862.26562500  7196616.00000000 5686151.50000000 
0.01900    151574544.00000000 94639144.00000000 239539792.00000000 84079.89062500  7138369.50000000 5640424.50000000 
0.02000    150471552.00000000 93960736.00000000 237810496.00000000 83262.89843750  7077635.50000000 5592662.00000000 
0.02100    149324640.00000000 93253104.00000000 236007312.00000000 82414.66406250  7014394.50000000 5542943.50000000 
0.02200    148131312.00000000 92518176.00000000 234134880.00000000 81534.92968750  6948714.50000000 5491387.00000000 
0.02300    146893856.00000000 91756760.00000000 232193696.00000000 80626.25781250  6880773.00000000 5437967.50000000 
0.02400    145616912.00000000 90968976.00000000 230186064.00000000 79688.80468750  6810633.00000000 5382848.00000000 
0.02500    144297984.00000000 90156952.00000000 228117136.00000000 78724.85937500  6738393.00000000 5326052.50000000 
0.02600    142940256.00000000 89320264.00000000 225985728.00000000 77735.57812500  6664087.50000000 5267673.50000000 
0.02700    141546256.00000000 88460832.00000000 223796768.00000000 76722.59375000  6587964.00000000 5207768.50000000 
0.02800    140116720.00000000 87579592.00000000 221550576.00000000 75686.92968750  6509976.00000000 5146445.50000000 
0.02900    138653584.00000000 86676864.00000000 219252464.00000000 74631.06250000  6430237.50000000 5083801.50000000 
0.03000    137158224.00000000 85755016.00000000 216904160.00000000 73555.79687500  6348981.50000000 5019864.50000000 
0.03100    135632640.00000000 84813680.00000000 214508880.00000000 72462.54687500  6266166.50000000 4954731.00000000 
0.03200    134078768.00000000 83855240.00000000 212067040.00000000 71353.08593750  6182010.50000000 4888527.50000000 
0.03300    132497800.00000000 82879472.00000000 209584064.00000000 70228.96875000  6096539.50000000 4821317.00000000 
0.03400    130892968.00000000 81889184.00000000 207060416.00000000 69091.89062500  6009893.50000000 4753170.50000000 
0.03500    129264608.00000000 80883472.00000000 204501504.00000000 67943.57812500  5922196.50000000 4684117.50000000 
0.03600    127614544.00000000 79864648.00000000 201909632.00000000 66784.44531250  5833522.00000000 4614349.00000000 
0.03700    125945624.00000000 78833560.00000000 199284896.00000000 65617.20312500  5744018.00000000 4543887.00000000 
0.03800    124257864.00000000 77791480.00000000 196632656.00000000 64443.13281250  5653701.00000000 4472868.50000000 
0.03900    122555608.00000000 76739792.00000000 193954768.00000000 63263.00781250  5562818.00000000 4401309.50000000 
0.04000    120838728.00000000 75678144.00000000 191255744.00000000 62079.07812500  5471328.00000000 4329294.00000000 
0.04100    119109440.00000000 74609712.00000000 188536416.00000000 60892.67968750  5379438.00000000 4256954.00000000 
0.04200    117369696.00000000 73534016.00000000 185800704.00000000 59704.78906250  5287174.50000000 4184298.00000000 
0.04300    115621144.00000000 72452120.00000000 183049344.00000000 58516.95703125  5194717.50000000 4111487.25000000 
0.04400    113865240.00000000 71365560.00000000 180286944.00000000 57330.89843750  5102095.00000000 4038544.25000000 
0.04500    112103472.00000000 70275512.00000000 177514704.00000000 56147.23046875  5009438.50000000 3965554.25000000 
0.04600    110339160.00000000 69183056.00000000 174738416.00000000 54967.91796875  4916846.00000000 3892581.75000000 
0.04700    108571952.00000000 68088240.00000000 171957024.00000000 53793.69921875  4824380.00000000 3819726.50000000 
0.04800    106804296.00000000 66993168.00000000 169174112.00000000 52625.80468750  4732128.00000000 3747037.25000000 
0.04900    105037424.00000000 65898768.00000000 166392640.00000000 51465.62109375  4640239.00000000 3674589.75000000 
0.05000    103274072.00000000 64805312.00000000 163615600.00000000 50314.39062500  4548725.00000000 3602451.75000000 
0.05100    101514464.00000000 63714400.00000000 160844144.00000000 49172.94140625  4457708.00000000 3530695.75000000 
0.05200    99760440.00000000 62626568.00000000 158081216.00000000 48041.95703125  4367261.00000000 3459369.75000000 
0.05300    98013120.00000000 61542504.00000000 155328912.00000000 46922.86718750  4277457.50000000 3388544.25000000 
0.05400    96274344.00000000 60463532.00000000 152588464.00000000 45816.60937500  4188336.25000000 3318279.75000000 
0.05500    94545112.00000000 59390196.00000000 149863680.00000000 44723.43750000  4100052.75000000 3248593.50000000 
0.05600    92827296.00000000 58323432.00000000 147156624.00000000 43644.94921875  4012591.25000000 3179579.00000000 
0.05700    91121752.00000000 57263748.00000000 144468384.00000000 42581.52734375  3926064.00000000 3111267.00000000 
0.05800    89429064.00000000 56212384.00000000 141799040.00000000 41533.93750000  3840481.25000000 3043725.25000000 
0.05900    87751728.00000000 55169584.00000000 139153104.00000000 40502.44140625  3755945.75000000 2977007.25000000 
0.06000    86089520.00000000 54135700.00000000 136532192.00000000 39488.18359375  3672471.25000000 2911105.25000000 
0.06100    84445064.00000000 53112320.00000000 133937872.00000000 38491.49609375  3590155.75000000 2846081.25000000 
0.06200    82817096.00000000 52099396.00000000 131369264.00000000 37512.57812500  3509016.25000000 2781985.75000000 
0.06300    81208616.00000000 51098092.00000000 128831192.00000000 36552.54296875  3429102.25000000 2718851.50000000 
0.06400    79618632.00000000 50108196.00000000 126322208.00000000 35611.07812500  3350416.00000000 2656706.25000000 
0.06500    78049568.00000000 49130632.00000000 123845128.00000000 34688.90625000  3273055.00000000 2595568.25000000 
0.06600    76501808.00000000 48166056.00000000 121401408.00000000 33786.20312500  3197019.00000000 2535462.50000000 
0.06700    74975656.00000000 47214732.00000000 118991080.00000000 32903.27734375  3122354.50000000 2476429.00000000 
0.06800    73472136.00000000 46276896.00000000 116616552.00000000 32040.12500000  3049066.00000000 2418471.25000000 
0.06900    71992024.00000000 45353456.00000000 114277808.00000000 31197.25390625  2977183.50000000 2361617.00000000 
0.07000    70534744.00000000 44444096.00000000 111975016.00000000 30374.30664062  2906713.50000000 2305892.00000000 
0.07100    69101752.00000000 43549788.00000000 109711704.00000000 29571.45507812  2837682.25000000 2251301.50000000 
0.07200    67693648.00000000 42670188.00000000 107485120.00000000 28788.94140625  2770144.00000000 2197830.00000000 
0.07300    66310456.00000000 41806240.00000000 105298704.00000000 28026.52539062  2704048.50000000 2145513.25000000 
0.07400    64952496.00000000 40957304.00000000 103151704.00000000 27284.39062500  2639406.00000000 2094369.62500000 
0.07500    63619800.00000000 40124444.00000000 101044192.00000000 26562.09960938  2576256.75000000 2044364.37500000 
0.07600    62313748.00000000 39307336.00000000 98977680.00000000 25859.56835938  2514577.00000000 1995517.62500000 
0.07700    61033076.00000000 38506140.00000000 96952352.00000000 25176.83007812  2454379.00000000 1947849.62500000 
0.07800    59778808.00000000 37721296.00000000 94967632.00000000 24513.45507812  2395650.00000000 1901332.37500000 
0.07900    58550848.00000000 36952132.00000000 93024296.00000000 23869.17578125  2338367.00000000 1855949.75000000 
0.08000    57349220.00000000 36199504.00000000 91122528.00000000 23244.02148438  2282548.25000000 1811727.50000000 
0.08100    56173628.00000000 35463376.00000000 89261288.00000000 22637.48046875  2228178.00000000 1768636.37500000 
0.08200    55024424.00000000 34743300.00000000 87441928.00000000 22049.04882812  2175217.75000000 1726662.37500000 
0.08300    53901904.00000000 34039192.00000000 85663440.00000000 21478.58398438  2123685.50000000 1685807.37500000 
0.08400    52804868.00000000 33351598.00000000 83927024.00000000 20925.87890625  2073524.37500000 1646053.37500000 
0.08500    51734060.00000000 32680020.00000000 82230072.00000000 20390.22460938  2024767.25000000 1607393.62500000 
0.08600    50688860.00000000 32024154.00000000 80574456.00000000 19871.39648438  1977352.62500000 1569786.75000000 
0.08700    49669332.00000000 31384436.00000000 78959224.00000000 19368.94140625  1931270.00000000 1533228.00000000 
0.08800    48675024.00000000 30760152.00000000 77383752.00000000 18882.57031250  1886494.12500000 1497712.62500000 
0.08900    47705796.00000000 30151768.00000000 75847512.00000000 18411.62890625  1842981.12500000 1463208.37500000 
0.09000    46761252.00000000 29558614.00000000 74350096.00000000 17955.58398438  1800741.62500000 1429698.62500000 
0.09100    45840820.00000000 28980662.00000000 72891400.00000000 17514.33593750  1759732.50000000 1397155.12500000 
0.09200    44944320.00000000 28417446.00000000 71470432.00000000 17087.23828125  1719904.00000000 1365552.37500000 
0.09300    44071960.00000000 27869182.00000000 70087064.00000000 16673.82421875  1681258.12500000 1334881.75000000 
0.09400    43222016.00000000 27335316.00000000 68739720.00000000 16273.55273438  1643738.62500000 1305111.62500000 
0.09500    42395180.00000000 26815508.00000000 67427920.00000000 15886.10546875  1607320.87500000 1276205.37500000 
0.09600    41590468.00000000 26309732.00000000 66152896.00000000 15510.86132812  1571987.12500000 1248167.50000000 
0.09700    40807524.00000000 25817742.00000000 64910984.00000000 15147.53515625  1537693.50000000 1220946.87500000 
0.09800    40046208.00000000 25338876.00000000 63703252.00000000 14795.51171875  1504407.25000000 1194526.37500000 
0.09900    39305372.00000000 24873246.00000000 62529112.00000000 14454.40527344  1472107.75000000 1168893.37500000 
0.10000    38585176.00000000 24420340.00000000 61386008.00000000 14123.79394531  1440745.75000000 1143998.25000000 
0.10100    37884052.00000000 23979922.00000000 60274828.00000000 13803.02246094  1410299.37500000 1119836.87500000 
0.10200    37202692.00000000 23551772.00000000 59194348.00000000 13492.07226562  1380723.37500000 1096359.75000000 
0.10300    36539800.00000000 23135246.00000000 58143464.00000000 13190.08789062  1351997.75000000 1073570.25000000 
0.10400    35895120.00000000 22730128.00000000 57121544.00000000 12896.89550781  1324094.62500000 1051424.12500000 
0.10500    35268188.00000000 22336294.00000000 56127616.00000000 12612.20312500  1296987.12500000 1029898.31250000 
0.10600    34658444.00000000 21953018.00000000 55160700.00000000 12335.28808594  1270607.25000000 1008975.93750000 
0.10700    34064852.00000000 21580260.00000000 54219904.00000000 12066.02050781  1244958.12500000 988627.31250000 
0.10800    33487734.00000000 21217680.00000000 53304628.00000000 11804.01367188  1220005.50000000 968828.06250000 
0.10900    32925624.00000000 20864908.00000000 52414328.00000000 11548.74804688  1195709.75000000 949548.56250000 
0.11000    32378314.00000000 20521534.00000000 51547060.00000000 11300.05175781  1172047.25000000 930781.50000000 
0.11100    31845702.00000000 20187516.00000000 50703468.00000000 11057.66308594  1148984.62500000 912490.18750000 
0.11200    31326686.00000000 19861802.00000000 49881056.00000000 10821.05957031  1126500.75000000 894662.62500000 
0.11300    30820970.00000000 19544650.00000000 49080460.00000000 10590.08886719  1104568.12500000 877270.37500000 
0.11400    30328276.00000000 19235852.00000000 48299776.00000000 10364.56054688  1083162.37500000 860296.93750000 
0.11500    29847408.00000000 18934752.00000000 47538868.00000000 10143.96777344  1062263.50000000 843722.50000000 
0.11600    29378568.00000000 18641280.00000000 46796432.00000000 9928.27441406   1041831.25000000 827522.31250000 
0.11700    28920990.00000000 18354822.00000000 46072576.00000000 9717.11523438   1021848.56250000 811687.93750000 
0.11800    28474020.00000000 18075114.00000000 45365360.00000000 9510.36425781   1002297.12500000 796190.25000000 
0.11900    28037212.00000000 17802158.00000000 44674720.00000000 9307.67089844   983150.00000000 781016.93750000 
0.12000    27610514.00000000 17535242.00000000 43999564.00000000 9108.98144531   964394.43750000 766150.31250000 
0.12100    27193116.00000000 17274526.00000000 43339712.00000000 8914.16796875   946012.87500000 751583.12500000 
0.12200    26784496.00000000 17019534.00000000 42693956.00000000 8722.97949219   927976.37500000 737288.25000000 
0.12300    26384682.00000000 16769867.00000000 42062208.00000000 8535.18554688   910275.12500000 723260.68750000 
0.12400    25992756.00000000 16525429.00000000 41442864.00000000 8350.75488281   892884.87500000 709486.37500000 
0.12500    25608792.00000000 16285877.00000000 40836112.00000000 8169.52734375   875794.56250000 695942.18750000 
0.12600    25231952.00000000 16051180.00000000 40241340.00000000 7991.43457031   858999.25000000 682635.06250000 
0.12700    24862164.00000000 15820825.00000000 39657876.00000000 7816.31884766   842474.93750000 669538.56250000 
0.12800    24499092.00000000 15594712.00000000 39084208.00000000 7644.04736328   826204.56250000 656642.93750000 
0.12900    24142236.00000000 15372670.00000000 38521080.00000000 7474.68798828   810192.68750000 643950.31250000 
0.13000    23791522.00000000 15154270.00000000 37967604.00000000 7308.05712891   794409.00000000 631444.68750000 
0.13100    23446288.00000000 14939641.00000000 37422884.00000000 7144.04003906   778855.87500000 619113.37500000 
0.13200    23106458.00000000 14728394.00000000 36886904.00000000 6982.69775391   763517.87500000 606955.06250000 
0.13300    22771806.00000000 14520383.00000000 36359200.00000000 6823.88330078   748394.25000000 594961.12500000 
0.13400    22442034.00000000 14315479.00000000 35839008.00000000 6667.65283203   733470.31250000 583122.18750000 
0.13500    22116996.00000000 14113448.00000000 35326328.00000000 6513.89062500   718739.31250000 571444.87500000 
0.13600    21796062.00000000 13914148.00000000 34820524.00000000 6362.59130859   704203.18750000 559908.37500000 
0.13700    21479434.00000000 13717487.00000000 34321292.00000000 6213.73388672   689844.00000000 548515.12500000 
0.13800    21166800.00000000 13523330.00000000 33828404.00000000 6067.27978516   675666.93750000 537261.12500000 
0.13900    20857914.00000000 13331485.00000000 33341112.00000000 5923.22705078   661667.50000000 526144.06250000 
0.14000    20552700.00000000 13141924.00000000 32859922.00000000 5781.60302734   647836.68750000 515160.25000000 
0.14100    20250778.00000000 12954531.00000000 32383998.00000000 5642.38720703   634173.12500000 504307.18750000 
0.14200    19952232.00000000 12769050.00000000 31913248.00000000 5505.45849609   620673.81250000 493578.31250000 
0.14300    19656970.00000000 12585656.00000000 31447460.00000000 5370.98583984   607336.37500000 482980.53125000 
0.14400    19364572.00000000 12403923.00000000 30986342.00000000 5238.81787109   594160.81250000 472499.90625000 
0.14500    19075162.00000000 12224017.00000000 30529842.00000000 5109.03076172   581146.06250000 462145.18750000 
0.14600    18788502.00000000 12045850.00000000 30077780.00000000 4981.70019531   568289.06250000 451916.43750000 
0.14700    18504720.00000000 11869360.00000000 29629976.00000000 4856.65966797   555598.00000000 441808.46875000 
0.14800    18223452.00000000 11694391.00000000 29186022.00000000 4734.01416016   543052.75000000 431820.03125000 
0.14900    17944860.00000000 11521006.00000000 28746212.00000000 4613.70800781   530669.50000000 421957.15625000 
0.15000    17668674.00000000 11349054.00000000 28310194.00000000 4495.78466797   518448.62500000 412212.53125000 
0.15100    17395014.00000000 11178529.00000000 27878064.00000000 4380.26416016   506382.06250000 402591.46875000 
0.15200    17123754.00000000 11009528.00000000 27449614.00000000 4267.11279297   494480.90625000 393095.15625000 
0.15300    16855052.00000000 10841876.00000000 27024774.00000000 4156.29687500   482732.50000000 383722.87500000 
0.15400    16588288.00000000 10675426.00000000 26603440.00000000 4047.83471680   471146.81250000 374473.62500000 
0.15500    16324246.00000000 10510552.00000000 26185622.00000000 3941.72753906   459726.28125000 365351.15625000 
0.15600    16062262.00000000 10346852.00000000 25771262.00000000 3837.97021484   448461.65625000 356349.46875000 
0.15700    15802676.00000000 10184560.00000000 25360696.00000000 3736.56005859   437369.37500000 347479.59375000 
0.15800    15545293.00000000 10023472.00000000 24953246.00000000 3637.42871094   426432.53125000 338733.53125000 
0.15900    15290287.00000000 9863837.00000000 24549474.00000000 3540.66357422   415666.12500000 330121.81250000 
0.16000    15037450.00000000 9705385.00000000 24148942.00000000 3446.12182617   405064.62500000 321635.46875000 
0.16100    14787154.00000000 9548319.00000000 23752060.00000000 3353.94067383   394635.43750000 313284.53125000 
0.16200    14539032.00000000 9392555.00000000 23358692.00000000 3263.96093750   384371.06250000 305063.84375000 
0.16300    14293194.00000000 9238150.00000000 22968956.00000000 3176.23437500   374276.68750000 296973.46875000 
0.16400    14049703.00000000 9085024.00000000 22582606.00000000 3090.70898438   364353.59375000 289021.18750000 
0.16500    13808565.00000000 8933315.00000000 22199966.00000000 3007.36914062   354602.87500000 281201.34375000 
0.16600    13569883.00000000 8782939.00000000 21820910.00000000 2926.18798828   345023.37500000 273516.28125000 
0.16700    13333576.00000000 8633927.00000000 21445214.00000000 2847.11816406   335614.25000000 265964.71875000 
0.16800    13099679.00000000 8486324.00000000 21073544.00000000 2770.15454102   326379.31250000 258552.92187500 
0.16900    12868369.00000000 8340210.50000000 20705596.00000000 2695.28076172   317322.34375000 251277.04687500 
0.17000    12639353.00000000 8195457.00000000 20341412.00000000 2622.41674805   308431.12500000 244139.00000000 
