# SAXS profile: number of points = 501, q_min = 0, q_max = 0.5, delta_q = 0.001
#    q    intensity 
0.00000    162236720.00000000 101202336.00000000 256269712.00000000 104581.73437500 8238276.00000000 6506558.50000000 
0.00100    162206272.00000000 101182096.00000000 256219648.00000000 104554.62500000 8236384.00000000 6505102.00000000 
0.00200    162112256.00000000 101123504.00000000 256070672.00000000 104473.50000000 8230693.50000000 6500653.00000000 
0.00300    161954272.00000000 101025464.00000000 255821056.00000000 104337.60937500 8221246.50000000 6493214.50000000 
0.00400    161732048.00000000 100888928.00000000 255472432.00000000 104148.34375000 8208077.50000000 6482903.50000000 
0.00500    161444528.00000000 100712824.00000000 255022368.00000000 103906.14843750 8191137.50000000 6469629.50000000 
0.00600    161093024.00000000 100498432.00000000 254473984.00000000 103610.75000000 8170476.50000000 6453436.50000000 
0.00700    160681024.00000000 100244776.00000000 253826656.00000000 103261.57812500 8146157.00000000 6434339.50000000 
0.00800    160204800.00000000 99953592.00000000 253084992.00000000 102860.90625000 8118163.00000000 6412399.00000000 
0.00900    159664304.00000000 99625472.00000000 252246624.00000000 102409.14062500 8086575.00000000 6387640.00000000 
0.01000    159068528.00000000 99259888.00000000 251311152.00000000 101906.23437500 8051455.50000000 6360079.50000000 
0.01100    158412240.00000000 98857992.00000000 250282256.00000000 101353.70312500 8012795.50000000 6329764.50000000 
0.01200    157698208.00000000 98419984.00000000 249163152.00000000 100751.96093750 7970688.50000000 6296745.50000000 
0.01300    156925984.00000000 97944896.00000000 247951920.00000000 100102.02343750 7925201.50000000 6261081.50000000 
0.01400    156092832.00000000 97435768.00000000 246648656.00000000 99404.87500000  7876360.00000000 6222774.50000000 
0.01500    155205520.00000000 96891104.00000000 245259968.00000000 98661.70312500  7824268.00000000 6181899.50000000 
0.01600    154261440.00000000 96312888.00000000 243783600.00000000 97874.89062500  7768981.00000000 6138564.50000000 
0.01700    153266832.00000000 95702576.00000000 242223104.00000000 97043.71093750  7710596.50000000 6092769.50000000 
0.01800    152218944.00000000 95059344.00000000 240580320.00000000 96170.14843750  7649220.50000000 6044591.50000000 
0.01900    151118112.00000000 94385312.00000000 238857952.00000000 95256.16406250  7584877.00000000 5994129.50000000 
0.02000    149967712.00000000 93680224.00000000 237057072.00000000 94302.60156250  7517660.00000000 5941426.00000000 
0.02100    148769856.00000000 92944888.00000000 235178928.00000000 93310.69531250  7447762.00000000 5886517.50000000 
0.02200    147524544.00000000 92181160.00000000 233228000.00000000 92281.82031250  7375123.00000000 5829562.50000000 
0.02300    146233584.00000000 91388912.00000000 231207712.00000000 91219.07031250  7299938.50000000 5770561.50000000 
0.02400    144899472.00000000 90569816.00000000 229115632.00000000 90122.14843750  7222305.00000000 5709642.50000000 
0.02500    143522656.00000000 89725416.00000000 226958464.00000000 88993.39843750  7142364.50000000 5646876.00000000 
0.02600    142105440.00000000 88855064.00000000 224736608.00000000 87835.38281250  7060127.50000000 5582342.00000000 
0.02700    140648512.00000000 87960416.00000000 222453872.00000000 86648.74218750  6975765.50000000 5516123.50000000 
0.02800    139155744.00000000 87043296.00000000 220112672.00000000 85435.19531250  6889396.00000000 5448310.50000000 
0.02900    137627488.00000000 86103832.00000000 217717568.00000000 84196.95312500  6801129.00000000 5378966.50000000 
0.03000    136065744.00000000 85144304.00000000 215266816.00000000 82935.78906250  6711041.00000000 5308250.00000000 
0.03100    134470320.00000000 84164776.00000000 212768352.00000000 81652.54687500  6619308.50000000 5236186.00000000 
0.03200    132847288.00000000 83166328.00000000 210222144.00000000 80350.22656250  6525942.50000000 5162891.00000000 
0.03300    131195552.00000000 82150608.00000000 207631952.00000000 79029.78125000  6431175.00000000 5088432.50000000 
0.03400    129517264.00000000 81118696.00000000 204999504.00000000 77693.49218750  6335064.50000000 5012955.50000000 
0.03500    127815120.00000000 80071360.00000000 202328064.00000000 76342.67968750  6237751.50000000 4936479.00000000 
0.03600    126089856.00000000 79010080.00000000 199621824.00000000 74980.22656250  6139346.00000000 4859132.50000000 
0.03700    124344712.00000000 77935968.00000000 196883152.00000000 73606.66406250  6039996.50000000 4781062.00000000 
0.03800    122580656.00000000 76849464.00000000 194114704.00000000 72223.95312500  5939784.50000000 4702283.00000000 
0.03900    120800088.00000000 75752728.00000000 191320528.00000000 70834.47656250  5838803.50000000 4622925.50000000 
0.04000    119004520.00000000 74647200.00000000 188501744.00000000 69439.52343750  5737226.50000000 4543051.50000000 
0.04100    117195976.00000000 73533152.00000000 185662112.00000000 68040.76562500  5635151.50000000 4462803.00000000 
0.04200    115376552.00000000 72411896.00000000 182804000.00000000 66639.92187500  5532683.00000000 4382221.50000000 
0.04300    113547800.00000000 71284256.00000000 179931712.00000000 65239.09375000  5429945.00000000 4301401.00000000 
0.04400    111711512.00000000 70152136.00000000 177047808.00000000 63839.14453125  5327034.00000000 4220454.00000000 
0.04500    109869464.00000000 69015216.00000000 174154288.00000000 62442.23437500  5224088.00000000 4139409.75000000 
0.04600    108023576.00000000 67876056.00000000 171254112.00000000 61049.26953125  5121182.50000000 4058411.50000000 
0.04700    106176096.00000000 66735168.00000000 168351200.00000000 59662.28515625  5018422.00000000 3977524.25000000 
0.04800    104327856.00000000 65593312.00000000 165444144.00000000 58282.74218750  4915882.50000000 3896812.75000000 
0.04900    102480904.00000000 64452592.00000000 162541536.00000000 56911.41015625  4813757.00000000 3816391.25000000 
0.05000    100637392.00000000 63312708.00000000 159642224.00000000 55550.79296875  4712082.00000000 3736300.75000000 
0.05100    98798088.00000000 62175572.00000000 156750192.00000000 54201.35937500  4610959.00000000 3656631.00000000 
0.05200    96965032.00000000 61041948.00000000 153866224.00000000 52864.46093750  4510439.00000000 3577445.00000000 
0.05300    95140512.00000000 59912716.00000000 150994880.00000000 51541.51171875  4410674.50000000 3498825.75000000 
0.05400    93324600.00000000 58788764.00000000 148137008.00000000 50233.39843750  4311706.00000000 3420836.50000000 
0.05500    91519480.00000000 57670736.00000000 145295728.00000000 48941.23828125  4213687.50000000 3343536.00000000 
0.05600    89726944.00000000 56560264.00000000 142473632.00000000 47666.19921875  4116588.75000000 3266983.25000000 
0.05700    87947792.00000000 55457032.00000000 139671712.00000000 46409.16406250  4020566.50000000 3191261.25000000 
0.05800    86182944.00000000 54363040.00000000 136892000.00000000 45171.14843750  3925656.00000000 3116381.75000000 
0.05900    84434664.00000000 53278536.00000000 134138080.00000000 43953.18359375  3831936.00000000 3042423.75000000 
0.06000    82703896.00000000 52204172.00000000 131411992.00000000 42755.69531250  3739487.50000000 2969454.50000000 
0.06100    80991584.00000000 51140780.00000000 128711968.00000000 41579.35546875  3648330.50000000 2897487.50000000 
0.06200    79298336.00000000 50088860.00000000 126043216.00000000 40425.17968750  3558552.75000000 2826598.00000000 
0.06300    77626344.00000000 49049476.00000000 123406376.00000000 39293.74218750  3470210.75000000 2756809.00000000 
0.06400    75975000.00000000 48022528.00000000 120802320.00000000 38185.35546875  3383310.00000000 2688154.00000000 
0.06500    74347112.00000000 47009420.00000000 118233688.00000000 37100.53515625  3297932.00000000 2620709.00000000 
0.06600    72742536.00000000 46010696.00000000 115700776.00000000 36039.52734375  3214127.50000000 2554433.75000000 
0.06700    71161576.00000000 45026284.00000000 113206512.00000000 35003.35156250  3131927.50000000 2489430.75000000 
0.06800    69605960.00000000 44056900.00000000 110750184.00000000 33991.59375000  3051320.25000000 2425695.25000000 
0.06900    68076280.00000000 43102992.00000000 108334344.00000000 33005.08984375  2972381.50000000 2363237.00000000 
0.07000    66572368.00000000 42165348.00000000 105958952.00000000 32043.88671875  2895123.75000000 2302115.25000000 
0.07100    65096200.00000000 41243524.00000000 103624880.00000000 31107.55468750  2819567.75000000 2242295.75000000 
0.07200    63647276.00000000 40338708.00000000 101334728.00000000 30196.69335938  2745759.50000000 2183848.50000000 
0.07300    62225956.00000000 39450396.00000000 99087888.00000000 29311.39453125  2673680.25000000 2126744.00000000 
0.07400    60833036.00000000 38579612.00000000 96884808.00000000 28451.30078125  2603318.25000000 2071013.62500000 
0.07500    59468816.00000000 37726184.00000000 94726560.00000000 27616.81445312  2534753.25000000 2016654.00000000 
0.07600    58133372.00000000 36890308.00000000 92613656.00000000 26807.24218750  2467924.50000000 1963677.12500000 
0.07700    56827716.00000000 36072548.00000000 90546720.00000000 26023.00000000  2402861.75000000 1912074.00000000 
0.07800    55551208.00000000 35272400.00000000 88524816.00000000 25263.38867188  2339559.75000000 1861843.62500000 
0.07900    54304272.00000000 34490352.00000000 86549712.00000000 24528.33984375  2277980.50000000 1813003.37500000 
0.08000    53086888.00000000 33726516.00000000 84621384.00000000 23817.73828125  2218179.50000000 1765518.37500000 
0.08100    51899184.00000000 32981006.00000000 82739152.00000000 23130.91992188  2160089.50000000 1719408.50000000 
0.08200    50741616.00000000 32253416.00000000 80903704.00000000 22467.68945312  2103730.50000000 1674641.87500000 
0.08300    49613192.00000000 31544330.00000000 79114896.00000000 21827.67187500  2049074.75000000 1631205.75000000 
0.08400    48514444.00000000 30853118.00000000 77371016.00000000 21210.36523438  1996117.00000000 1589096.62500000 
0.08500    47445312.00000000 30180086.00000000 75675048.00000000 20615.51562500  1944800.37500000 1548300.87500000 
0.08600    46405096.00000000 29524958.00000000 74023672.00000000 20042.42382812  1895137.12500000 1508792.00000000 
0.08700    45394240.00000000 28887710.00000000 72418024.00000000 19490.78906250  1847077.12500000 1470555.37500000 
0.08800    44411800.00000000 28268366.00000000 70857504.00000000 18959.59375000  1800588.25000000 1433558.50000000 
0.08900    43457324.00000000 27666292.00000000 69341712.00000000 18448.90234375  1755673.50000000 1397787.62500000 
0.09000    42531824.00000000 27081720.00000000 67870432.00000000 17957.75390625  1712274.50000000 1363231.00000000 
0.09100    41633424.00000000 26513986.00000000 66441820.00000000 17485.63476562  1670357.12500000 1329839.25000000 
0.09200    40762072.00000000 25963370.00000000 65056608.00000000 17032.25000000  1629900.62500000 1297603.00000000 
0.09300    39918312.00000000 25429568.00000000 63714016.00000000 16596.56054688  1590868.87500000 1266481.00000000 
0.09400    39100468.00000000 24911970.00000000 62412120.00000000 16178.14453125  1553210.37500000 1236447.87500000 
0.09500    38308332.00000000 24410414.00000000 61151588.00000000 15776.33007812  1516891.62500000 1207478.37500000 
0.09600    37541760.00000000 23924706.00000000 59931520.00000000 15390.55468750  1481885.62500000 1179543.75000000 
0.09700    36800100.00000000 23454342.00000000 58749548.00000000 15020.16894531  1448140.12500000 1152611.00000000 
0.09800    36082576.00000000 22999146.00000000 57606716.00000000 14664.54101562  1415623.00000000 1126649.50000000 
0.09900    35388968.00000000 22558840.00000000 56501016.00000000 14323.05175781  1384281.87500000 1101631.62500000 
0.10000    34717940.00000000 22132764.00000000 55431708.00000000 13995.02636719  1354078.50000000 1077511.62500000 
0.10100    34069712.00000000 21720892.00000000 54398048.00000000 13679.80468750  1324972.75000000 1054258.75000000 
0.10200    33442516.00000000 21322676.00000000 53398988.00000000 13376.82519531  1296926.00000000 1031849.12500000 
0.10300    32837184.00000000 20937780.00000000 52433176.00000000 13085.64746094  1269890.75000000 1010250.06250000 
0.10400    32252184.00000000 20565788.00000000 51500452.00000000 12805.25683594  1243834.50000000 989417.25000000 
0.10500    31687466.00000000 20206448.00000000 50599128.00000000 12535.53613281  1218707.37500000 969335.62500000 
0.10600    31141710.00000000 19859046.00000000 49728244.00000000 12275.54785156  1194465.75000000 949957.43750000 
0.10700    30614340.00000000 19523382.00000000 48886904.00000000 12024.93750000  1171079.37500000 931254.43750000 
0.10800    30105012.00000000 19199092.00000000 48073692.00000000 11783.02343750  1148480.12500000 913201.68750000 
0.10900    29612860.00000000 18885854.00000000 47288268.00000000 11549.38964844  1126671.62500000 895750.25000000 
0.11000    29137284.00000000 18582872.00000000 46529172.00000000 11323.34375000  1105572.25000000 878886.87500000 
0.11100    28677620.00000000 18290076.00000000 45795380.00000000 11104.55371094  1085175.62500000 862580.31250000 
0.11200    28232966.00000000 18006852.00000000 45085876.00000000 10892.46191406  1065410.25000000 846785.50000000 
0.11300    27803256.00000000 17733184.00000000 44399440.00000000 10686.58593750  1046271.62500000 831489.31250000 
0.11400    27386992.00000000 17468190.00000000 43735552.00000000 10486.59082031  1027710.12500000 816658.75000000 
0.11500    26984186.00000000 17211822.00000000 43092432.00000000 10291.87792969  1009677.25000000 802256.50000000 
0.11600    26593916.00000000 16963478.00000000 42469872.00000000 10102.16503906  992164.00000000 788262.18750000 
0.11700    26215856.00000000 16722934.00000000 41866868.00000000 9917.00390625   975124.31250000 774655.06250000 
0.11800    25848898.00000000 16489586.00000000 41281364.00000000 9736.00000000   958522.50000000 761404.93750000 
0.11900    25492826.00000000 16263264.00000000 40713428.00000000 9558.85644531   942324.18750000 748487.18750000 
0.12000    25146638.00000000 16043410.00000000 40161900.00000000 9385.30371094   926517.62500000 735873.93750000 
0.12100    24810428.00000000 15829934.00000000 39626008.00000000 9214.87109375   911069.18750000 723550.75000000 
0.12200    24483020.00000000 15622299.00000000 39104556.00000000 9047.41308594   895932.87500000 711491.43750000 
0.12300    24164148.00000000 15420139.00000000 38596516.00000000 8882.66503906   881105.62500000 699678.50000000 
0.12400    23853082.00000000 15223216.00000000 38101788.00000000 8720.36035156   866556.87500000 688089.00000000 
0.12500    23549718.00000000 15031007.00000000 37618508.00000000 8560.15136719   852250.93750000 676703.75000000 
0.12600    23253182.00000000 14843574.00000000 37147068.00000000 8401.94628906   838189.87500000 665516.43750000 
0.12700    22963102.00000000 14660370.00000000 36686100.00000000 8245.63378906   824330.81250000 654499.87500000 
0.12800    22679078.00000000 14481107.00000000 36234564.00000000 8090.88818359   810663.43750000 643634.00000000 
0.12900    22400386.00000000 14305432.00000000 35792264.00000000 7937.68652344   797172.75000000 632917.12500000 
0.13000    22126972.00000000 14133319.00000000 35358648.00000000 7785.88574219   783840.68750000 622329.62500000 
0.13100    21858358.00000000 13964230.00000000 34932172.00000000 7635.25195312   770648.93750000 611856.18750000 
0.13200    21593846.00000000 13798150.00000000 34512980.00000000 7485.81884766   757588.87500000 601490.68750000 
0.13300    21333420.00000000 13634706.00000000 34100084.00000000 7337.46240234   744643.87500000 591221.00000000 
0.13400    21076716.00000000 13473609.00000000 33693764.00000000 7190.07617188   731801.06250000 581040.06250000 
0.13500    20823232.00000000 13314780.00000000 33292332.00000000 7043.70703125   719056.25000000 570935.06250000 
0.13600    20572582.00000000 13158067.00000000 32895878.00000000 6898.18066406   706394.68750000 560903.93750000 
0.13700    20324918.00000000 13003177.00000000 32503972.00000000 6753.59716797   693812.50000000 550933.75000000 
0.13800    20079436.00000000 12849853.00000000 32116238.00000000 6609.87255859   681298.93750000 541023.50000000 
0.13900    19836230.00000000 12698148.00000000 31731750.00000000 6467.08984375   668852.31250000 531165.31250000 
0.14000    19595000.00000000 12547673.00000000 31350926.00000000 6325.15576172   656463.12500000 521361.46875000 
0.14100    19355608.00000000 12398500.00000000 30972836.00000000 6184.13867188   644131.75000000 511599.21875000 
0.14200    19117506.00000000 12250324.00000000 30597114.00000000 6044.06494141   631859.37500000 501882.87500000 
0.14300    18880948.00000000 12103052.00000000 30224036.00000000 5905.03271484   619634.43750000 492208.59375000 
0.14400    18645434.00000000 11956660.00000000 29852432.00000000 5766.98681641   607462.68750000 482573.03125000 
0.14500    18411076.00000000 11811066.00000000 29482976.00000000 5630.00195312   595340.18750000 472981.12500000 
0.14600    18177558.00000000 11666045.00000000 29115066.00000000 5494.21630859   583268.31250000 463427.78125000 
0.14700    17945248.00000000 11521588.00000000 28748618.00000000 5359.64453125   571251.81250000 453919.75000000 
0.14800    17713246.00000000 11377634.00000000 28383124.00000000 5226.31933594   559290.31250000 444447.90625000 
0.14900    17482114.00000000 11234138.00000000 28018630.00000000 5094.32519531   547382.06250000 435021.40625000 
0.15000    17251372.00000000 11090974.00000000 27655052.00000000 4963.78369141   535539.68750000 425643.56250000 
0.15100    17021246.00000000 10948107.00000000 27292606.00000000 4834.74707031   523753.65625000 416315.43750000 
0.15200    16791678.00000000 10805677.00000000 26930686.00000000 4707.27099609   512046.65625000 407037.84375000 
0.15300    16562610.00000000 10663397.00000000 26569746.00000000 4581.50097656   500407.00000000 397818.59375000 
0.15400    16333923.00000000 10521427.00000000 26209152.00000000 4457.45947266   488843.90625000 388653.37500000 
0.15500    16105589.00000000 10379718.00000000 25849492.00000000 4335.24804688   477362.25000000 379553.65625000 
0.15600    15877908.00000000 10238168.00000000 25490268.00000000 4214.91796875   465968.40625000 370516.00000000 
0.15700    15650653.00000000 10097027.00000000 25131994.00000000 4096.56542969   454665.87500000 361555.37500000 
0.15800    15423704.00000000 9955935.00000000 24774114.00000000 3980.31616211   443466.25000000 352666.43750000 
0.15900    15197393.00000000 9815185.00000000 24417094.00000000 3866.18212891   432369.43750000 343859.50000000 
0.16000    14971699.00000000 9674730.00000000 24060962.00000000 3754.22607422   421383.53125000 335135.12500000 
0.16100    14746711.00000000 9534619.00000000 23705616.00000000 3644.58984375   410515.25000000 326502.06250000 
0.16200    14522301.00000000 9394758.00000000 23351314.00000000 3537.27612305   399773.65625000 317960.21875000 
0.16300    14298664.00000000 9255247.00000000 22998104.00000000 3432.36694336   389156.50000000 309518.53125000 
0.16400    14075847.00000000 9116192.00000000 22645902.00000000 3329.93603516   378677.34375000 301179.84375000 
0.16500    13853981.00000000 8977589.00000000 22295136.00000000 3229.98901367   368339.12500000 292953.15625000 
0.16600    13633031.00000000 8839487.00000000 21945484.00000000 3132.62622070   358148.59375000 284835.90625000 
0.16700    13413072.00000000 8701849.00000000 21597472.00000000 3037.82739258   348108.06250000 276833.37500000 
0.16800    13194277.00000000 8564771.00000000 21251068.00000000 2945.70751953   338226.37500000 268955.46875000 
0.16900    12976784.00000000 8428430.00000000 20906524.00000000 2856.27856445   328509.50000000 261203.28125000 
0.17000    12760444.00000000 8292712.00000000 20563758.00000000 2769.53247070   318961.43750000 253580.82812500 
