# SAXS profile: number of points = 501, q_min = 0, q_max = 0.5, delta_q = 0.001
#    q    intensity 
0.00000    162234128.00000000 101201760.00000000 256270976.00000000 106167.20312500 8300512.00000000 6555696.50000000 
0.00100    162201184.00000000 101179440.00000000 256214880.00000000 106137.14843750 8298392.50000000 6554074.00000000 
0.00200    162097616.00000000 101114856.00000000 256049216.00000000 106045.08593750 8292040.50000000 6549054.50000000 
0.00300    161924208.00000000 101006104.00000000 255772096.00000000 105892.81250000 8281470.50000000 6540778.50000000 
0.00400    161676944.00000000 100853992.00000000 255384528.00000000 105678.99218750 8266729.50000000 6529182.00000000 
0.00500    161358720.00000000 100659128.00000000 254888464.00000000 105406.03906250 8247812.00000000 6514309.50000000 
0.00600    160970960.00000000 100420280.00000000 254279648.00000000 105072.15625000 8224725.50000000 6496186.00000000 
0.00700    160516080.00000000 100139896.00000000 253564176.00000000 104680.27343750 8197573.00000000 6474818.50000000 
0.00800    159987808.00000000 99817128.00000000 252743648.00000000 104229.75781250 8166333.50000000 6450337.00000000 
0.00900    159396000.00000000 99454376.00000000 251815488.00000000 103721.00000000 8131086.50000000 6422650.50000000 
0.01000    158737520.00000000 99049928.00000000 250783936.00000000 103156.33593750 8091913.00000000 6391901.00000000 
0.01100    158015120.00000000 98605560.00000000 249648256.00000000 102536.17968750 8048894.00000000 6358090.50000000 
0.01200    157228688.00000000 98120248.00000000 248411216.00000000 101861.00000000 8002059.00000000 6321266.00000000 
0.01300    156376560.00000000 97596232.00000000 247075024.00000000 101133.07812500 7951481.00000000 6281553.00000000 
0.01400    155462464.00000000 97033848.00000000 245642528.00000000 100353.75000000 7897245.00000000 6238928.00000000 
0.01500    154486480.00000000 96434240.00000000 244113488.00000000 99523.60937500  7839474.00000000 6193525.00000000 
0.01600    153453584.00000000 95798144.00000000 242491456.00000000 98644.85156250  7778270.00000000 6145477.00000000 
0.01700    152363040.00000000 95126360.00000000 240779248.00000000 97718.50781250  7713674.00000000 6094704.50000000 
0.01800    151215024.00000000 94420600.00000000 238978416.00000000 96746.76562500  7645841.50000000 6041400.00000000 
0.01900    150012528.00000000 93680568.00000000 237092064.00000000 95731.00781250  7574869.50000000 5985624.00000000 
0.02000    148758224.00000000 92907648.00000000 235122912.00000000 94673.39843750  7500881.50000000 5927452.00000000 
0.02100    147452288.00000000 92103304.00000000 233073728.00000000 93575.81250000  7423978.00000000 5867056.00000000 
0.02200    146096816.00000000 91269072.00000000 230946736.00000000 92439.51562500  7344269.50000000 5804435.50000000 
0.02300    144693648.00000000 90405576.00000000 228745600.00000000 91267.32812500  7261936.00000000 5739663.50000000 
0.02400    143247152.00000000 89513896.00000000 226472304.00000000 90060.26562500  7177023.50000000 5672952.00000000 
0.02500    141755424.00000000 88595712.00000000 224132000.00000000 88821.49218750  7089739.00000000 5604348.00000000 
0.02600    140224128.00000000 87651272.00000000 221726800.00000000 87552.46875000  7000196.00000000 5533921.00000000 
0.02700    138652976.00000000 86682888.00000000 219259280.00000000 86255.71875000  6908533.00000000 5461848.50000000 
0.02800    137045760.00000000 85691456.00000000 216735424.00000000 84932.61718750  6814866.50000000 5388186.00000000 
0.02900    135402400.00000000 84678864.00000000 214153584.00000000 83586.07812500  6719372.50000000 5313085.00000000 
0.03000    133726872.00000000 83644888.00000000 211523136.00000000 82217.84375000  6622147.50000000 5236617.50000000 
0.03100    132021064.00000000 82593096.00000000 208844752.00000000 80830.63281250  6523353.00000000 5158906.00000000 
0.03200    130287224.00000000 81523184.00000000 206120592.00000000 79425.46875000  6423126.00000000 5080097.00000000 
0.03300    128527232.00000000 80437384.00000000 203354032.00000000 78005.64062500  6321626.00000000 5000228.50000000 
0.03400    126743960.00000000 79336200.00000000 200551840.00000000 76573.27343750  6219010.50000000 4919489.50000000 
0.03500    124938816.00000000 78221376.00000000 197714928.00000000 75129.19531250  6115364.50000000 4837922.00000000 
0.03600    123115184.00000000 77094960.00000000 194848944.00000000 73677.82031250  6010865.00000000 4755718.50000000 
0.03700    121274136.00000000 75957768.00000000 191953840.00000000 72219.15625000  5905694.00000000 4672872.50000000 
0.03800    119418912.00000000 74811624.00000000 189036784.00000000 70755.61718750  5799887.00000000 4589621.00000000 
0.03900    117550224.00000000 73657016.00000000 186099536.00000000 69290.64843750  5693688.50000000 4506006.00000000 
0.04000    115671168.00000000 72495904.00000000 183144368.00000000 67824.59375000  5587159.00000000 4422125.50000000 
0.04100    113785160.00000000 71328848.00000000 180177488.00000000 66360.78125000  5480424.50000000 4338086.00000000 
0.04200    111892288.00000000 70157712.00000000 177199392.00000000 64899.85937500  5373694.50000000 4254006.50000000 
0.04300    109994808.00000000 68983824.00000000 174215104.00000000 63443.88281250  5267008.00000000 4169963.25000000 
0.04400    108096768.00000000 67808208.00000000 171226160.00000000 61995.14453125  5160556.50000000 4086095.50000000 
0.04500    106198088.00000000 66632660.00000000 168238928.00000000 60555.18750000  5054381.00000000 4002462.75000000 
0.04600    104301736.00000000 65457912.00000000 165253760.00000000 59125.57421875  4948712.00000000 3919178.25000000 
0.04700    102408984.00000000 64285248.00000000 162274208.00000000 57708.16015625  4843542.00000000 3836294.25000000 
0.04800    100522912.00000000 63116228.00000000 159305280.00000000 56304.01171875  4739092.00000000 3753954.00000000 
0.04900    98644712.00000000 61951152.00000000 156345872.00000000 54915.24609375  4635385.50000000 3672209.00000000 
0.05000    96775224.00000000 60792004.00000000 153401424.00000000 53542.32812500  4532583.00000000 3591114.25000000 
0.05100    94917696.00000000 59639180.00000000 150474048.00000000 52187.44921875  4430724.00000000 3510809.75000000 
0.05200    93072816.00000000 58493948.00000000 147566880.00000000 50851.15234375  4329952.00000000 3431303.25000000 
0.05300    91242416.00000000 57357452.00000000 144681904.00000000 49535.04296875  4230299.50000000 3352680.25000000 
0.05400    89427712.00000000 56230160.00000000 141821584.00000000 48240.02734375  4131904.00000000 3275042.00000000 
0.05500    87630512.00000000 55113568.00000000 138988576.00000000 46967.44140625  4034811.00000000 3198429.75000000 
0.05600    85852232.00000000 54008300.00000000 136184464.00000000 45717.62890625  3939120.00000000 3122885.50000000 
0.05700    84094344.00000000 52914668.00000000 133412016.00000000 44491.53125000  3844887.75000000 3048474.75000000 
0.05800    82358344.00000000 51834580.00000000 130672528.00000000 43290.29687500  3752154.00000000 2975262.50000000 
0.05900    80644080.00000000 50767724.00000000 127968304.00000000 42114.22656250  3661010.00000000 2903288.50000000 
0.06000    78953864.00000000 49715528.00000000 125300824.00000000 40963.92187500  3571500.50000000 2832563.50000000 
0.06100    77288464.00000000 48678032.00000000 122672336.00000000 39840.07031250  3483663.75000000 2763165.25000000 
0.06200    75648496.00000000 47656584.00000000 120083808.00000000 38743.11718750  3397558.25000000 2695127.50000000 
0.06300    74035704.00000000 46651364.00000000 117536224.00000000 37673.45703125  3313220.00000000 2628482.75000000 
0.06400    72450176.00000000 45662312.00000000 115031608.00000000 36630.70312500  3230663.50000000 2563215.25000000 
0.06500    70892872.00000000 44690788.00000000 112571360.00000000 35615.84375000  3149933.25000000 2499374.50000000 
0.06600    69363984.00000000 43736916.00000000 110156160.00000000 34629.05859375  3071039.75000000 2436987.75000000 
0.06700    67864592.00000000 42800800.00000000 107787352.00000000 33669.69531250  2994044.50000000 2376065.25000000 
0.06800    66395456.00000000 41883156.00000000 105464328.00000000 32738.54687500  2918923.75000000 2316617.50000000 
0.06900    64957116.00000000 40983896.00000000 103189840.00000000 31834.66601562  2845701.75000000 2258672.50000000 
0.07000    63548604.00000000 40103732.00000000 100962920.00000000 30958.71679688  2774357.25000000 2202205.75000000 
0.07100    62171604.00000000 39242592.00000000 98785440.00000000 30110.31250000  2704913.50000000 2147243.50000000 
0.07200    60826088.00000000 38400784.00000000 96656152.00000000 29288.81640625  2637370.75000000 2093741.62500000 
0.07300    59511944.00000000 37578600.00000000 94576712.00000000 28494.44921875  2571720.50000000 2041757.00000000 
0.07400    58229396.00000000 36775476.00000000 92547016.00000000 27726.35156250  2507977.25000000 1991251.87500000 
0.07500    56978528.00000000 35991804.00000000 90567488.00000000 26984.57226562  2446078.50000000 1942205.12500000 
0.07600    55759500.00000000 35228108.00000000 88637104.00000000 26268.25976562  2386025.75000000 1894616.87500000 
0.07700    54572032.00000000 34483640.00000000 86757024.00000000 25577.24218750  2327803.00000000 1848478.62500000 
0.07800    53415684.00000000 33758936.00000000 84926064.00000000 24910.83593750  2271398.25000000 1803754.62500000 
0.07900    52291012.00000000 33053434.00000000 83144360.00000000 24268.35351562  2216767.00000000 1760431.25000000 
0.08000    51197172.00000000 32367262.00000000 81411112.00000000 23649.28906250  2163880.50000000 1718490.25000000 
0.08100    50134132.00000000 31700080.00000000 79726856.00000000 23053.20117188  2112744.75000000 1677912.25000000 
0.08200    49101704.00000000 31052022.00000000 78090816.00000000 22479.36914062  2063251.50000000 1638655.37500000 
0.08300    48098952.00000000 30422478.00000000 76502368.00000000 21926.72265625  2015422.75000000 1600706.12500000 
0.08400    47126076.00000000 29811446.00000000 74959952.00000000 21394.92773438  1969195.50000000 1564010.12500000 
0.08500    46182624.00000000 29218680.00000000 73463832.00000000 20883.30078125  1924547.37500000 1528567.00000000 
0.08600    45267764.00000000 28643838.00000000 72013184.00000000 20391.05468750  1881428.50000000 1494327.00000000 
0.08700    44381232.00000000 28086666.00000000 70606896.00000000 19917.37695312  1839773.12500000 1461263.25000000 
0.08800    43521860.00000000 27546562.00000000 69245048.00000000 19461.41601562  1799568.75000000 1429325.25000000 
0.08900    42689884.00000000 27023504.00000000 67924944.00000000 19022.51171875  1760752.87500000 1398496.50000000 
0.09000    41883964.00000000 26517038.00000000 66647608.00000000 18600.10937500  1723266.75000000 1368733.25000000 
0.09100    41104060.00000000 26026646.00000000 65410700.00000000 18193.32812500  1687101.00000000 1340000.37500000 
0.09200    40349364.00000000 25552122.00000000 64213336.00000000 17801.32031250  1652183.87500000 1312250.62500000 
0.09300    39618832.00000000 25092858.00000000 63055036.00000000 17423.34179688  1618455.00000000 1285466.37500000 
0.09400    38911828.00000000 24648624.00000000 61933904.00000000 17058.76367188  1585878.25000000 1259574.75000000 
0.09500    38228096.00000000 24218866.00000000 60849400.00000000 16706.83203125  1554408.62500000 1234573.87500000 
0.09600    37566576.00000000 23803104.00000000 59800516.00000000 16367.06542969  1523997.25000000 1210426.50000000 
0.09700    36926472.00000000 23401040.00000000 58785560.00000000 16038.34570312  1494597.75000000 1187058.87500000 
0.09800    36307436.00000000 23012168.00000000 57804296.00000000 15720.18261719  1466155.87500000 1164456.25000000 
0.09900    35708348.00000000 22635780.00000000 56854264.00000000 15412.05175781  1438620.75000000 1142591.87500000 
0.10000    35128352.00000000 22271700.00000000 55935272.00000000 15113.17480469  1411969.00000000 1121403.00000000 
0.10100    34566824.00000000 21919274.00000000 55045484.00000000 14822.84472656  1386115.87500000 1100886.37500000 
0.10200    34023220.00000000 21578454.00000000 54184520.00000000 14540.77148438  1361055.25000000 1080983.50000000 
0.10300    33496802.00000000 21248440.00000000 53350232.00000000 14266.05957031  1336721.25000000 1061653.00000000 
0.10400    32986388.00000000 20928566.00000000 52542328.00000000 13998.36523438  1313077.12500000 1042882.12500000 
0.10500    32491528.00000000 20618984.00000000 51758808.00000000 13737.10937500  1290083.50000000 1024623.31250000 
0.10600    32011770.00000000 20318476.00000000 50999516.00000000 13481.72753906  1267693.50000000 1006855.37500000 
0.10700    31545948.00000000 20027062.00000000 50262704.00000000 13231.85351562  1245882.75000000 989544.68750000 
0.10800    31093566.00000000 19744328.00000000 49547336.00000000 12987.00878906  1224587.25000000 972650.56250000 
0.10900    30653894.00000000 19469824.00000000 48852128.00000000 12746.78222656  1203800.00000000 956158.31250000 
0.11000    30226304.00000000 19203000.00000000 48176280.00000000 12510.79785156  1183472.87500000 940028.12500000 
0.11100    29809922.00000000 18943528.00000000 47518644.00000000 12278.68359375  1163575.12500000 924255.31250000 
0.11200    29404428.00000000 18690680.00000000 46878040.00000000 12050.10351562  1144066.12500000 908789.12500000 
0.11300    29008908.00000000 18444642.00000000 46253788.00000000 11824.83105469  1124932.75000000 893618.12500000 
0.11400    28622982.00000000 18204666.00000000 45645084.00000000 11602.48339844  1106138.25000000 878724.56250000 
0.11500    28245960.00000000 17970282.00000000 45050276.00000000 11382.88671875  1087652.87500000 864078.56250000 
0.11600    27877148.00000000 17741298.00000000 44469180.00000000 11165.67675781  1069461.12500000 849655.81250000 
0.11700    27516508.00000000 17517510.00000000 43900532.00000000 10950.83984375  1051529.75000000 835456.25000000 
0.11800    27162538.00000000 17298362.00000000 43343136.00000000 10738.07421875  1033833.12500000 821444.06250000 
0.11900    26815736.00000000 17083480.00000000 42797036.00000000 10527.24902344  1016366.18750000 807612.75000000 
0.12000    26475134.00000000 16872784.00000000 42261052.00000000 10318.29199219  999105.31250000 793940.31250000 
0.12100    26140272.00000000 16665673.00000000 41734408.00000000 10111.11230469  982030.12500000 780429.31250000 
0.12200    25810978.00000000 16462267.00000000 41216380.00000000 9905.50097656   965128.43750000 767048.25000000 
0.12300    25486524.00000000 16261932.00000000 40706084.00000000 9701.44921875   948385.12500000 753795.00000000 
0.12400    25166598.00000000 16064547.00000000 40203488.00000000 9498.92187500   931788.12500000 740656.81250000 
0.12500    24851056.00000000 15869919.00000000 39707224.00000000 9297.79785156   915326.87500000 727628.31250000 
0.12600    24539428.00000000 15677678.00000000 39217648.00000000 9098.35156250   898998.93750000 714698.00000000 
0.12700    24231212.00000000 15487776.00000000 38733688.00000000 8900.20507812   882778.62500000 701862.81250000 
0.12800    23926220.00000000 15299962.00000000 38254912.00000000 8703.61132812   866666.62500000 689113.56250000 
0.12900    23624332.00000000 15113989.00000000 37780908.00000000 8508.48144531   850670.93750000 676451.12500000 
0.13000    23325154.00000000 14929734.00000000 37310984.00000000 8314.95605469   834776.06250000 663864.56250000 
0.13100    23028412.00000000 14747104.00000000 36844932.00000000 8123.06005859   818973.75000000 651353.18750000 
0.13200    22734012.00000000 14565784.00000000 36382624.00000000 7932.74511719   803266.50000000 638918.12500000 
0.13300    22441598.00000000 14385826.00000000 35923840.00000000 7744.21386719   787657.37500000 626557.87500000 
0.13400    22151188.00000000 14206932.00000000 35467608.00000000 7557.50341797   772144.50000000 614269.87500000 
0.13500    21862494.00000000 14029162.00000000 35014504.00000000 7372.68017578   756726.50000000 602051.50000000 
0.13600    21575420.00000000 13852270.00000000 34563548.00000000 7189.81103516   741397.62500000 589912.50000000 
0.13700    21289952.00000000 13676328.00000000 34114948.00000000 7009.03125000   726169.50000000 577840.37500000 
0.13800    21005740.00000000 13501081.00000000 33668296.00000000 6830.33447266   711044.25000000 565847.87500000 
0.13900    20722968.00000000 13326571.00000000 33224018.00000000 6653.94628906   696019.81250000 553935.75000000 
0.14000    20441504.00000000 13152808.00000000 32781410.00000000 6479.95703125   681105.93750000 542107.43750000 
0.14100    20161178.00000000 12979646.00000000 32340508.00000000 6308.31835938   666304.25000000 530362.25000000 
0.14200    19881968.00000000 12807023.00000000 31901246.00000000 6139.22802734   651612.62500000 518706.81250000 
0.14300    19603956.00000000 12635029.00000000 31463726.00000000 5972.78906250   637048.87500000 507145.34375000 
0.14400    19326894.00000000 12463481.00000000 31027780.00000000 5809.03271484   622609.75000000 495675.90625000 
0.14500    19051070.00000000 12292643.00000000 30593270.00000000 5648.13476562   608298.93750000 484313.93750000 
0.14600    18776320.00000000 12122208.00000000 30160564.00000000 5490.08691406   594134.62500000 473057.75000000 
0.14700    18502962.00000000 11952447.00000000 29729270.00000000 5335.06640625   580114.50000000 461908.34375000 
0.14800    18230588.00000000 11783163.00000000 29299784.00000000 5183.01464844   566237.62500000 450875.43750000 
0.14900    17959402.00000000 11614397.00000000 28871794.00000000 5034.12255859   552524.12500000 439964.90625000 
0.15000    17689556.00000000 11446283.00000000 28445460.00000000 4888.38818359   538962.62500000 429177.09375000 
0.15100    17420784.00000000 11278736.00000000 28021290.00000000 4745.88769531   525573.68750000 418520.96875000 
0.15200    17153584.00000000 11111953.00000000 27598936.00000000 4606.73095703   512361.18750000 407998.15625000 
0.15300    16888018.00000000 10945886.00000000 27178692.00000000 4470.86035156   499325.65625000 397614.09375000 
0.15400    16623612.00000000 10780416.00000000 26760336.00000000 4338.36914062   486471.43750000 387374.09375000 
0.15500    16360912.00000000 10615865.00000000 26344368.00000000 4209.28417969   473811.96875000 377281.00000000 
0.15600    16099803.00000000 10451966.00000000 25930520.00000000 4083.63037109   461345.09375000 367340.28125000 
0.15700    15840374.00000000 10289111.00000000 25519476.00000000 3961.43872070   449081.28125000 357555.87500000 
0.15800    15582788.00000000 10127014.00000000 25110796.00000000 3842.67114258   437020.28125000 347929.78125000 
0.15900    15327133.00000000 9965979.00000000 24704848.00000000 3727.43457031   425170.12500000 338467.59375000 
0.16000    15073426.00000000 9805926.00000000 24301768.00000000 3615.62768555   413529.03125000 329170.09375000 
0.16100    14821718.00000000 9647094.00000000 23901804.00000000 3507.27270508   402109.81250000 320045.78125000 
0.16200    14572289.00000000 9489313.00000000 23504920.00000000 3402.35742188   390904.75000000 311092.93750000 
0.16300    14324998.00000000 9332724.00000000 23111198.00000000 3300.87377930   379927.65625000 302312.93750000 
0.16400    14079928.00000000 9177302.00000000 22721080.00000000 3202.79394531   369176.06250000 293711.81250000 
0.16500    13837271.00000000 9023330.00000000 22334502.00000000 3108.04394531   358651.00000000 285287.84375000 
0.16600    13597120.00000000 8870617.00000000 21951488.00000000 3016.61767578   348350.46875000 277047.12500000 
0.16700    13359457.00000000 8719312.00000000 21572152.00000000 2928.45410156   338286.06250000 268983.56250000 
0.16800    13124395.00000000 8569524.00000000 21196808.00000000 2843.49072266   328448.65625000 261104.51562500 
0.16900    12892120.00000000 8421215.00000000 20825680.00000000 2761.75683594   318851.59375000 253411.48437500 
0.17000    12662437.00000000 8274516.00000000 20458586.00000000 2683.08984375   309484.40625000 245902.23437500 
