# SAXS profile: number of points = 501, q_min = 0, q_max = 0.5, delta_q = 0.001
#    q    intensity 
0.00000    162231520.00000000 101202616.00000000 256269920.00000000 108058.84375000 8374096.50000000 6613843.50000000 
0.00100    162187440.00000000 101172104.00000000 256194352.00000000 108017.98437500 8371250.50000000 6611605.00000000 
0.00200    162048448.00000000 101080904.00000000 255965120.00000000 107894.42968750 8362633.00000000 6604787.50000000 
0.00300    161808816.00000000 100931280.00000000 255582016.00000000 107689.46875000 8348266.50000000 6593488.50000000 
0.00400    161465616.00000000 100721088.00000000 255048032.00000000 107402.75000000 8328207.00000000 6577783.50000000 
0.00500    161027344.00000000 100450848.00000000 254360928.00000000 107035.28125000 8302540.00000000 6557534.00000000 
0.00600    160496880.00000000 100122776.00000000 253528592.00000000 106588.89843750 8271316.00000000 6532983.00000000 
0.00700    159864096.00000000 99737680.00000000 252547952.00000000 106063.43750000 8234609.00000000 6504090.50000000 
0.00800    159148144.00000000 99295664.00000000 251420384.00000000 105462.37500000 8192496.50000000 6470936.00000000 
0.00900    158342608.00000000 98798456.00000000 250151056.00000000 104785.66406250 8145068.00000000 6433653.50000000 
0.01000    157449392.00000000 98244144.00000000 248742208.00000000 104035.86718750 8092520.00000000 6392263.50000000 
0.01100    156465440.00000000 97636928.00000000 247197312.00000000 103215.49218750 8034903.50000000 6346982.00000000 
0.01200    155395280.00000000 96976872.00000000 245519072.00000000 102325.20312500 7972407.50000000 6297765.00000000 
0.01300    154246320.00000000 96265728.00000000 243712016.00000000 101369.35156250 7905162.00000000 6244872.50000000 
0.01400    153017728.00000000 95507288.00000000 241778160.00000000 100349.53125000 7833358.50000000 6188366.50000000 
0.01500    151710384.00000000 94699768.00000000 239725056.00000000 99268.03906250  7757184.00000000 6128422.00000000 
0.01600    150330592.00000000 93847896.00000000 237555200.00000000 98128.57812500  7676788.00000000 6065150.00000000 
0.01700    148878944.00000000 92950064.00000000 235272624.00000000 96933.85156250  7592414.50000000 5998698.50000000 
0.01800    147358288.00000000 92011160.00000000 232884160.00000000 95687.47656250  7504228.50000000 5929268.50000000 
0.01900    145775408.00000000 91032776.00000000 230392720.00000000 94392.56250000  7412421.00000000 5856995.00000000 
0.02000    144129856.00000000 90014472.00000000 227803920.00000000 93051.14062500  7317240.50000000 5782070.50000000 
0.02100    142425712.00000000 88961288.00000000 225124256.00000000 91668.12500000  7218910.00000000 5704659.50000000 
0.02200    140668160.00000000 87874488.00000000 222360544.00000000 90246.58593750  7117640.00000000 5624922.00000000 
0.02300    138860448.00000000 86755032.00000000 219515408.00000000 88788.37500000  7013693.00000000 5543040.50000000 
0.02400    137004912.00000000 85606488.00000000 216595776.00000000 87300.72656250  6907243.50000000 5459214.50000000 
0.02500    135104496.00000000 84430816.00000000 213608608.00000000 85783.20312500  6798552.00000000 5373641.50000000 
0.02600    133167600.00000000 83231000.00000000 210557104.00000000 84241.25000000  6687856.50000000 5286414.00000000 
0.02700    131192480.00000000 82008336.00000000 207449024.00000000 82678.12500000  6575416.00000000 5197892.00000000 
0.02800    129185520.00000000 80765168.00000000 204289664.00000000 81097.03125000  6461399.50000000 5108040.50000000 
0.02900    127150280.00000000 79503480.00000000 201086032.00000000 79501.51562500  6346148.00000000 5017214.50000000 
0.03000    125090832.00000000 78227400.00000000 197842880.00000000 77895.64062500  6229774.50000000 4925558.50000000 
0.03100    123010608.00000000 76939000.00000000 194567808.00000000 76281.96093750  6112633.50000000 4833215.00000000 
0.03200    120912488.00000000 75638920.00000000 191263712.00000000 74664.74218750  5994805.50000000 4740384.00000000 
0.03300    118801520.00000000 74329696.00000000 187937840.00000000 73046.01562500  5876604.00000000 4647180.00000000 
0.03400    116680336.00000000 73014312.00000000 184597056.00000000 71429.27343750  5758169.50000000 4553845.50000000 
0.03500    114552992.00000000 71693280.00000000 181247184.00000000 69817.31250000  5639838.00000000 4460562.00000000 
0.03600    112422544.00000000 70370536.00000000 177888224.00000000 68213.15625000  5521674.00000000 4367402.00000000 
0.03700    110292384.00000000 69048232.00000000 174531456.00000000 66619.12500000  5403962.00000000 4274604.50000000 
0.03800    108166856.00000000 67728136.00000000 171180896.00000000 65038.67187500  5286855.00000000 4182216.50000000 
0.03900    106048104.00000000 66411036.00000000 167840720.00000000 63473.57421875  5170610.00000000 4090505.25000000 
0.04000    103938512.00000000 65100452.00000000 164514896.00000000 61926.48828125  5055253.00000000 3999507.75000000 
0.04100    101842520.00000000 63797016.00000000 161208864.00000000 60399.62890625  4940998.00000000 3909398.25000000 
0.04200    99762584.00000000 62503496.00000000 157928368.00000000 58894.60937500  4828062.50000000 3820277.50000000 
0.04300    97700560.00000000 61220992.00000000 154674432.00000000 57413.57421875  4716551.50000000 3732288.25000000 
0.04400    95659328.00000000 59951000.00000000 151455520.00000000 55958.22656250  4606606.50000000 3645534.75000000 
0.04500    93642096.00000000 58695080.00000000 148272160.00000000 54530.01562500  4498304.50000000 3560074.50000000 
0.04600    91650320.00000000 57455068.00000000 145129216.00000000 53130.65625000  4391898.00000000 3476041.00000000 
0.04700    89686672.00000000 56231932.00000000 142029072.00000000 51761.30078125  4287356.50000000 3393498.75000000 
0.04800    87752848.00000000 55027228.00000000 138976320.00000000 50422.15234375  4184806.75000000 3312515.00000000 
0.04900    85850936.00000000 53841848.00000000 135972384.00000000 49115.54296875  4084326.50000000 3233181.00000000 
0.05000    83982200.00000000 52676584.00000000 133024008.00000000 47841.21875000  3986010.75000000 3155558.75000000 
0.05100    82147696.00000000 51533364.00000000 130127056.00000000 46600.25390625  3889942.25000000 3079643.25000000 
0.05200    80351008.00000000 50412212.00000000 127288096.00000000 45392.85937500  3796126.00000000 3005556.75000000 
0.05300    78591368.00000000 49314436.00000000 124508144.00000000 44218.92187500  3704658.75000000 2933297.75000000 
0.05400    76869544.00000000 48240336.00000000 121789144.00000000 43079.91406250  3615567.25000000 2862883.75000000 
0.05500    75188920.00000000 47190904.00000000 119132808.00000000 41974.71484375  3528814.25000000 2794360.25000000 
0.05600    73547624.00000000 46166512.00000000 116539080.00000000 40903.83984375  3444519.75000000 2727722.25000000 
0.05700    71947760.00000000 45167860.00000000 114010872.00000000 39866.91796875  3362597.25000000 2662975.25000000 
0.05800    70389656.00000000 44194336.00000000 111547288.00000000 38863.46093750  3283103.50000000 2600141.00000000 
0.05900    68873392.00000000 43247148.00000000 109151328.00000000 37893.30859375  3206015.25000000 2539217.75000000 
0.06000    67399272.00000000 42326444.00000000 106820864.00000000 36955.34765625  3131316.75000000 2480196.75000000 
0.06100    65967564.00000000 41431952.00000000 104557040.00000000 36050.58984375  3059007.00000000 2423028.75000000 
0.06200    64578652.00000000 40563720.00000000 102361520.00000000 35176.12109375  2989025.25000000 2367672.50000000 
0.06300    63231564.00000000 39722068.00000000 100231504.00000000 34333.20703125  2921351.75000000 2314181.75000000 
0.06400    61926556.00000000 38906652.00000000 98168520.00000000 33520.07812500  2855952.25000000 2262474.00000000 
0.06500    60663488.00000000 38116828.00000000 96171688.00000000 32735.29687500  2792783.25000000 2212543.25000000 
0.06600    59441244.00000000 37353392.00000000 94239520.00000000 31978.96484375  2731773.50000000 2164301.25000000 
0.06700    58260160.00000000 36615376.00000000 92371960.00000000 31249.25585938  2672885.00000000 2117756.25000000 
0.06800    57118836.00000000 35902692.00000000 90568440.00000000 30545.65820312  2616057.50000000 2072841.00000000 
0.06900    56017184.00000000 35214456.00000000 88826416.00000000 29867.48437500  2561220.75000000 2029479.50000000 
0.07000    54953932.00000000 34550684.00000000 87146488.00000000 29213.03125000  2508334.75000000 1987686.12500000 
0.07100    53928784.00000000 33910296.00000000 85526792.00000000 28581.35742188  2457306.50000000 1947357.12500000 
0.07200    52940016.00000000 33294182.00000000 83964824.00000000 27971.51953125  2408088.00000000 1908449.75000000 
0.07300    51987820.00000000 32699916.00000000 82459656.00000000 27382.45117188  2360586.50000000 1870899.00000000 
0.07400    51069988.00000000 32127952.00000000 81010728.00000000 26813.06640625  2314735.75000000 1834680.37500000 
0.07500    50186360.00000000 31577104.00000000 79615456.00000000 26262.16992188  2270467.75000000 1799707.00000000 
0.07600    49334780.00000000 31047068.00000000 78271200.00000000 25728.73437500  2227685.75000000 1765921.37500000 
0.07700    48515352.00000000 30537048.00000000 76978352.00000000 25212.03710938  2186399.50000000 1733288.00000000 
0.07800    47726060.00000000 30046376.00000000 75733368.00000000 24710.71093750  2146436.50000000 1701736.75000000 
0.07900    46966316.00000000 29574136.00000000 74535120.00000000 24224.12695312  2107739.25000000 1671202.75000000 
0.08000    46234324.00000000 29119900.00000000 73381472.00000000 23750.95898438  2070308.37500000 1641630.25000000 
0.08100    45528788.00000000 28682722.00000000 72271448.00000000 23290.70507812  2034000.62500000 1612999.62500000 
0.08200    44849724.00000000 28261884.00000000 71201200.00000000 22842.36328125  1998790.87500000 1585202.00000000 
0.08300    44194444.00000000 27856426.00000000 70170920.00000000 22404.89257812  1964586.00000000 1558227.87500000 
0.08400    43562776.00000000 27465914.00000000 69177016.00000000 21978.02343750  1931345.62500000 1531997.62500000 
0.08500    42952980.00000000 27089466.00000000 68219024.00000000 21560.73437500  1898994.62500000 1506490.62500000 
0.08600    42364592.00000000 26726520.00000000 67294328.00000000 21152.18359375  1867476.50000000 1481639.12500000 
0.08700    41794776.00000000 26375812.00000000 66400204.00000000 20752.12500000  1836724.25000000 1457405.00000000 
0.08800    41244448.00000000 26037226.00000000 65536804.00000000 20359.95117188  1806718.12500000 1433738.12500000 
0.08900    40711908.00000000 25709588.00000000 64700608.00000000 19974.85546875  1777344.12500000 1410589.75000000 
0.09000    40195128.00000000 25392570.00000000 63891288.00000000 19596.65039062  1748620.87500000 1387967.87500000 
0.09100    39693512.00000000 25085368.00000000 63105852.00000000 19224.78906250  1720479.12500000 1365772.62500000 
0.09200    39206548.00000000 24787434.00000000 62343408.00000000 18858.78515625  1692858.75000000 1343999.12500000 
0.09300    38732596.00000000 24497608.00000000 61601908.00000000 18498.46093750  1665728.75000000 1322632.25000000 
0.09400    38271360.00000000 24215854.00000000 60880476.00000000 18143.41210938  1639059.00000000 1301619.37500000 
0.09500    37820620.00000000 23941320.00000000 60176896.00000000 17793.37109375  1612813.50000000 1280937.12500000 
0.09600    37381336.00000000 23673614.00000000 59490792.00000000 17448.17382812  1586949.37500000 1260558.87500000 
0.09700    36951556.00000000 23411876.00000000 58819516.00000000 17107.57812500  1561473.75000000 1240466.62500000 
0.09800    36530532.00000000 23155926.00000000 58162884.00000000 16771.68945312  1536307.00000000 1220636.25000000 
0.09900    36117760.00000000 22905054.00000000 57518884.00000000 16439.82812500  1511466.50000000 1201062.87500000 
0.10000    35712272.00000000 22658822.00000000 56886360.00000000 16112.36816406  1486914.75000000 1181709.75000000 
0.10100    35313448.00000000 22416796.00000000 56264804.00000000 15789.05957031  1462640.00000000 1162580.12500000 
0.10200    34920580.00000000 22178504.00000000 55652924.00000000 15469.98730469  1438648.62500000 1143638.62500000 
0.10300    34533276.00000000 21943842.00000000 55049376.00000000 15154.95800781  1414879.62500000 1124888.37500000 
0.10400    34151600.00000000 21712000.00000000 54453848.00000000 14844.13085938  1391360.12500000 1106330.37500000 
0.10500    33774048.00000000 21482904.00000000 53865212.00000000 14537.43847656  1368054.87500000 1087931.50000000 
0.10600    33400168.00000000 21256066.00000000 53282496.00000000 14234.61425781  1344964.25000000 1069715.62500000 
0.10700    33029744.00000000 21031404.00000000 52705472.00000000 13936.22753906  1322102.87500000 1051647.37500000 
0.10800    32662506.00000000 20808670.00000000 52132796.00000000 13641.90136719  1299432.62500000 1033734.31250000 
0.10900    32298220.00000000 20587248.00000000 51564584.00000000 13351.93261719  1276980.00000000 1015980.06250000 
0.11000    31936116.00000000 20367402.00000000 50999500.00000000 13066.15136719  1254719.62500000 998385.75000000 
0.11100    31576468.00000000 20148414.00000000 50438072.00000000 12784.71679688  1232658.12500000 980933.18750000 
0.11200    31218474.00000000 19930520.00000000 49879364.00000000 12507.62988281  1210810.87500000 963642.12500000 
0.11300    30861848.00000000 19713392.00000000 49322380.00000000 12234.99609375  1189158.25000000 946500.56250000 
0.11400    30507114.00000000 19496940.00000000 48767752.00000000 11966.79589844  1167704.62500000 929512.12500000 
0.11500    30153612.00000000 19281054.00000000 48214800.00000000 11703.15039062  1146443.75000000 912677.87500000 
0.11600    29801108.00000000 19065312.00000000 47663124.00000000 11443.98925781  1125420.87500000 896002.00000000 
0.11700    29449544.00000000 18850092.00000000 47112580.00000000 11189.33984375  1104596.87500000 879494.68750000 
0.11800    29098742.00000000 18635148.00000000 46563372.00000000 10939.31738281  1083979.62500000 863135.75000000 
0.11900    28748882.00000000 18420342.00000000 46015004.00000000 10693.74804688  1063586.25000000 846954.18750000 
0.12000    28400082.00000000 18205704.00000000 45467228.00000000 10452.85937500  1043406.25000000 830932.25000000 
0.12100    28051690.00000000 17991298.00000000 44920332.00000000 10216.47265625  1023461.12500000 815083.68750000 
0.12200    27703926.00000000 17776814.00000000 44373796.00000000 9984.64746094   1003728.31250000 799409.12500000 
0.12300    27356852.00000000 17562470.00000000 43828204.00000000 9757.27539062   984237.68750000 783912.87500000 
0.12400    27010588.00000000 17348264.00000000 43283448.00000000 9534.29492188   964971.75000000 768603.06250000 
0.12500    26665026.00000000 17134276.00000000 42738992.00000000 9315.90136719   945946.56250000 753468.31250000 
0.12600    26320212.00000000 16920334.00000000 42196308.00000000 9101.84082031   927167.81250000 738524.50000000 
0.12700    25976244.00000000 16706698.00000000 41653124.00000000 8891.95898438   908625.62500000 723766.06250000 
0.12800    25633106.00000000 16492970.00000000 41111568.00000000 8686.43359375   890327.62500000 709193.00000000 
0.12900    25290814.00000000 16279731.00000000 40571248.00000000 8485.04882812   872269.18750000 694814.56250000 
0.13000    24949696.00000000 16066747.00000000 40032060.00000000 8287.67968750   854458.75000000 680634.25000000 
0.13100    24609370.00000000 15854080.00000000 39494100.00000000 8094.26318359   836905.75000000 666643.62500000 
0.13200    24270500.00000000 15641963.00000000 38957460.00000000 7904.74951172   819598.56250000 652845.37500000 
0.13300    23932798.00000000 15430198.00000000 38422252.00000000 7719.18066406   802537.87500000 639243.37500000 
0.13400    23596162.00000000 15219017.00000000 37889372.00000000 7537.17773438   785725.87500000 625838.18750000 
0.13500    23261256.00000000 15008576.00000000 37358096.00000000 7358.83447266   769164.06250000 612629.87500000 
0.13600    22927788.00000000 14798641.00000000 36828856.00000000 7183.99267578   752851.81250000 599621.31250000 
0.13700    22595940.00000000 14589547.00000000 36302076.00000000 7012.59277344   736786.81250000 586801.68750000 
0.13800    22265768.00000000 14381302.00000000 35777384.00000000 6844.50976562   720973.37500000 574178.62500000 
0.13900    21937376.00000000 14173959.00000000 35255568.00000000 6679.65722656   705396.87500000 561756.18750000 
0.14000    21611090.00000000 13967515.00000000 34736436.00000000 6517.92431641   690075.68750000 549524.87500000 
0.14100    21286800.00000000 13762202.00000000 34220388.00000000 6359.26757812   674992.12500000 537489.12500000 
0.14200    20964372.00000000 13557997.00000000 33707228.00000000 6203.51220703   660142.31250000 525633.87500000 
0.14300    20644482.00000000 13355088.00000000 33197778.00000000 6050.72265625   645539.93750000 513981.53125000 
0.14400    20326680.00000000 13153307.00000000 32690920.00000000 5900.69042969   631172.43750000 502510.65625000 
0.14500    20011334.00000000 12952936.00000000 32188522.00000000 5753.44873047   617041.00000000 491233.34375000 
0.14600    19698602.00000000 12754035.00000000 31689604.00000000 5608.93212891   603139.00000000 480137.62500000 
0.14700    19388518.00000000 12556564.00000000 31194832.00000000 5466.98144531   589468.75000000 469229.81250000 
0.14800    19081008.00000000 12360626.00000000 30703706.00000000 5327.65966797   576029.87500000 458495.18750000 
0.14900    18776128.00000000 12166266.00000000 30216926.00000000 5190.85302734   562817.43750000 447950.43750000 
0.15000    18474222.00000000 11973566.00000000 29734604.00000000 5056.54101562   549822.81250000 437583.87500000 
0.15100    18175284.00000000 11782707.00000000 29256646.00000000 4924.67724609   537053.43750000 427390.71875000 
0.15200    17879318.00000000 11593635.00000000 28783522.00000000 4795.30468750   524504.12500000 417380.50000000 
0.15300    17586308.00000000 11406261.00000000 28315138.00000000 4668.39160156   512172.96875000 407539.50000000 
0.15400    17296374.00000000 11220947.00000000 27851372.00000000 4543.82666016   500057.59375000 397870.84375000 
0.15500    17009844.00000000 11037345.00000000 27392774.00000000 4421.72216797   488157.53125000 388376.25000000 
0.15600    16726361.00000000 10855882.00000000 26939222.00000000 4302.02001953   476467.31250000 379049.15625000 
0.15700    16446350.00000000 10676424.00000000 26490802.00000000 4184.71191406   464989.93750000 369893.28125000 
0.15800    16169485.00000000 10498934.00000000 26047452.00000000 4069.80224609   453719.46875000 360900.12500000 
0.15900    15896144.00000000 10323569.00000000 25609644.00000000 3957.36376953   442656.37500000 352075.90625000 
0.16000    15626136.00000000 10150329.00000000 25177134.00000000 3847.30859375   431797.65625000 343415.56250000 
0.16100    15359644.00000000 9979230.00000000 24750304.00000000 3739.76806641   421145.31250000 334918.62500000 
0.16200    15096538.00000000 9810423.00000000 24328702.00000000 3634.67724609   410701.00000000 326581.34375000 
0.16300    14837148.00000000 9643811.00000000 23912890.00000000 3532.07910156   400449.84375000 318408.68750000 
0.16400    14581144.00000000 9479308.00000000 23502634.00000000 3431.98901367   390404.96875000 310392.87500000 
0.16500    14328794.00000000 9317120.00000000 23098092.00000000 3334.41333008   380555.59375000 302540.09375000 
0.16600    14080042.00000000 9157149.00000000 22699188.00000000 3239.41455078   370904.50000000 294842.31250000 
0.16700    13834703.00000000 8999357.00000000 22305696.00000000 3146.91918945   361452.21875000 287295.96875000 
0.16800    13593101.00000000 8843998.00000000 21918304.00000000 3057.01855469   352191.65625000 279908.62500000 
0.16900    13355118.00000000 8690857.00000000 21536672.00000000 2969.75244141   343129.65625000 272678.43750000 
0.17000    13120760.00000000 8540014.00000000 21160416.00000000 2885.06518555   334258.68750000 265598.06250000 
