# SAXS profile: number of points = 501, q_min = 0, q_max = 0.5, delta_q = 0.001
#    q    intensity 
0.00000    162237136.00000000 101202000.00000000 256271296.00000000 119191.34375000 8794899.00000000 6946172.00000000 
0.00100    162198912.00000000 101177608.00000000 256208640.00000000 119155.07031250 8792455.00000000 6944266.00000000 
0.00200    162082864.00000000 101104048.00000000 256023824.00000000 119046.96093750 8785200.00000000 6938564.50000000 
0.00300    161885520.00000000 100981336.00000000 255712160.00000000 118866.89843750 8773111.00000000 6929090.50000000 
0.00400    161607616.00000000 100811112.00000000 255275648.00000000 118615.70312500 8756253.00000000 6915865.00000000 
0.00500    161252432.00000000 100591824.00000000 254718448.00000000 118293.15625000 8734689.00000000 6898920.00000000 
0.00600    160818304.00000000 100323048.00000000 254035856.00000000 117900.28125000 8708378.00000000 6878176.50000000 
0.00700    160306480.00000000 100008256.00000000 253234416.00000000 117437.96875000 8677357.00000000 6853813.00000000 
0.00800    159716624.00000000 99646488.00000000 252313984.00000000 116906.77343750 8641721.00000000 6825818.50000000 
0.00900    159054032.00000000 99238088.00000000 251273280.00000000 116308.60156250 8601517.00000000 6794232.00000000 
0.01000    158319696.00000000 98785272.00000000 250116656.00000000 115643.03125000 8556911.00000000 6759122.00000000 
0.01100    157512992.00000000 98286528.00000000 248847648.00000000 114913.47656250 8507848.00000000 6720561.50000000 
0.01200    156632496.00000000 97743504.00000000 247462688.00000000 114119.25781250 8454471.00000000 6678598.50000000 
0.01300    155679392.00000000 97156280.00000000 245969984.00000000 113263.22656250 8396881.00000000 6633318.00000000 
0.01400    154661072.00000000 96527112.00000000 244367920.00000000 112346.85937500 8335185.00000000 6584832.50000000 
0.01500    153574656.00000000 95856464.00000000 242661728.00000000 111371.84375000 8269479.00000000 6533190.00000000 
0.01600    152422848.00000000 95146624.00000000 240853120.00000000 110340.07812500 8199916.50000000 6478477.00000000 
0.01700    151209024.00000000 94396672.00000000 238944912.00000000 109253.28906250 8126554.50000000 6420786.00000000 
0.01800    149932896.00000000 93609912.00000000 236940288.00000000 108113.57812500 8049577.00000000 6360272.50000000 
0.01900    148597728.00000000 92785792.00000000 234842640.00000000 106923.64843750 7969051.00000000 6296993.00000000 
0.02000    147205392.00000000 91926304.00000000 232654672.00000000 105685.17968750 7885226.00000000 6231009.00000000 
0.02100    145757328.00000000 91032704.00000000 230380128.00000000 104400.13281250 7798181.50000000 6162519.00000000 
0.02200    144257744.00000000 90107136.00000000 228024240.00000000 103071.96093750 7707943.50000000 6091627.50000000 
0.02300    142707968.00000000 89150472.00000000 225588384.00000000 101702.10156250 7614865.00000000 6018409.00000000 
0.02400    141109648.00000000 88163392.00000000 223076112.00000000 100292.84375000 7519046.00000000 5943062.00000000 
0.02500    139466528.00000000 87148920.00000000 220491680.00000000 98848.17968750  7420586.50000000 5865608.00000000 
0.02600    137779232.00000000 86106320.00000000 217841632.00000000 97368.81250000  7319705.50000000 5786249.00000000 
0.02700    136052288.00000000 85040288.00000000 215127696.00000000 95858.56250000  7216555.00000000 5705049.00000000 
0.02800    134288080.00000000 83949848.00000000 212352944.00000000 94319.33593750  7111276.50000000 5622230.00000000 
0.02900    132488264.00000000 82837704.00000000 209523184.00000000 92755.11718750  7003997.00000000 5537839.50000000 
0.03000    130655136.00000000 81705400.00000000 206641552.00000000 91166.10156250  6894967.00000000 5452040.00000000 
0.03100    128792720.00000000 80553760.00000000 203713712.00000000 89557.32031250  6784336.00000000 5364982.00000000 
0.03200    126903424.00000000 79385656.00000000 200742128.00000000 87929.71875000  6672214.50000000 5276738.00000000 
0.03300    124988752.00000000 78202976.00000000 197731088.00000000 86286.93750000  6558907.00000000 5187553.00000000 
0.03400    123052912.00000000 77005016.00000000 194686480.00000000 84630.56250000  6444414.00000000 5097437.00000000 
0.03500    121097440.00000000 75796000.00000000 191611168.00000000 82963.96093750  6329012.50000000 5006573.00000000 
0.03600    119125024.00000000 74576552.00000000 188507680.00000000 81290.55468750  6212805.50000000 4915076.50000000 
0.03700    117139072.00000000 73347880.00000000 185384768.00000000 79609.92968750  6095996.00000000 4823115.00000000 
0.03800    115141776.00000000 72112856.00000000 182243392.00000000 77927.30468750  5978759.50000000 4730793.50000000 
0.03900    113136168.00000000 70871440.00000000 179087088.00000000 76244.01562500  5861263.50000000 4638260.50000000 
0.04000    111122848.00000000 69626216.00000000 175919632.00000000 74561.89062500  5743554.00000000 4545577.00000000 
0.04100    109107720.00000000 68377896.00000000 172747328.00000000 72884.45312500  5625910.50000000 4452876.00000000 
0.04200    107090232.00000000 67129112.00000000 169572688.00000000 71212.31250000  5508433.50000000 4360303.50000000 
0.04300    105075056.00000000 65880028.00000000 166399728.00000000 69548.49218750  5391227.50000000 4267964.00000000 
0.04400    103062376.00000000 64633800.00000000 163232944.00000000 67895.14843750  5274495.00000000 4176012.00000000 
0.04500    101055680.00000000 63390384.00000000 160072976.00000000 66254.05468750  5158356.50000000 4084473.75000000 
0.04600    99057520.00000000 62152100.00000000 156926048.00000000 64627.04687500  5042944.50000000 3993526.00000000 
0.04700    97068600.00000000 60919656.00000000 153796080.00000000 63016.36328125  4928390.00000000 3903202.00000000 
0.04800    95092600.00000000 59694752.00000000 150683968.00000000 61423.28125000  4814768.50000000 3813666.75000000 
0.04900    93131560.00000000 58478740.00000000 147595424.00000000 59848.98437500  4702289.50000000 3724969.50000000 
0.05000    91186840.00000000 57272512.00000000 144530144.00000000 58296.15625000  4590993.00000000 3637199.50000000 
0.05100    89259992.00000000 56076972.00000000 141496448.00000000 56764.82812500  4480982.50000000 3550443.25000000 
0.05200    87353192.00000000 54894168.00000000 138491728.00000000 55257.63671875  4372433.00000000 3464795.75000000 
0.05300    85468192.00000000 53723936.00000000 135521392.00000000 53775.19921875  4265331.50000000 3380319.50000000 
0.05400    83605880.00000000 52568584.00000000 132589120.00000000 52318.64453125  4159841.75000000 3297079.25000000 
0.05500    81769296.00000000 51427980.00000000 129693560.00000000 50889.08593750  4056020.00000000 3215167.00000000 
0.05600    79958576.00000000 50303448.00000000 126839440.00000000 49487.36718750  3953941.00000000 3134589.25000000 
0.05700    78175824.00000000 49195684.00000000 124028816.00000000 48114.55468750  3853677.75000000 3055459.25000000 
0.05800    76422344.00000000 48105936.00000000 121263912.00000000 46771.25781250  3755304.50000000 2977783.75000000 
0.05900    74698120.00000000 47034500.00000000 118544848.00000000 45457.63671875  3658840.75000000 2901663.50000000 
0.06000    73005712.00000000 45982220.00000000 115876120.00000000 44175.02734375  3564399.50000000 2827070.50000000 
0.06100    71344552.00000000 44949688.00000000 113257112.00000000 42923.60937500  3471981.00000000 2754086.50000000 
0.06200    69717696.00000000 43937512.00000000 110689816.00000000 41703.68359375  3381656.25000000 2682728.75000000 
0.06300    68124008.00000000 42945908.00000000 108175352.00000000 40515.58203125  3293430.75000000 2613028.75000000 
0.06400    66564384.00000000 41975692.00000000 105716400.00000000 39359.46484375  3207330.00000000 2545000.00000000 
0.06500    65041032.00000000 41027448.00000000 103311336.00000000 38235.51953125  3123384.25000000 2478670.75000000 
0.06600    63552660.00000000 40100860.00000000 100961752.00000000 37143.40234375  3041621.25000000 2414048.25000000 
0.06700    62100348.00000000 39196380.00000000 98669688.00000000 36083.64453125  2962064.00000000 2351140.50000000 
0.06800    60684640.00000000 38314388.00000000 96434784.00000000 35055.66406250  2884669.75000000 2289961.00000000 
0.06900    59305360.00000000 37455072.00000000 94257536.00000000 34059.45312500  2809471.50000000 2230507.00000000 
0.07000    57963152.00000000 36618520.00000000 92138040.00000000 33094.23046875  2736455.75000000 2172746.00000000 
0.07100    56657252.00000000 35804580.00000000 90076376.00000000 32160.44140625  2665612.50000000 2116742.25000000 
0.07200    55388660.00000000 35014088.00000000 88072760.00000000 31257.22656250  2596937.25000000 2062409.87500000 
0.07300    54157240.00000000 34245700.00000000 86127920.00000000 30384.68359375  2530427.50000000 2009773.87500000 
0.07400    52962360.00000000 33500132.00000000 84239872.00000000 29541.28320312  2466020.25000000 1958813.87500000 
0.07500    51803880.00000000 32777390.00000000 82409408.00000000 28727.36523438  2403717.75000000 1909487.50000000 
0.07600    50681460.00000000 32077176.00000000 80635928.00000000 27941.83984375  2343446.50000000 1861813.25000000 
0.07700    49595120.00000000 31399240.00000000 78919800.00000000 27184.24609375  2285243.25000000 1815716.12500000 
0.07800    48543972.00000000 30743064.00000000 77258416.00000000 26453.95312500  2228997.50000000 1771196.75000000 
0.07900    47527820.00000000 30108884.00000000 75652824.00000000 25749.87304688  2174724.75000000 1728214.00000000 
0.08000    46546176.00000000 29495720.00000000 74101360.00000000 25071.86523438  2122365.50000000 1686751.00000000 
0.08100    45598612.00000000 28903872.00000000 72603240.00000000 24418.78710938  2071863.25000000 1646757.25000000 
0.08200    44684012.00000000 28332652.00000000 71157024.00000000 23789.89453125  2023177.50000000 1608200.12500000 
0.08300    43801800.00000000 27781720.00000000 69762648.00000000 23184.39453125  1976263.62500000 1571026.50000000 
0.08400    42951408.00000000 27250480.00000000 68418576.00000000 22601.47265625  1931052.37500000 1535212.00000000 
0.08500    42132340.00000000 26738424.00000000 67123336.00000000 22040.19335938  1887528.00000000 1500710.25000000 
0.08600    41343592.00000000 26245814.00000000 65875688.00000000 21499.99023438  1845571.50000000 1467478.25000000 
0.08700    40583932.00000000 25771180.00000000 64675520.00000000 20979.75390625  1805189.12500000 1435479.37500000 
0.08800    39852960.00000000 25314434.00000000 63519504.00000000 20478.51953125  1766298.12500000 1404649.87500000 
0.08900    39149840.00000000 24874978.00000000 62407448.00000000 19995.98437500  1728842.87500000 1374974.75000000 
0.09000    38473412.00000000 24452306.00000000 61338220.00000000 19530.99609375  1692771.50000000 1346394.37500000 
0.09100    37822748.00000000 24045956.00000000 60309340.00000000 19082.54101562  1658031.62500000 1318837.75000000 
0.09200    37197236.00000000 23655062.00000000 59320320.00000000 18650.11914062  1624531.37500000 1292296.50000000 
0.09300    36595680.00000000 23279430.00000000 58369324.00000000 18232.93359375  1592264.00000000 1266720.75000000 
0.09400    36016800.00000000 22918108.00000000 57454528.00000000 17830.07031250  1561131.25000000 1242038.12500000 
0.09500    35460220.00000000 22570280.00000000 56574772.00000000 17440.80273438  1531094.12500000 1218226.25000000 
0.09600    34924828.00000000 22236322.00000000 55728400.00000000 17064.47656250  1502098.50000000 1195246.75000000 
0.09700    34409052.00000000 21914730.00000000 54914212.00000000 16700.04687500  1474087.75000000 1173044.00000000 
0.09800    33913044.00000000 21605316.00000000 54130448.00000000 16347.24023438  1446998.25000000 1151565.25000000 
0.09900    33435322.00000000 21307434.00000000 53375752.00000000 16005.45214844  1420788.75000000 1130797.62500000 
0.10000    32974792.00000000 21020280.00000000 52648196.00000000 15673.60351562  1395398.12500000 1110663.00000000 
0.10100    32530362.00000000 20743558.00000000 51946888.00000000 15351.29296875  1370783.00000000 1091153.62500000 
0.10200    32101490.00000000 20476470.00000000 51270032.00000000 15038.10253906  1346886.75000000 1072226.62500000 
0.10300    31687536.00000000 20218762.00000000 50616132.00000000 14733.26367188  1323670.50000000 1053828.75000000 
0.10400    31286900.00000000 19969534.00000000 49984004.00000000 14436.24023438  1301094.00000000 1035931.56250000 
0.10500    30899296.00000000 19728610.00000000 49372840.00000000 14146.68847656  1279105.62500000 1018499.75000000 
0.10600    30523436.00000000 19494970.00000000 48780068.00000000 13863.97851562  1257654.87500000 1001502.75000000 
0.10700    30158986.00000000 19268426.00000000 48205196.00000000 13587.89941406  1236712.50000000 984909.00000000 
0.10800    29804586.00000000 19048530.00000000 47646676.00000000 13317.75781250  1216241.75000000 968684.00000000 
0.10900    29459962.00000000 18834610.00000000 47103496.00000000 13053.43554688  1196197.37500000 952801.68750000 
0.11000    29124022.00000000 18626498.00000000 46574356.00000000 12794.36523438  1176560.12500000 937236.18750000 
0.11100    28796444.00000000 18423218.00000000 46058288.00000000 12540.36816406  1157273.37500000 921959.56250000 
0.11200    28476050.00000000 18224922.00000000 45554064.00000000 12291.07910156  1138341.37500000 906949.31250000 
0.11300    28162508.00000000 18030770.00000000 45060688.00000000 12046.32617188  1119703.00000000 892178.25000000 
0.11400    27855314.00000000 17840598.00000000 44577016.00000000 11805.69335938  1101348.62500000 877631.62500000 
0.11500    27553296.00000000 17653850.00000000 44101920.00000000 11569.15722656  1083262.50000000 863291.87500000 
0.11600    27256654.00000000 17470326.00000000 43635212.00000000 11336.40429688  1065404.62500000 849137.93750000 
0.11700    26964258.00000000 17289616.00000000 43175312.00000000 11107.37695312  1047757.43750000 835146.37500000 
0.11800    26676050.00000000 17111238.00000000 42721708.00000000 10881.66308594  1030309.75000000 821307.43750000 
0.11900    26390992.00000000 16935262.00000000 42273684.00000000 10659.39941406  1013047.00000000 807620.37500000 
0.12000    26109250.00000000 16761083.00000000 41830520.00000000 10440.35253906  995945.62500000 794052.12500000 
0.12100    25830084.00000000 16588575.00000000 41391616.00000000 10224.57519531  979003.00000000 780609.31250000 
0.12200    25553204.00000000 16417488.00000000 40956112.00000000 10011.74707031  962194.81250000 767268.50000000 
0.12300    25278316.00000000 16247624.00000000 40523784.00000000 9802.04882812   945520.06250000 754037.50000000 
0.12400    25004942.00000000 16078643.00000000 40093628.00000000 9595.14355469   928975.87500000 740899.06250000 
0.12500    24733100.00000000 15910391.00000000 39665852.00000000 9391.24121094   912531.75000000 727839.12500000 
0.12600    24462126.00000000 15742879.00000000 39239372.00000000 9190.31347656   896214.31250000 714874.75000000 
0.12700    24191932.00000000 15575739.00000000 38814708.00000000 8992.22851562   880001.87500000 701986.75000000 
0.12800    23922438.00000000 15409024.00000000 38390612.00000000 8796.98730469   863886.12500000 689185.12500000 
0.12900    23653558.00000000 15242411.00000000 37967112.00000000 8604.72167969   847882.87500000 676454.25000000 
0.13000    23384856.00000000 15075887.00000000 37544192.00000000 8415.29687500   831978.12500000 663802.75000000 
0.13100    23116274.00000000 14909426.00000000 37120832.00000000 8228.75976562   816170.00000000 651222.18750000 
0.13200    22847862.00000000 14742937.00000000 36697956.00000000 8045.13867188   800465.00000000 638724.87500000 
0.13300    22579486.00000000 14576263.00000000 36274680.00000000 7864.45263672   784871.62500000 626302.50000000 
0.13400    22310764.00000000 14409404.00000000 35851252.00000000 7686.71630859   769378.37500000 613970.56250000 
0.13500    22042346.00000000 14242390.00000000 35427680.00000000 7512.02490234   754005.87500000 601715.25000000 
0.13600    21773494.00000000 14075105.00000000 35003224.00000000 7340.26074219   738744.93750000 589556.31250000 
0.13700    21504696.00000000 13907598.00000000 34578904.00000000 7171.55468750   723606.93750000 577473.06250000 
0.13800    21235548.00000000 13739853.00000000 34153824.00000000 7005.92285156   708583.25000000 565495.43750000 
0.13900    20966406.00000000 13571927.00000000 33728340.00000000 6843.31054688   693700.81250000 553612.81250000 
0.14000    20697178.00000000 13403764.00000000 33302656.00000000 6683.80126953   678944.56250000 541840.81250000 
0.14100    20428054.00000000 13235447.00000000 32876858.00000000 6527.41162109   664339.56250000 530168.93750000 
0.14200    20158910.00000000 13066920.00000000 32450928.00000000 6374.11181641   649876.68750000 518612.96875000 
0.14300    19889690.00000000 12898379.00000000 32024954.00000000 6223.92822266   635566.18750000 507175.62500000 
0.14400    19620884.00000000 12729663.00000000 31598786.00000000 6076.86376953   621408.00000000 495854.28125000 
0.14500    19352268.00000000 12561080.00000000 31173074.00000000 5932.88330078   607424.31250000 484664.40625000 
0.14600    19084102.00000000 12392519.00000000 30747820.00000000 5792.04150391   593609.68750000 473608.56250000 
0.14700    18816566.00000000 12224168.00000000 30323236.00000000 5654.31494141   579970.93750000 462685.37500000 
0.14800    18549454.00000000 12055899.00000000 29899104.00000000 5519.69775391   566505.37500000 451905.28125000 
0.14900    18283120.00000000 11887972.00000000 29476038.00000000 5388.02929688   553231.93750000 441270.46875000 
0.15000    18017626.00000000 11720296.00000000 29053834.00000000 5259.45410156   540151.75000000 430782.46875000 
0.15100    17752906.00000000 11553153.00000000 28633316.00000000 5133.94775391   527266.18750000 420452.00000000 
0.15200    17489466.00000000 11386425.00000000 28214080.00000000 5011.35644531   514580.90625000 410278.25000000 
0.15300    17227328.00000000 11220247.00000000 27796542.00000000 4891.68115234   502097.53125000 400265.93750000 
0.15400    16966208.00000000 11054843.00000000 27380812.00000000 4774.92822266   489826.06250000 390413.96875000 
0.15500    16706672.00000000 10890163.00000000 26967254.00000000 4660.98632812   477765.25000000 380730.78125000 
0.15600    16448755.00000000 10726154.00000000 26555750.00000000 4549.86328125   465915.40625000 371214.68750000 
0.15700    16192582.00000000 10563151.00000000 26146930.00000000 4441.45800781   454286.81250000 361873.21875000 
0.15800    15938015.00000000 10400946.00000000 25740462.00000000 4335.72753906   442872.03125000 352699.84375000 
0.15900    15685352.00000000 10239951.00000000 25337064.00000000 4232.64746094   431678.40625000 343704.31250000 
0.16000    15434676.00000000 10079908.00000000 24936442.00000000 4132.04248047   420707.65625000 334883.75000000 
0.16100    15186187.00000000 9921142.00000000 24539148.00000000 4034.00781250   409964.00000000 326241.62500000 
0.16200    14939909.00000000 9763650.00000000 24144978.00000000 3938.37597656   399439.21875000 317775.40625000 
0.16300    14695868.00000000 9607347.00000000 23754438.00000000 3845.12744141   389133.40625000 309487.46875000 
0.16400    14454235.00000000 9452504.00000000 23367596.00000000 3754.14453125   379057.09375000 301377.71875000 
0.16500    14215114.00000000 9299004.00000000 22984348.00000000 3665.40722656   369198.21875000 293445.46875000 
0.16600    13978531.00000000 9147064.00000000 22604950.00000000 3578.81958008   359562.25000000 285690.31250000 
0.16700    13744518.00000000 8996569.00000000 22229586.00000000 3494.30468750   350141.06250000 278109.59375000 
0.16800    13513153.00000000 8847636.00000000 21858330.00000000 3411.82690430   340941.34375000 270699.40625000 
0.16900    13284631.00000000 8700425.00000000 21491466.00000000 3331.31787109   331958.28125000 263469.75000000 
0.17000    13058829.00000000 8554812.00000000 21128804.00000000 3252.67797852   323181.43750000 256404.15625000 
