# SAXS profile: number of points = 501, q_min = 0, q_max = 0.5, delta_q = 0.001
#    q    intensity 
0.00000    162232016.00000000 101202512.00000000 256270464.00000000 107135.31250000 8338231.00000000 6585501.50000000 
0.00100    162193552.00000000 101175664.00000000 256202672.00000000 107099.04687500 8335721.00000000 6583550.50000000 
0.00200    162073104.00000000 101097784.00000000 256004112.00000000 106991.32812500 8328247.50000000 6577648.00000000 
0.00300    161865504.00000000 100967232.00000000 255672240.00000000 106812.25000000 8315782.50000000 6567897.50000000 
0.00400    161566816.00000000 100784576.00000000 255206464.00000000 106561.23437500 8298342.00000000 6554224.50000000 
0.00500    161184368.00000000 100548840.00000000 254609536.00000000 106240.67968750 8276028.00000000 6536667.00000000 
0.00600    160719888.00000000 100263672.00000000 253885840.00000000 105849.63281250 8248855.50000000 6515301.00000000 
0.00700    160169056.00000000 99928744.00000000 253030304.00000000 105390.75000000 8216868.50000000 6490210.50000000 
0.00800    159541632.00000000 99544768.00000000 252046304.00000000 104864.40625000 8180182.50000000 6461398.50000000 
0.00900    158838880.00000000 99111552.00000000 250940528.00000000 104271.46875000 8138848.00000000 6428925.50000000 
0.01000    158057456.00000000 98628960.00000000 249709728.00000000 103614.17968750 8093019.00000000 6392926.50000000 
0.01100    157197008.00000000 98099520.00000000 248359984.00000000 102893.44531250 8042713.50000000 6353387.50000000 
0.01200    156259072.00000000 97522920.00000000 246892992.00000000 102112.58593750 7988074.50000000 6310523.00000000 
0.01300    155251664.00000000 96901848.00000000 245310400.00000000 101271.21875000 7929287.00000000 6264295.00000000 
0.01400    154171440.00000000 96237000.00000000 243616208.00000000 100374.33593750 7866347.50000000 6214888.50000000 
0.01500    153023856.00000000 95530800.00000000 241813168.00000000 99421.03125000  7799534.50000000 6162369.00000000 
0.01600    151808848.00000000 94782056.00000000 239906128.00000000 98415.92968750  7728944.00000000 6106858.00000000 
0.01700    150529408.00000000 93994088.00000000 237898224.00000000 97360.73437500  7654657.00000000 6048561.50000000 
0.01800    149188336.00000000 93168136.00000000 235794304.00000000 96257.39062500  7576971.00000000 5987490.50000000 
0.01900    147787952.00000000 92305480.00000000 233592560.00000000 95108.99218750  7495950.00000000 5923812.00000000 
0.02000    146329552.00000000 91406888.00000000 231305536.00000000 93918.18750000  7411819.50000000 5857649.50000000 
0.02100    144818192.00000000 90474944.00000000 228931696.00000000 92687.66406250  7324668.00000000 5789169.50000000 
0.02200    143255792.00000000 89511392.00000000 226477664.00000000 91420.10937500  7234760.00000000 5718482.50000000 
0.02300    141645696.00000000 88517504.00000000 223947424.00000000 90118.12500000  7142328.00000000 5645774.00000000 
0.02400    139988816.00000000 87495712.00000000 221343904.00000000 88785.30468750  7047412.50000000 5571103.50000000 
0.02500    138289904.00000000 86447040.00000000 218675184.00000000 87424.80468750  6950260.00000000 5494733.00000000 
0.02600    136551696.00000000 85373272.00000000 215944480.00000000 86037.53906250  6851143.00000000 5416715.00000000 
0.02700    134776928.00000000 84278272.00000000 213155456.00000000 84627.86718750  6750091.50000000 5337272.00000000 
0.02800    132968472.00000000 83160896.00000000 210312144.00000000 83198.21875000  6647414.00000000 5256487.00000000 
0.02900    131130128.00000000 82025304.00000000 207421952.00000000 81752.02343750  6543270.00000000 5174520.50000000 
0.03000    129263640.00000000 80870888.00000000 204487536.00000000 80291.67187500  6437842.00000000 5091573.50000000 
0.03100    127373064.00000000 79702232.00000000 201513728.00000000 78819.69531250  6331350.00000000 5007775.50000000 
0.03200    125460856.00000000 78520320.00000000 198506432.00000000 77339.34375000  6223943.50000000 4923179.00000000 
0.03300    123531360.00000000 77327224.00000000 195470704.00000000 75852.42968750  6115832.00000000 4838041.00000000 
0.03400    121585856.00000000 76123008.00000000 192408128.00000000 74362.33593750  6007146.50000000 4752463.00000000 
0.03500    119627360.00000000 74910072.00000000 189325792.00000000 72871.57031250  5898014.00000000 4666578.50000000 
0.03600    117659296.00000000 73691544.00000000 186228832.00000000 71381.73437500  5788788.00000000 4580478.00000000 
0.03700    115684416.00000000 72467472.00000000 183120080.00000000 69896.00781250  5679433.50000000 4494336.50000000 
0.03800    113705416.00000000 71241208.00000000 180003120.00000000 68416.21093750  5570236.00000000 4408280.50000000 
0.03900    111725928.00000000 70013056.00000000 176885392.00000000 66943.87500000  5461299.50000000 4322392.50000000 
0.04000    109747104.00000000 68785808.00000000 173768416.00000000 65481.60937500  5352813.00000000 4236908.50000000 
0.04100    107772144.00000000 67560208.00000000 170655776.00000000 64031.90625000  5244874.50000000 4151734.50000000 
0.04200    105802944.00000000 66337148.00000000 167552896.00000000 62596.49609375  5137578.50000000 4067159.50000000 
0.04300    103842432.00000000 65119824.00000000 164461808.00000000 61175.91796875  5031177.00000000 3983245.50000000 
0.04400    101892608.00000000 63908156.00000000 161387872.00000000 59773.15625000  4925671.00000000 3900034.75000000 
0.04500    99956392.00000000 62704484.00000000 158333776.00000000 58388.80468750  4821294.00000000 3817658.00000000 
0.04600    98033912.00000000 61509508.00000000 155304064.00000000 57024.48437500  4718060.50000000 3736171.50000000 
0.04700    96129736.00000000 60324548.00000000 152299488.00000000 55681.07031250  4616067.00000000 3655683.00000000 
0.04800    94243968.00000000 59150524.00000000 149323392.00000000 54359.76953125  4515478.50000000 3576257.00000000 
0.04900    92377848.00000000 57989080.00000000 146380304.00000000 53062.28515625  4416310.50000000 3497989.25000000 
0.05000    90534896.00000000 56840972.00000000 143470000.00000000 51788.28515625  4318676.00000000 3420888.75000000 
0.05100    88715424.00000000 55707444.00000000 140597136.00000000 50539.81640625  4222638.50000000 3345022.50000000 
0.05200    86921264.00000000 54588924.00000000 137764096.00000000 49316.70703125  4128248.00000000 3270511.25000000 
0.05300    85153944.00000000 53486192.00000000 134974032.00000000 48119.04687500  4035609.75000000 3197286.75000000 
0.05400    83413120.00000000 52400940.00000000 132225040.00000000 46948.13281250  3944737.50000000 3125473.25000000 
0.05500    81701720.00000000 51332824.00000000 129519624.00000000 45803.61718750  3855673.25000000 3055045.75000000 
0.05600    80019880.00000000 50283080.00000000 126861872.00000000 44686.26953125  3768419.50000000 2986083.50000000 
0.05700    78368848.00000000 49251948.00000000 124253152.00000000 43595.98046875  3683011.75000000 2918600.75000000 
0.05800    76749080.00000000 48239908.00000000 121691864.00000000 42532.45703125  3599537.50000000 2852573.50000000 
0.05900    75160520.00000000 47247792.00000000 119181416.00000000 41496.30859375  3517943.75000000 2788062.25000000 
0.06000    73605968.00000000 46275436.00000000 116721520.00000000 40486.78906250  3438255.25000000 2725036.00000000 
0.06100    72083424.00000000 45322900.00000000 114313648.00000000 39503.86328125  3360495.25000000 2663508.00000000 
0.06200    70594376.00000000 44391824.00000000 111958792.00000000 38547.37500000  3284639.75000000 2603493.50000000 
0.06300    69138600.00000000 43480888.00000000 109655840.00000000 37616.34375000  3210656.25000000 2544987.50000000 
0.06400    67716864.00000000 42591156.00000000 107406008.00000000 36711.83984375  3138611.25000000 2487945.50000000 
0.06500    66329104.00000000 41722204.00000000 105210376.00000000 35831.96484375  3068412.50000000 2432399.00000000 
0.06600    64975264.00000000 40874456.00000000 103067456.00000000 34976.71093750  3000074.00000000 2378339.50000000 
0.06700    63654656.00000000 40047848.00000000 100977728.00000000 34145.50390625  2933542.25000000 2325692.75000000 
0.06800    62368352.00000000 39241904.00000000 98941496.00000000 33337.82031250  2868829.25000000 2274467.25000000 
0.06900    61114832.00000000 38457088.00000000 96957704.00000000 32552.66210938  2805880.25000000 2224654.50000000 
0.07000    59894516.00000000 37693100.00000000 95026720.00000000 31790.26367188  2744647.00000000 2176194.25000000 
0.07100    58707128.00000000 36948916.00000000 93147048.00000000 31049.31445312  2685134.00000000 2129077.00000000 
0.07200    57551624.00000000 36225448.00000000 91317896.00000000 30328.99414062  2627251.75000000 2083262.37500000 
0.07300    56428256.00000000 35522020.00000000 89539488.00000000 29629.35742188  2570982.75000000 2038744.62500000 
0.07400    55336428.00000000 34838164.00000000 87811416.00000000 28948.77929688  2516274.25000000 1995447.50000000 
0.07500    54275648.00000000 34173980.00000000 86132520.00000000 28287.26367188  2463108.75000000 1953355.12500000 
0.07600    53244640.00000000 33528544.00000000 84501264.00000000 27643.90429688  2411396.75000000 1912441.62500000 
0.07700    52243056.00000000 32902412.00000000 82916672.00000000 27018.00976562  2361127.25000000 1872659.75000000 
0.07800    51270620.00000000 32293936.00000000 81377656.00000000 26408.59570312  2312245.00000000 1833977.00000000 
0.07900    50325964.00000000 31703366.00000000 79884440.00000000 25815.71093750  2264669.75000000 1796350.12500000 
0.08000    49409084.00000000 31129964.00000000 78433936.00000000 25237.98046875  2218395.00000000 1759739.75000000 
0.08100    48519632.00000000 30573718.00000000 77027320.00000000 24675.44921875  2173372.25000000 1724116.25000000 
0.08200    47654896.00000000 30033740.00000000 75660848.00000000 24126.82812500  2129512.00000000 1689432.75000000 
0.08300    46815940.00000000 29510084.00000000 74334616.00000000 23591.90625000  2086815.50000000 1655670.00000000 
0.08400    46001332.00000000 29001838.00000000 73048376.00000000 23070.08789062  2045215.62500000 1622767.12500000 
0.08500    45210504.00000000 28508698.00000000 71799368.00000000 22560.86914062  2004669.50000000 1590723.62500000 
0.08600    44442704.00000000 28029858.00000000 70586232.00000000 22063.57812500  1965136.37500000 1559466.87500000 
0.08700    43696444.00000000 27565232.00000000 69409144.00000000 21577.80273438  1926568.12500000 1528973.37500000 
0.08800    42971628.00000000 27114136.00000000 68265848.00000000 21103.14062500  1888918.50000000 1499218.37500000 
0.08900    42267488.00000000 26676400.00000000 67154480.00000000 20639.25781250  1852166.25000000 1470176.75000000 
0.09000    41583148.00000000 26250874.00000000 66075192.00000000 20185.53125000  1816273.87500000 1441798.12500000 
0.09100    40917612.00000000 25837754.00000000 65026164.00000000 19741.39062500  1781180.37500000 1414081.12500000 
0.09200    40270668.00000000 25435864.00000000 64006372.00000000 19307.05664062  1746859.75000000 1386960.75000000 
0.09300    39640772.00000000 25045562.00000000 63014272.00000000 18881.92578125  1713296.62500000 1360437.25000000 
0.09400    39027432.00000000 24665710.00000000 62048924.00000000 18465.12500000  1680432.62500000 1334468.75000000 
0.09500    38430236.00000000 24296322.00000000 61109072.00000000 18057.31835938  1648254.25000000 1309051.00000000 
0.09600    37848868.00000000 23936312.00000000 60193880.00000000 17657.83203125  1616729.87500000 1284147.75000000 
0.09700    37281548.00000000 23585988.00000000 59302164.00000000 17266.15039062  1585836.00000000 1259724.50000000 
0.09800    36728372.00000000 23244372.00000000 58432780.00000000 16882.62695312  1555543.75000000 1235794.50000000 
0.09900    36188524.00000000 22911532.00000000 57584684.00000000 16506.78320312  1525823.25000000 1212317.50000000 
0.10000    35661716.00000000 22586568.00000000 56756756.00000000 16138.16406250  1496655.50000000 1189276.12500000 
0.10100    35146912.00000000 22269552.00000000 55948668.00000000 15777.06542969  1468035.00000000 1166656.12500000 
0.10200    34643848.00000000 21959812.00000000 55158652.00000000 15423.04882812  1439929.62500000 1144434.75000000 
0.10300    34151732.00000000 21656956.00000000 54386668.00000000 15075.89160156  1412321.75000000 1122604.12500000 
0.10400    33670200.00000000 21360950.00000000 53631132.00000000 14735.81738281  1385197.87500000 1101155.62500000 
0.10500    33198680.00000000 21071204.00000000 52891568.00000000 14402.59375000  1358554.37500000 1080083.25000000 
0.10600    32736648.00000000 20787448.00000000 52166876.00000000 14075.99707031  1332341.50000000 1059359.12500000 
0.10700    32283662.00000000 20509308.00000000 51456904.00000000 13755.94238281  1306592.62500000 1038983.06250000 
0.10800    31839354.00000000 20236776.00000000 50760456.00000000 13442.45898438  1281271.25000000 1018935.93750000 
0.10900    31403344.00000000 19968936.00000000 50077296.00000000 13135.41894531  1256372.37500000 999227.12500000 
0.11000    30975310.00000000 19706414.00000000 49406088.00000000 12834.55078125  1231889.37500000 979838.31250000 
0.11100    30554594.00000000 19448384.00000000 48746892.00000000 12540.06640625  1207802.62500000 960761.43750000 
0.11200    30140874.00000000 19194776.00000000 48098768.00000000 12251.72949219  1184121.12500000 941992.75000000 
0.11300    29734178.00000000 18945182.00000000 47461252.00000000 11969.44921875  1160833.62500000 923521.93750000 
0.11400    29333880.00000000 18699744.00000000 46833728.00000000 11693.29199219  1137910.62500000 905353.00000000 
0.11500    28940106.00000000 18457812.00000000 46216248.00000000 11423.05468750  1115381.37500000 887469.37500000 
0.11600    28551736.00000000 18219780.00000000 45607520.00000000 11158.70312500  1093216.87500000 869891.12500000 
0.11700    28169250.00000000 17984874.00000000 45007796.00000000 10900.19335938  1071427.50000000 852583.56250000 
0.11800    27792150.00000000 17753196.00000000 44416236.00000000 10647.18457031  1049993.25000000 835566.56250000 
0.11900    27420146.00000000 17524452.00000000 43832720.00000000 10400.04394531  1028915.81250000 818820.18750000 
0.12000    27052962.00000000 17298844.00000000 43256508.00000000 10158.20019531  1008185.62500000 802343.37500000 
0.12100    26690772.00000000 17075870.00000000 42687816.00000000 9922.08203125   987821.12500000 786147.31250000 
0.12200    26333192.00000000 16855672.00000000 42126024.00000000 9691.16308594   967792.50000000 770215.06250000 
0.12300    25979930.00000000 16637883.00000000 41571276.00000000 9465.55468750   948108.12500000 754546.31250000 
0.12400    25630896.00000000 16422496.00000000 41022664.00000000 9245.09472656   928766.56250000 739149.50000000 
0.12500    25285810.00000000 16209490.00000000 40479876.00000000 9029.61718750   909746.18750000 723998.18750000 
0.12600    24944966.00000000 15998852.00000000 39943684.00000000 8819.12890625   891072.31250000 709121.00000000 
0.12700    24607572.00000000 15790154.00000000 39412756.00000000 8613.59570312   872722.25000000 694492.81250000 
0.12800    24273970.00000000 15583594.00000000 38887324.00000000 8412.67871094   854689.06250000 680116.81250000 
0.12900    23943920.00000000 15379022.00000000 38367372.00000000 8216.39746094   836970.62500000 665988.87500000 
0.13000    23617270.00000000 15176376.00000000 37853092.00000000 8024.77636719   819575.87500000 652109.43750000 
0.13100    23294226.00000000 14975541.00000000 37342952.00000000 7837.40722656   802493.06250000 638472.06250000 
0.13200    22974288.00000000 14776510.00000000 36838104.00000000 7654.36279297   785711.25000000 625073.93750000 
0.13300    22657502.00000000 14579383.00000000 36337880.00000000 7475.53564453   769234.43750000 611921.25000000 
0.13400    22343854.00000000 14383807.00000000 35842424.00000000 7300.76074219   753060.43750000 598997.37500000 
0.13500    22033436.00000000 14189926.00000000 35351340.00000000 7129.89501953   737168.75000000 586304.12500000 
0.13600    21725686.00000000 13997725.00000000 34864988.00000000 6962.87158203   721576.18750000 573841.06250000 
0.13700    21420988.00000000 13807100.00000000 34382284.00000000 6799.66503906   706264.50000000 561602.37500000 
0.13800    21118962.00000000 13617982.00000000 33904516.00000000 6640.02050781   691229.43750000 549582.00000000 
0.13900    20820176.00000000 13430539.00000000 33430630.00000000 6483.91308594   676472.31250000 537786.81250000 
0.14000    20523852.00000000 13244459.00000000 32960766.00000000 6331.23828125   661981.25000000 526200.87500000 
0.14100    20230302.00000000 13060140.00000000 32495382.00000000 6181.90185547   647760.68750000 514824.93750000 
0.14200    19939432.00000000 12877042.00000000 32033932.00000000 6035.70312500   633796.25000000 503659.78125000 
0.14300    19651242.00000000 12695479.00000000 31576364.00000000 5892.73046875   620086.81250000 492697.37500000 
0.14400    19365698.00000000 12515447.00000000 31122458.00000000 5752.78613281   606623.68750000 481931.25000000 
0.14500    19082622.00000000 12336808.00000000 30672798.00000000 5615.73583984   593415.31250000 471361.87500000 
0.14600    18802510.00000000 12159633.00000000 30226942.00000000 5481.64941406   580440.00000000 460985.34375000 
0.14700    18524766.00000000 11983922.00000000 29784980.00000000 5350.34130859   567706.18750000 450799.62500000 
0.14800    18249374.00000000 11809610.00000000 29346750.00000000 5221.77636719   555197.37500000 440795.43750000 
0.14900    17976776.00000000 11636824.00000000 28912540.00000000 5095.89941406   542910.62500000 430975.87500000 
0.15000    17706814.00000000 11465455.00000000 28482126.00000000 4972.58984375   530850.68750000 421331.06250000 
0.15100    17438954.00000000 11295522.00000000 28055612.00000000 4851.86621094   519015.40625000 411864.62500000 
0.15200    17174078.00000000 11127106.00000000 27632778.00000000 4733.65625000   507387.56250000 402569.25000000 
0.15300    16911556.00000000 10960027.00000000 27213974.00000000 4617.85742188   495969.12500000 393441.96875000 
0.15400    16651557.00000000 10794477.00000000 26798934.00000000 4504.44677734   484756.06250000 384473.40625000 
0.15500    16394094.00000000 10630430.00000000 26387626.00000000 4393.48144531   473742.56250000 375673.34375000 
0.15600    16139081.00000000 10467768.00000000 25980484.00000000 4284.75000000   462926.71875000 367027.31250000 
0.15700    15886700.00000000 10306747.00000000 25577040.00000000 4178.35791016   452308.03125000 358539.31250000 
0.15800    15636689.00000000 10147208.00000000 25177698.00000000 4074.17944336   441872.31250000 350204.75000000 
0.15900    15389385.00000000 9989115.00000000 24782176.00000000 3972.24707031   431626.81250000 342018.65625000 
0.16000    15144508.00000000 9832538.00000000 24390602.00000000 3872.48925781   421565.84375000 333981.75000000 
0.16100    14902348.00000000 9677648.00000000 24003094.00000000 3774.93676758   411689.25000000 326090.62500000 
0.16200    14662731.00000000 9524196.00000000 23619746.00000000 3679.53662109   401985.37500000 318341.59375000 
0.16300    14425614.00000000 9372396.00000000 23240216.00000000 3586.25878906   392457.96875000 310735.21875000 
0.16400    14191280.00000000 9222053.00000000 22864958.00000000 3495.09912109   383105.12500000 303263.62500000 
0.16500    13959353.00000000 9073415.00000000 22493560.00000000 3406.01538086   373920.15625000 295933.96875000 
0.16600    13730226.00000000 8926382.00000000 22126442.00000000 3319.00878906   364904.31250000 288733.59375000 
0.16700    13503691.00000000 8780922.00000000 21763394.00000000 3234.04809570   356055.15625000 281666.34375000 
0.16800    13279788.00000000 8637084.00000000 21404552.00000000 3151.14526367   347369.34375000 274727.65625000 
0.16900    13058650.00000000 8494995.00000000 21050038.00000000 3070.27978516   338847.21875000 267924.15625000 
0.17000    12840173.00000000 8354440.00000000 20699640.00000000 2991.38354492   330482.71875000 261242.60937500 
