# SAXS profile: number of points = 501, q_min = 0, q_max = 0.5, delta_q = 0.001
#    q    intensity 
0.00000    162233984.00000000 101201512.00000000 256269984.00000000 107606.20312500 8356535.00000000 6599956.50000000 
0.00100    162198720.00000000 101177816.00000000 256210272.00000000 107572.92968750 8354240.00000000 6598204.50000000 
0.00200    162086992.00000000 101106976.00000000 256030160.00000000 107474.69531250 8347379.00000000 6592822.00000000 
0.00300    161899392.00000000 100988568.00000000 255728960.00000000 107309.98437500 8335990.00000000 6583824.00000000 
0.00400    161629904.00000000 100823824.00000000 255307104.00000000 107079.75000000 8320062.50000000 6571336.50000000 
0.00500    161283152.00000000 100611928.00000000 254767104.00000000 106784.75781250 8299632.00000000 6555340.00000000 
0.00600    160861344.00000000 100351344.00000000 254104528.00000000 106425.76562500 8274735.00000000 6535766.00000000 
0.00700    160362816.00000000 100047824.00000000 253329120.00000000 106004.22656250 8245429.50000000 6512778.50000000 
0.00800    159787664.00000000 99698136.00000000 252437600.00000000 105519.11718750 8211812.50000000 6486413.50000000 
0.00900    159145760.00000000 99304632.00000000 251429488.00000000 104973.35156250 8173830.50000000 6456621.50000000 
0.01000    158434224.00000000 98867288.00000000 250309424.00000000 104366.96875000 8131693.50000000 6423512.00000000 
0.01100    157652192.00000000 98384560.00000000 249080752.00000000 103701.63281250 8085345.00000000 6387181.50000000 
0.01200    156795808.00000000 97859256.00000000 247739968.00000000 102977.96093750 8035017.00000000 6347619.50000000 
0.01300    155873232.00000000 97291896.00000000 246293920.00000000 102198.75781250 7980718.00000000 6305019.50000000 
0.01400    154883872.00000000 96683848.00000000 244744688.00000000 101365.57031250 7922617.00000000 6259368.00000000 
0.01500    153829728.00000000 96036984.00000000 243091600.00000000 100478.67968750 7860686.50000000 6210761.50000000 
0.01600    152714784.00000000 95350872.00000000 241340544.00000000 99541.63281250  7795230.00000000 6159371.00000000 
0.01700    151536864.00000000 94626992.00000000 239495600.00000000 98555.21875000  7726190.00000000 6105156.50000000 
0.01800    150299664.00000000 93866528.00000000 237554672.00000000 97521.99218750  7653760.00000000 6048322.50000000 
0.01900    149004992.00000000 93070192.00000000 235525168.00000000 96443.54687500  7578159.00000000 5988943.00000000 
0.02000    147655248.00000000 92240672.00000000 233406928.00000000 95322.94531250  7499352.00000000 5927079.00000000 
0.02100    146253616.00000000 91378856.00000000 231209024.00000000 94160.67968750  7417705.00000000 5862895.00000000 
0.02200    144800096.00000000 90484528.00000000 228927184.00000000 92961.47656250  7333143.50000000 5796512.50000000 
0.02300    143298592.00000000 89560560.00000000 226571056.00000000 91725.33593750  7245954.50000000 5728000.50000000 
0.02400    141750176.00000000 88607328.00000000 224143472.00000000 90456.40625000  7156221.50000000 5657492.50000000 
0.02500    140158512.00000000 87627408.00000000 221645968.00000000 89155.66406250  7064151.50000000 5585146.00000000 
0.02600    138525520.00000000 86621384.00000000 219081744.00000000 87826.14062500  6969815.00000000 5511033.50000000 
0.02700    136853984.00000000 85591432.00000000 216458096.00000000 86470.28125000  6873460.00000000 5435332.00000000 
0.02800    135145584.00000000 84538992.00000000 213776272.00000000 85090.25781250  6775268.00000000 5358126.50000000 
0.02900    133404040.00000000 83465800.00000000 211041232.00000000 83688.92968750  6675306.00000000 5279534.50000000 
0.03000    131630592.00000000 82372408.00000000 208257808.00000000 82269.13281250  6573779.50000000 5199699.00000000 
0.03100    129829232.00000000 81261304.00000000 205425984.00000000 80831.88281250  6470826.50000000 5118751.00000000 
0.03200    128000712.00000000 80132728.00000000 202556176.00000000 79380.85937500  6366639.00000000 5036815.50000000 
0.03300    126149616.00000000 78990800.00000000 199645648.00000000 77918.26562500  6261388.00000000 4953992.50000000 
0.03400    124276400.00000000 77834928.00000000 196701392.00000000 76445.75000000  6155199.50000000 4870534.50000000 
0.03500    122385648.00000000 76667976.00000000 193731216.00000000 74967.13281250  6048201.00000000 4786362.50000000 
0.03600    120478312.00000000 75490872.00000000 190733344.00000000 73482.54687500  5940683.50000000 4701731.00000000 
0.03700    118557680.00000000 74304248.00000000 187712576.00000000 71995.99218750  5832642.50000000 4616725.50000000 
0.03800    116626248.00000000 73110544.00000000 184676688.00000000 70509.14062500  5724310.50000000 4531413.50000000 
0.03900    114686608.00000000 71911064.00000000 181626640.00000000 69023.85156250  5615770.50000000 4446002.50000000 
0.04000    112740344.00000000 70706504.00000000 178564656.00000000 67542.30468750  5507243.50000000 4360581.50000000 
0.04100    110790168.00000000 69500552.00000000 175497920.00000000 66066.53906250  5398792.50000000 4275151.00000000 
0.04200    108839432.00000000 68292928.00000000 172427184.00000000 64598.01562500  5290670.00000000 4189968.75000000 
0.04300    106889672.00000000 67085840.00000000 169359072.00000000 63139.05078125  5182889.00000000 4105074.75000000 
0.04400    104942008.00000000 65879116.00000000 166292224.00000000 61691.38671875  5075627.00000000 4020543.75000000 
0.04500    103000144.00000000 64675708.00000000 163234480.00000000 60256.91796875  4968990.50000000 3936523.00000000 
0.04600    101065464.00000000 63476532.00000000 160187984.00000000 58837.01953125  4863139.00000000 3853056.75000000 
0.04700    99140504.00000000 62282736.00000000 157155312.00000000 57432.56640625  4758157.50000000 3770254.50000000 
0.04800    97226600.00000000 61095232.00000000 154139792.00000000 56045.85546875  4654068.50000000 3688225.75000000 
0.04900    95325960.00000000 59915420.00000000 151145296.00000000 54677.46875000  4551111.00000000 3606983.75000000 
0.05000    93440360.00000000 58744512.00000000 148173504.00000000 53329.55078125  4449306.50000000 3526702.00000000 
0.05100    91571152.00000000 57583348.00000000 145226832.00000000 52002.31250000  4348754.00000000 3447368.25000000 
0.05200    89719992.00000000 56433120.00000000 142308784.00000000 50696.85937500  4249554.50000000 3369060.25000000 
0.05300    87890080.00000000 55294960.00000000 139421648.00000000 49414.80468750  4151748.50000000 3291866.50000000 
0.05400    86080360.00000000 54169372.00000000 136568512.00000000 48156.41406250  4055481.25000000 3215851.00000000 
0.05500    84293656.00000000 53057192.00000000 133749016.00000000 46922.55468750  3960708.50000000 3141030.75000000 
0.05600    82531472.00000000 51959880.00000000 130968336.00000000 45713.76562500  3867594.25000000 3067462.75000000 
0.05700    80794288.00000000 50878180.00000000 128225288.00000000 44531.11328125  3776128.00000000 2995231.50000000 
0.05800    79083520.00000000 49811812.00000000 125524288.00000000 43374.43359375  3686395.00000000 2924291.25000000 
0.05900    77400448.00000000 48762700.00000000 122866592.00000000 42244.42968750  3598429.75000000 2854770.00000000 
0.06000    75745352.00000000 47730780.00000000 120253032.00000000 41141.33593750  3512233.50000000 2786641.75000000 
0.06100    74119904.00000000 46716396.00000000 117685024.00000000 40065.55468750  3427930.25000000 2719951.00000000 
0.06200    72524896.00000000 45720728.00000000 115163088.00000000 39016.69140625  3345449.50000000 2654733.25000000 
0.06300    70960008.00000000 44743488.00000000 112690552.00000000 37995.62890625  3264851.50000000 2590974.50000000 
0.06400    69426912.00000000 43785860.00000000 110267048.00000000 37002.01562500  3186157.50000000 2528711.50000000 
0.06500    67926592.00000000 42847488.00000000 107892856.00000000 36035.72656250  3109381.25000000 2467905.75000000 
0.06600    66457632.00000000 41928864.00000000 105570440.00000000 35095.98828125  3034511.00000000 2408649.50000000 
0.06700    65021508.00000000 41030572.00000000 103298920.00000000 34183.65625000  2961548.25000000 2350849.75000000 
0.06800    63618728.00000000 40152648.00000000 101078600.00000000 33297.85937500  2890505.00000000 2294600.75000000 
0.06900    62249080.00000000 39294692.00000000 98911440.00000000 32438.58398438  2821346.75000000 2239832.75000000 
0.07000    60913008.00000000 38458060.00000000 96796120.00000000 31605.58789062  2754099.25000000 2186565.50000000 
0.07100    59610508.00000000 37641672.00000000 94733552.00000000 30797.81640625  2688729.00000000 2134742.75000000 
0.07200    58341032.00000000 36846100.00000000 92724152.00000000 30015.40820312  2625227.75000000 2084383.50000000 
0.07300    57105720.00000000 36071016.00000000 90767360.00000000 29257.77148438  2563546.00000000 2035502.87500000 
0.07400    55903192.00000000 35317020.00000000 88862392.00000000 28523.89257812  2503690.75000000 1988023.87500000 
0.07500    54734508.00000000 34583136.00000000 87009904.00000000 27813.74414062  2445608.50000000 1941973.25000000 
0.07600    53597536.00000000 33869804.00000000 85208712.00000000 27126.56250000  2389275.00000000 1897282.37500000 
0.07700    52494240.00000000 33177268.00000000 83459848.00000000 26461.72656250  2334666.25000000 1853968.87500000 
0.07800    51422616.00000000 32504102.00000000 81760792.00000000 25818.59765625  2281747.75000000 1811969.25000000 
0.07900    50382740.00000000 31850768.00000000 80112552.00000000 25196.50000000  2230466.00000000 1771269.75000000 
0.08000    49374248.00000000 31217082.00000000 78513520.00000000 24594.89453125  2180794.75000000 1731835.25000000 
0.08100    48396596.00000000 30602686.00000000 76963688.00000000 24012.91796875  2132676.00000000 1693654.50000000 
0.08200    47449792.00000000 30007240.00000000 75461592.00000000 23450.12695312  2086091.12500000 1656661.00000000 
0.08300    46532068.00000000 29430710.00000000 74006072.00000000 22905.43554688  2040974.87500000 1620826.75000000 
0.08400    45643636.00000000 28871876.00000000 72596936.00000000 22378.60937500  1997281.00000000 1586143.12500000 
0.08500    44783968.00000000 28331440.00000000 71233216.00000000 21868.72460938  1954995.50000000 1552553.87500000 
0.08600    43951604.00000000 27808286.00000000 69913728.00000000 21375.08398438  1914024.37500000 1520019.87500000 
0.08700    43147028.00000000 27301958.00000000 68637360.00000000 20897.24218750  1874375.87500000 1488516.25000000 
0.08800    42368444.00000000 26812602.00000000 67402536.00000000 20434.23632812  1835947.37500000 1457994.75000000 
0.08900    41615764.00000000 26339406.00000000 66208520.00000000 19985.41796875  1798721.37500000 1428435.37500000 
0.09000    40887620.00000000 25881618.00000000 65054208.00000000 19550.53320312  1762667.62500000 1399786.25000000 
0.09100    40183932.00000000 25439484.00000000 63938540.00000000 19128.47265625  1727727.12500000 1372015.62500000 
0.09200    39503308.00000000 25011904.00000000 62859392.00000000 18719.03710938  1693819.75000000 1345083.25000000 
0.09300    38845824.00000000 24598814.00000000 61817008.00000000 18321.38671875  1660942.50000000 1318956.62500000 
0.09400    38209928.00000000 24199202.00000000 60809056.00000000 17934.81835938  1629021.25000000 1293611.87500000 
0.09500    37595100.00000000 23813366.00000000 59834272.00000000 17559.15625000  1598036.50000000 1268995.87500000 
0.09600    37000328.00000000 23440114.00000000 58892296.00000000 17193.48632812  1567941.12500000 1245082.12500000 
0.09700    36425544.00000000 23079442.00000000 57980680.00000000 16837.69726562  1538677.25000000 1221845.50000000 
0.09800    35868884.00000000 22730390.00000000 57099816.00000000 16491.13281250  1510216.37500000 1199249.62500000 
0.09900    35329952.00000000 22392970.00000000 56246384.00000000 16153.33203125  1482530.37500000 1177259.12500000 
0.10000    34808556.00000000 22066138.00000000 55420988.00000000 15823.77929688  1455550.25000000 1155844.00000000 
0.10100    34303568.00000000 21749990.00000000 54621272.00000000 15502.11425781  1429264.75000000 1134962.12500000 
0.10200    33814120.00000000 21443754.00000000 53846696.00000000 15187.92285156  1403621.62500000 1114608.00000000 
0.10300    33339114.00000000 21146828.00000000 53095492.00000000 14880.74121094  1378605.87500000 1094748.75000000 
0.10400    32878278.00000000 20858954.00000000 52366944.00000000 14580.45117188  1354158.62500000 1075355.50000000 
0.10500    32431392.00000000 20579856.00000000 51660296.00000000 14286.57421875  1330273.37500000 1056394.37500000 
0.10600    31996326.00000000 20308628.00000000 50973364.00000000 13998.75781250  1306900.75000000 1037840.43750000 
0.10700    31573540.00000000 20045232.00000000 50305952.00000000 13716.84277344  1284030.12500000 1019694.75000000 
0.10800    31162120.00000000 19788950.00000000 49656628.00000000 13440.51855469  1261624.00000000 1001907.25000000 
0.10900    30761446.00000000 19539466.00000000 49023828.00000000 13169.30859375  1239653.12500000 984476.12500000 
0.11000    30370710.00000000 19296622.00000000 48407508.00000000 12903.34667969  1218094.50000000 967369.25000000 
0.11100    29989298.00000000 19059568.00000000 47806200.00000000 12642.21484375  1196932.37500000 950583.25000000 
0.11200    29616854.00000000 18828396.00000000 47219120.00000000 12385.84765625  1176139.00000000 934091.68750000 
0.11300    29252524.00000000 18602352.00000000 46645324.00000000 12133.90429688  1155687.25000000 917870.81250000 
0.11400    28896128.00000000 18381280.00000000 46083264.00000000 11886.30859375  1135589.87500000 901923.56250000 
0.11500    28546826.00000000 18164892.00000000 45533720.00000000 11642.92187500  1115793.87500000 886223.87500000 
0.11600    28204152.00000000 17952722.00000000 44994312.00000000 11403.58105469  1096295.37500000 870758.87500000 
0.11700    27867734.00000000 17744518.00000000 44464848.00000000 11168.24804688  1077092.87500000 855518.75000000 
0.11800    27537196.00000000 17539958.00000000 43944420.00000000 10936.69238281  1058155.62500000 840492.12500000 
0.11900    27211748.00000000 17338812.00000000 43432660.00000000 10708.91113281  1039470.68750000 825674.81250000 
0.12000    26891106.00000000 17140854.00000000 42929012.00000000 10484.68457031  1021033.25000000 811047.37500000 
0.12100    26575264.00000000 16945732.00000000 42432040.00000000 10264.14062500  1002832.12500000 796611.25000000 
0.12200    26263694.00000000 16753238.00000000 41941788.00000000 10046.92968750  984856.75000000 782346.87500000 
0.12300    25955656.00000000 16563089.00000000 41457572.00000000 9833.23730469   967113.62500000 768261.93750000 
0.12400    25651188.00000000 16375116.00000000 40978968.00000000 9622.92773438   949566.50000000 754340.00000000 
0.12500    25349846.00000000 16189085.00000000 40505172.00000000 9415.85449219   932227.00000000 740579.68750000 
0.12600    25051492.00000000 16004985.00000000 40036040.00000000 9212.18261719   915093.56250000 726973.68750000 
0.12700    24755698.00000000 15822385.00000000 39571028.00000000 9011.67187500   898154.25000000 713521.75000000 
0.12800    24462320.00000000 15641234.00000000 39110208.00000000 8814.25000000   881397.06250000 700219.50000000 
0.12900    24171208.00000000 15461446.00000000 38652196.00000000 8620.12988281   864830.68750000 687058.81250000 
0.13000    23881918.00000000 15282723.00000000 38197484.00000000 8429.03808594   848442.75000000 674043.75000000 
0.13100    23594434.00000000 15105180.00000000 37745468.00000000 8241.02148438   832229.87500000 661166.25000000 
0.13200    23308578.00000000 14928411.00000000 37295768.00000000 8056.09716797   816199.87500000 648429.68750000 
0.13300    23024310.00000000 14752656.00000000 36848440.00000000 7874.21484375   800344.56250000 635830.50000000 
0.13400    22741242.00000000 14577499.00000000 36402916.00000000 7695.34716797   784663.87500000 623367.18750000 
0.13500    22459424.00000000 14402965.00000000 35959148.00000000 7519.44140625   769159.37500000 611035.31250000 
0.13600    22178612.00000000 14229138.00000000 35516968.00000000 7346.42529297   753825.37500000 598847.81250000 
0.13700    21898942.00000000 14055700.00000000 35076368.00000000 7176.36083984   738658.81250000 586786.31250000 
0.13800    21619968.00000000 13882708.00000000 34637164.00000000 7009.27246094   723662.81250000 574862.62500000 
0.13900    21342200.00000000 13710223.00000000 34199112.00000000 6845.02246094   708849.31250000 563072.68750000 
0.14000    21065000.00000000 13538124.00000000 33762220.00000000 6683.66406250   694196.43750000 551418.93750000 
0.14100    20788846.00000000 13366335.00000000 33326464.00000000 6525.11132812   679718.68750000 539898.31250000 
0.14200    20513222.00000000 13194864.00000000 32891590.00000000 6369.35253906   665419.68750000 528515.00000000 
0.14300    20238430.00000000 13023715.00000000 32457888.00000000 6216.36376953   651290.62500000 517264.56250000 
0.14400    19964284.00000000 12852777.00000000 32024812.00000000 6066.21777344   637329.25000000 506155.31250000 
0.14500    19691118.00000000 12682405.00000000 31592882.00000000 5918.74267578   623554.62500000 495183.75000000 
0.14600    19418472.00000000 12512142.00000000 31162074.00000000 5773.99316406   609950.75000000 484349.53125000 
0.14700    19146790.00000000 12342303.00000000 30732308.00000000 5631.92773438   596518.43750000 473653.43750000 
0.14800    18875900.00000000 12172792.00000000 30303650.00000000 5492.52148438   583263.25000000 463097.09375000 
0.14900    18605620.00000000 12003735.00000000 29876016.00000000 5355.72460938   570190.43750000 452685.09375000 
0.15000    18336296.00000000 11834967.00000000 29449508.00000000 5221.60107422   557296.43750000 442410.06250000 
0.15100    18067998.00000000 11666651.00000000 29024446.00000000 5089.99755859   544579.68750000 432278.87500000 
0.15200    17800724.00000000 11498806.00000000 28600768.00000000 4961.00781250   532044.81250000 422289.59375000 
0.15300    17534296.00000000 11331483.00000000 28178532.00000000 4834.53613281   519686.40625000 412446.37500000 
0.15400    17269110.00000000 11164693.00000000 27757706.00000000 4710.60400391   507511.34375000 402742.93750000 
0.15500    17005152.00000000 10998457.00000000 27338560.00000000 4589.08642578   495521.03125000 393185.00000000 
0.15600    16742161.00000000 10832856.00000000 26921248.00000000 4470.06689453   483709.12500000 383772.78125000 
0.15700    16480777.00000000 10668042.00000000 26505922.00000000 4353.45849609   472082.15625000 374509.12500000 
0.15800    16220616.00000000 10503698.00000000 26092474.00000000 4239.27001953   460635.81250000 365383.40625000 
0.15900    15961989.00000000 10340386.00000000 25681048.00000000 4127.52099609   449376.43750000 356408.96875000 
0.16000    15704711.00000000 10177661.00000000 25272088.00000000 4018.06933594   438296.06250000 347578.31250000 
0.16100    15449204.00000000 10016060.00000000 24865486.00000000 3911.03588867   427400.34375000 338895.56250000 
0.16200    15195246.00000000 9855102.00000000 24461394.00000000 3806.32128906   416688.87500000 330359.12500000 
0.16300    14943152.00000000 9695372.00000000 24059898.00000000 3703.89770508   406164.09375000 321967.62500000 
0.16400    14692901.00000000 9536646.00000000 23661278.00000000 3603.80712891   395819.06250000 313722.96875000 
0.16500    14444424.00000000 9378862.00000000 23265452.00000000 3505.93627930   385659.87500000 305625.25000000 
0.16600    14198175.00000000 9222524.00000000 22872496.00000000 3410.32690430   375679.62500000 297671.81250000 
0.16700    13953783.00000000 9067080.00000000 22482974.00000000 3316.94799805   365882.31250000 289863.40625000 
0.16800    13711669.00000000 8912956.00000000 22096756.00000000 3225.78930664   356267.18750000 282199.37500000 
0.16900    13471791.00000000 8760306.00000000 21713966.00000000 3136.86816406   346836.06250000 274685.46875000 
0.17000    13234180.00000000 8608830.00000000 21334590.00000000 3050.10131836   337584.37500000 267311.25000000 
