# SAXS profile: number of points = 501, q_min = 0, q_max = 0.5, delta_q = 0.001
#    q    intensity 
0.00000    162238128.00000000 101201944.00000000 256270992.00000000 103554.40625000 8197718.00000000 6474505.50000000 
0.00100    162205520.00000000 101180680.00000000 256218624.00000000 103528.92187500 8195821.00000000 6473074.50000000 
0.00200    162105584.00000000 101117248.00000000 256057872.00000000 103450.57031250 8190155.00000000 6468618.00000000 
0.00300    161935856.00000000 101012296.00000000 255791056.00000000 103320.59375000 8180697.50000000 6461131.00000000 
0.00400    161698368.00000000 100865208.00000000 255417648.00000000 103138.71093750 8167494.50000000 6450719.50000000 
0.00500    161393472.00000000 100676440.00000000 254938256.00000000 102904.83593750 8150551.50000000 6437385.00000000 
0.00600    161021600.00000000 100446072.00000000 254352112.00000000 102620.32031250 8129873.00000000 6421096.50000000 
0.00700    160584032.00000000 100174480.00000000 253663232.00000000 102285.17187500 8105524.50000000 6401930.50000000 
0.00800    160078704.00000000 99862584.00000000 252870080.00000000 101899.96093750 8077542.00000000 6379864.00000000 
0.00900    159509808.00000000 99510440.00000000 251976464.00000000 101465.42187500 8045926.00000000 6354994.00000000 
0.01000    158876464.00000000 99117944.00000000 250980576.00000000 100981.82031250 8010788.50000000 6327292.50000000 
0.01100    158181648.00000000 98687144.00000000 249884448.00000000 100451.01562500 7972083.00000000 6296856.50000000 
0.01200    157426032.00000000 98217360.00000000 248690928.00000000 99871.43750000  7929990.50000000 6263687.00000000 
0.01300    156605888.00000000 97709120.00000000 247400192.00000000 99247.29687500  7884540.50000000 6227855.50000000 
0.01400    155725328.00000000 97164088.00000000 246015600.00000000 98576.84375000  7835695.00000000 6189388.50000000 
0.01500    154785840.00000000 96582064.00000000 244536176.00000000 97862.75781250  7783636.00000000 6148390.00000000 
0.01600    153790880.00000000 95963536.00000000 242968064.00000000 97104.93750000  7728421.00000000 6104870.50000000 
0.01700    152737664.00000000 95311600.00000000 241311040.00000000 96305.80468750  7670134.50000000 6058934.00000000 
0.01800    151629936.00000000 94624784.00000000 239566400.00000000 95465.89062500  7608785.50000000 6010648.50000000 
0.01900    150468912.00000000 93905048.00000000 237738336.00000000 94586.83593750  7544594.00000000 5960072.50000000 
0.02000    149256160.00000000 93153328.00000000 235828608.00000000 93669.78125000  7477489.00000000 5907216.00000000 
0.02100    147993376.00000000 92370416.00000000 233839360.00000000 92715.86718750  7407724.00000000 5852243.00000000 
0.02200    146682528.00000000 91556736.00000000 231773888.00000000 91726.84375000  7335330.00000000 5795228.50000000 
0.02300    145323744.00000000 90714808.00000000 229633936.00000000 90704.18750000  7260407.50000000 5736200.50000000 
0.02400    143919808.00000000 89844912.00000000 227423536.00000000 89649.69531250  7183050.50000000 5675266.50000000 
0.02500    142473328.00000000 88947392.00000000 225146416.00000000 88564.71875000  7103404.50000000 5612487.50000000 
0.02600    140985952.00000000 88024816.00000000 222801792.00000000 87450.75000000  7021510.00000000 5548007.00000000 
0.02700    139458864.00000000 87077544.00000000 220396608.00000000 86308.55468750  6937577.00000000 5481869.00000000 
0.02800    137893824.00000000 86107024.00000000 217932912.00000000 85141.96875000  6851651.50000000 5414151.00000000 
0.02900    136293296.00000000 85114360.00000000 215411696.00000000 83950.77343750  6763863.50000000 5344990.50000000 
0.03000    134660096.00000000 84101184.00000000 212838192.00000000 82737.35156250  6674326.50000000 5274445.50000000 
0.03100    132994848.00000000 83068824.00000000 210215776.00000000 81503.27343750  6583188.50000000 5202621.50000000 
0.03200    131300360.00000000 82018008.00000000 207546288.00000000 80250.06250000  6490542.00000000 5129607.00000000 
0.03300    129578808.00000000 80949760.00000000 204834080.00000000 78980.14062500  6396484.00000000 5055503.50000000 
0.03400    127831400.00000000 79865616.00000000 202081776.00000000 77694.11718750  6301186.50000000 4980397.50000000 
0.03500    126061464.00000000 78767160.00000000 199293168.00000000 76395.13281250  6204742.00000000 4904387.50000000 
0.03600    124269712.00000000 77655808.00000000 196471296.00000000 75083.28906250  6107263.00000000 4827555.50000000 
0.03700    122460000.00000000 76532936.00000000 193619696.00000000 73761.74218750  6008887.00000000 4750058.50000000 
0.03800    120632760.00000000 75399072.00000000 190742816.00000000 72430.86718750  5909709.00000000 4671862.00000000 
0.03900    118791216.00000000 74255672.00000000 187840256.00000000 71093.34375000  5809876.50000000 4593203.00000000 
0.04000    116936600.00000000 73105392.00000000 184917792.00000000 69749.96875000  5709482.50000000 4514063.50000000 
0.04100    115071904.00000000 71947856.00000000 181979248.00000000 68403.55468750  5608675.50000000 4434598.50000000 
0.04200    113198104.00000000 70785608.00000000 179027168.00000000 67053.97656250  5507556.50000000 4354889.50000000 
0.04300    111318064.00000000 69618480.00000000 176063904.00000000 65704.71093750  5406223.00000000 4275019.50000000 
0.04400    109432752.00000000 68448400.00000000 173094480.00000000 64356.11718750  5304804.50000000 4195055.00000000 
0.04500    107545528.00000000 67276584.00000000 170119008.00000000 63009.82421875  5203380.50000000 4115093.50000000 
0.04600    105656696.00000000 66104196.00000000 167143728.00000000 61667.18750000  5102066.50000000 4035230.00000000 
0.04700    103770032.00000000 64932648.00000000 164169936.00000000 60330.08593750  5001004.50000000 3955539.00000000 
0.04800    101886040.00000000 63762624.00000000 161201312.00000000 58999.39062500  4900227.50000000 3876102.75000000 
0.04900    100006592.00000000 62595864.00000000 158238576.00000000 57676.82812500  4799894.50000000 3796994.75000000 
0.05000    98134048.00000000 61433136.00000000 155287760.00000000 56363.62890625  4700110.50000000 3718294.75000000 
0.05100    96270008.00000000 60275096.00000000 152349392.00000000 55060.70703125  4600924.50000000 3640082.25000000 
0.05200    94415264.00000000 59123564.00000000 149426800.00000000 53769.23046875  4502412.00000000 3562409.50000000 
0.05300    92572632.00000000 57978900.00000000 146521616.00000000 52491.00390625  4404738.50000000 3485357.25000000 
0.05400    90743072.00000000 56842896.00000000 143638176.00000000 51226.30468750  4307887.00000000 3408986.75000000 
0.05500    88928616.00000000 55715608.00000000 140777632.00000000 49976.92187500  4212002.50000000 3333358.75000000 
0.05600    87129432.00000000 54598216.00000000 137940736.00000000 48742.71093750  4117127.75000000 3258535.50000000 
0.05700    85348832.00000000 53491540.00000000 135133744.00000000 47525.47656250  4023364.50000000 3184582.25000000 
0.05800    83586328.00000000 52396704.00000000 132356728.00000000 46326.00781250  3930786.25000000 3111538.50000000 
0.05900    81844040.00000000 51314276.00000000 129609600.00000000 45144.91406250  3839390.25000000 3039446.75000000 
0.06000    80123496.00000000 50244604.00000000 126896304.00000000 43982.76562500  3749306.50000000 2968378.25000000 
0.06100    78425128.00000000 49189776.00000000 124218432.00000000 42840.57421875  3660561.00000000 2898353.25000000 
0.06200    76749552.00000000 48148840.00000000 121577968.00000000 41718.64062500  3573208.00000000 2829444.25000000 
0.06300    75099408.00000000 47123372.00000000 118975520.00000000 40617.66015625  3487298.25000000 2761656.00000000 
0.06400    73474392.00000000 46113152.00000000 116412896.00000000 39537.94921875  3402859.00000000 2695026.25000000 
0.06500    71876168.00000000 45119872.00000000 113892512.00000000 38480.44921875  3319955.75000000 2629611.75000000 
0.06600    70304976.00000000 44143044.00000000 111414704.00000000 37445.13281250  3238621.00000000 2565435.25000000 
0.06700    68760968.00000000 43183340.00000000 108980944.00000000 36432.22265625  3158871.75000000 2502485.75000000 
0.06800    67246192.00000000 42241804.00000000 106591872.00000000 35442.22265625  3080732.75000000 2440817.75000000 
0.06900    65760328.00000000 41318192.00000000 104249752.00000000 34475.04687500  3004268.25000000 2380444.75000000 
0.07000    64304348.00000000 40413236.00000000 101952944.00000000 33531.30078125  2929433.75000000 2321387.00000000 
0.07100    62878484.00000000 39526960.00000000 99704344.00000000 32611.01757812  2856310.75000000 2263662.50000000 
0.07200    61483068.00000000 38659076.00000000 97503512.00000000 31713.78906250  2784848.00000000 2207256.00000000 
0.07300    60119136.00000000 37811012.00000000 95352232.00000000 30840.14843750  2715123.25000000 2152209.75000000 
0.07400    58785932.00000000 36981936.00000000 93249680.00000000 29989.84375000  2647087.25000000 2098479.50000000 
0.07500    57483880.00000000 36172468.00000000 91196488.00000000 29162.89843750  2580762.00000000 2046117.87500000 
0.07600    56213468.00000000 35382680.00000000 89193008.00000000 28358.81054688  2516164.75000000 1995102.87500000 
0.07700    54974960.00000000 34612632.00000000 87239800.00000000 27578.05078125  2453250.00000000 1945436.37500000 
0.07800    53768172.00000000 33862116.00000000 85336288.00000000 26819.71093750  2392044.25000000 1897095.50000000 
0.07900    52592564.00000000 33131506.00000000 83482200.00000000 26083.96484375  2332525.75000000 1850076.87500000 
0.08000    51448968.00000000 32420154.00000000 81678528.00000000 25370.60546875  2274678.50000000 1804397.75000000 
0.08100    50336792.00000000 31728502.00000000 79924056.00000000 24679.20703125  2218490.25000000 1760022.75000000 
0.08200    49255732.00000000 31056350.00000000 78218864.00000000 24009.05859375  2163935.00000000 1716925.50000000 
0.08300    48205484.00000000 30403296.00000000 76562944.00000000 23360.28515625  2110991.75000000 1675122.37500000 
0.08400    47185916.00000000 29769494.00000000 74955240.00000000 22732.39257812  2059659.75000000 1634558.62500000 
0.08500    46196956.00000000 29154656.00000000 73395176.00000000 22124.63476562  2009892.37500000 1595241.50000000 
0.08600    45237960.00000000 28558496.00000000 71882672.00000000 21536.72851562  1961651.37500000 1557137.00000000 
0.08700    44308892.00000000 27980772.00000000 70417304.00000000 20968.54101562  1914942.25000000 1520223.00000000 
0.08800    43408176.00000000 27421072.00000000 68997248.00000000 20419.08593750  1869690.50000000 1484469.75000000 
0.08900    42536696.00000000 26879336.00000000 67623256.00000000 19888.06250000  1825904.00000000 1449866.50000000 
0.09000    41693096.00000000 26355234.00000000 66293204.00000000 19375.04687500  1783519.75000000 1416381.87500000 
0.09100    40877292.00000000 25848084.00000000 65006236.00000000 18879.28515625  1742515.75000000 1383972.50000000 
0.09200    40088056.00000000 25357872.00000000 63762272.00000000 18400.50585938  1702841.75000000 1352621.62500000 
0.09300    39325464.00000000 24884128.00000000 62559880.00000000 17937.82226562  1664478.62500000 1322306.62500000 
0.09400    38588352.00000000 24426272.00000000 61398080.00000000 17490.96484375  1627386.12500000 1292976.37500000 
0.09500    37876720.00000000 23984356.00000000 60275632.00000000 17059.18945312  1591496.50000000 1264618.62500000 
0.09600    37189152.00000000 23557346.00000000 59192348.00000000 16641.98242188  1556805.75000000 1237190.37500000 
0.09700    36525188.00000000 23145124.00000000 58145816.00000000 16238.88574219  1523257.00000000 1210669.62500000 
0.09800    35884600.00000000 22747338.00000000 57136160.00000000 15849.35839844  1490802.37500000 1185016.87500000 
0.09900    35265984.00000000 22363350.00000000 56161028.00000000 15472.69531250  1459416.75000000 1160202.00000000 
0.10000    34668680.00000000 21992762.00000000 55220308.00000000 15108.31054688  1429044.75000000 1136182.50000000 
0.10100    34092048.00000000 21635108.00000000 54311880.00000000 14755.79394531  1399652.50000000 1112948.12500000 
0.10200    33535456.00000000 21289918.00000000 53435400.00000000 14414.64941406  1371199.50000000 1090452.00000000 
0.10300    32998036.00000000 20956792.00000000 52589028.00000000 14084.27929688  1343637.50000000 1068654.75000000 
0.10400    32479036.00000000 20635132.00000000 51771988.00000000 13764.02050781  1316935.75000000 1047542.68750000 
0.10500    31978054.00000000 20324584.00000000 50982724.00000000 13453.63378906  1291053.75000000 1027073.62500000 
0.10600    31493816.00000000 20024498.00000000 50220168.00000000 13152.52148438  1265942.37500000 1007214.68750000 
0.10700    31025688.00000000 19734592.00000000 49483200.00000000 12860.24609375  1241566.50000000 987939.87500000 
0.10800    30572976.00000000 19454172.00000000 48770436.00000000 12576.09960938  1217906.87500000 969216.93750000 
0.10900    30134986.00000000 19182976.00000000 48081008.00000000 12299.92382812  1194902.62500000 951021.81250000 
0.11000    29710844.00000000 18920436.00000000 47413552.00000000 12031.22656250  1172534.37500000 933324.18750000 
0.11100    29299928.00000000 18666162.00000000 46766812.00000000 11769.58105469  1150752.50000000 916096.00000000 
0.11200    28901418.00000000 18419590.00000000 46140104.00000000 11514.58300781  1129531.12500000 899298.37500000 
0.11300    28514616.00000000 18180474.00000000 45531568.00000000 11265.93164062  1108840.25000000 882920.62500000 
0.11400    28139080.00000000 17948266.00000000 44940848.00000000 11023.08886719  1088637.25000000 866944.37500000 
0.11500    27773834.00000000 17722524.00000000 44366216.00000000 10785.90039062  1068909.75000000 851328.18750000 
0.11600    27418424.00000000 17502790.00000000 43807496.00000000 10553.97265625  1049620.00000000 836051.37500000 
0.11700    27072254.00000000 17288732.00000000 43262836.00000000 10327.01953125  1030729.62500000 821102.31250000 
0.11800    26734276.00000000 17080130.00000000 42731412.00000000 10104.67382812  1012223.00000000 806448.31250000 
0.11900    26404406.00000000 16876104.00000000 42212856.00000000 9886.75683594   994077.75000000 792077.93750000 
0.12000    26081926.00000000 16676821.00000000 41705316.00000000 9673.03320312   976257.06250000 777962.87500000 
0.12100    25766214.00000000 16481698.00000000 41208972.00000000 9463.31054688   958758.62500000 764098.56250000 
0.12200    25456624.00000000 16290424.00000000 40722332.00000000 9257.20898438   941541.18750000 750456.37500000 
0.12300    25152778.00000000 16102728.00000000 40244568.00000000 9054.78320312   924596.25000000 737033.18750000 
0.12400    24854260.00000000 15918190.00000000 39775040.00000000 8855.69238281   907902.62500000 723800.37500000 
0.12500    24560560.00000000 15736611.00000000 39312652.00000000 8659.79394531   891435.31250000 710751.06250000 
0.12600    24271188.00000000 15557755.00000000 38857828.00000000 8467.07714844   875198.31250000 697874.50000000 
0.12700    23985714.00000000 15381185.00000000 38408676.00000000 8277.20410156   859157.62500000 685153.37500000 
0.12800    23703698.00000000 15206743.00000000 37964976.00000000 8090.24658203   843313.68750000 672583.62500000 
0.12900    23424994.00000000 15034224.00000000 37526404.00000000 7906.05371094   827642.18750000 660153.12500000 
0.13000    23149164.00000000 14863506.00000000 37092268.00000000 7724.48242188   812143.06250000 647857.12500000 
0.13100    22875660.00000000 14694071.00000000 36661560.00000000 7545.56640625   796806.68750000 635678.06250000 
0.13200    22604666.00000000 14526030.00000000 36234672.00000000 7369.20312500   781617.68750000 623616.87500000 
0.13300    22335446.00000000 14359218.00000000 35811016.00000000 7195.40136719   766570.75000000 611667.81250000 
0.13400    22068000.00000000 14193153.00000000 35389124.00000000 7024.01855469   751663.25000000 599821.56250000 
0.13500    21801976.00000000 14027997.00000000 34969692.00000000 6855.14550781   736886.81250000 588083.25000000 
0.13600    21537040.00000000 13863551.00000000 34552232.00000000 6688.70458984   722244.62500000 576445.81250000 
0.13700    21273528.00000000 13699646.00000000 34136436.00000000 6524.71337891   707727.37500000 564898.87500000 
0.13800    21010826.00000000 13536167.00000000 33721820.00000000 6363.14843750   693333.75000000 553449.00000000 
0.13900    20748816.00000000 13373156.00000000 33308454.00000000 6204.09033203   679060.50000000 542090.56250000 
0.14000    20487558.00000000 13210370.00000000 32895966.00000000 6047.46923828   664912.56250000 530830.25000000 
0.14100    20226912.00000000 13047813.00000000 32484196.00000000 5893.40087891   650887.93750000 519659.93750000 
0.14200    19966808.00000000 12885416.00000000 32073034.00000000 5741.78710938   636978.25000000 508584.87500000 
0.14300    19707002.00000000 12723270.00000000 31662382.00000000 5592.77734375   623203.37500000 497604.50000000 
0.14400    19447690.00000000 12561065.00000000 31252046.00000000 5446.28320312   609545.43750000 486722.71875000 
0.14500    19188796.00000000 12399084.00000000 30842304.00000000 5302.46728516   596019.12500000 475937.84375000 
0.14600    18930224.00000000 12237038.00000000 30432878.00000000 5161.30468750   582632.12500000 465255.53125000 
0.14700    18671964.00000000 12075212.00000000 30023778.00000000 5022.83935547   569378.81250000 454680.28125000 
0.14800    18413856.00000000 11913375.00000000 29615148.00000000 4887.07910156   556259.93750000 444208.50000000 
0.14900    18156422.00000000 11751649.00000000 29206910.00000000 4754.05761719   543285.06250000 433846.34375000 
0.15000    17899270.00000000 11589972.00000000 28799130.00000000 4623.85058594   530460.93750000 423598.81250000 
0.15100    17642732.00000000 11428491.00000000 28391960.00000000 4496.47802734   517781.50000000 413467.53125000 
0.15200    17386660.00000000 11267196.00000000 27985246.00000000 4371.97119141   505266.84375000 403459.21875000 
0.15300    17131280.00000000 11106209.00000000 27579588.00000000 4250.40039062   492911.12500000 393575.96875000 
0.15400    16876512.00000000 10945381.00000000 27174684.00000000 4131.68554688   480720.28125000 383819.81250000 
0.15500    16622500.00000000 10784883.00000000 26770806.00000000 4015.93676758   468697.40625000 374195.59375000 
0.15600    16369316.00000000 10624852.00000000 26368066.00000000 3903.12719727   456850.25000000 364705.78125000 
0.15700    16117263.00000000 10465228.00000000 25966918.00000000 3793.32470703   445187.31250000 355361.71875000 
0.15800    15866101.00000000 10306064.00000000 25566924.00000000 3686.45776367   433703.34375000 346156.46875000 
0.15900    15616201.00000000 10147531.00000000 25168614.00000000 3582.63452148   422412.09375000 337098.87500000 
0.16000    15367498.00000000 9989617.00000000 24772206.00000000 3481.74682617   411311.31250000 328190.59375000 
0.16100    15120308.00000000 9832557.00000000 24377974.00000000 3383.93920898   400410.56250000 319441.40625000 
0.16200    14874517.00000000 9676182.00000000 23985926.00000000 3289.07055664   389705.87500000 310843.37500000 
0.16300    14630389.00000000 9520742.00000000 23596044.00000000 3197.16503906   379209.34375000 302407.68750000 
0.16400    14387956.00000000 9366182.00000000 23208860.00000000 3108.26391602   368918.43750000 294132.81250000 
0.16500    14147456.00000000 9212716.00000000 22824510.00000000 3022.26000977   358832.78125000 286024.71875000 
0.16600    13908920.00000000 9060291.00000000 22443140.00000000 2939.18286133   348963.43750000 278081.31250000 
0.16700    13672372.00000000 8909061.00000000 22064840.00000000 2858.95654297   339309.25000000 270307.62500000 
0.16800    13438032.00000000 8759153.00000000 21689606.00000000 2781.56494141   329867.31250000 262701.18750000 
0.16900    13206085.00000000 8610485.00000000 21318278.00000000 2707.00415039   320647.46875000 255271.76562500 
0.17000    12976493.00000000 8463229.00000000 20950396.00000000 2635.18530273   311644.59375000 248012.50000000 
