# SAXS profile: number of points = 501, q_min = 0, q_max = 0.5, delta_q = 0.001
#    q    intensity 
0.00000    162236112.00000000 101201912.00000000 256271664.00000000 100649.59375000 8081884.50000000 6383096.50000000 
0.00100    162207248.00000000 101183112.00000000 256223008.00000000 100625.05468750 8080145.50000000 6381701.50000000 
0.00200    162116912.00000000 101126088.00000000 256079360.00000000 100551.58593750 8074866.00000000 6377518.00000000 
0.00300    161964816.00000000 101031384.00000000 255838064.00000000 100428.64062500 8066067.00000000 6370666.00000000 
0.00400    161750400.00000000 100899608.00000000 255501968.00000000 100257.71093750 8053782.00000000 6360992.50000000 
0.00500    161473344.00000000 100730264.00000000 255068944.00000000 100037.71875000 8038016.00000000 6348643.00000000 
0.00600    161135968.00000000 100523400.00000000 254541264.00000000 99769.71093750  8018802.00000000 6333519.00000000 
0.00700    160738448.00000000 100279368.00000000 253918400.00000000 99453.89062500  7996134.50000000 6315750.50000000 
0.00800    160281264.00000000 99999200.00000000 253202576.00000000 99091.14062500  7970051.50000000 6295289.00000000 
0.00900    159763296.00000000 99682696.00000000 252395824.00000000 98681.18750000  7940644.50000000 6272185.50000000 
0.01000    159189104.00000000 99330360.00000000 251495312.00000000 98226.42968750  7907896.50000000 6246502.00000000 
0.01100    158557824.00000000 98942928.00000000 250505168.00000000 97724.56250000  7871882.50000000 6218216.00000000 
0.01200    157869520.00000000 98520024.00000000 249425136.00000000 97179.41406250  7832611.00000000 6187404.00000000 
0.01300    157125360.00000000 98062848.00000000 248258240.00000000 96589.83593750  7790192.50000000 6154095.50000000 
0.01400    156325264.00000000 97571120.00000000 247002768.00000000 95957.31250000  7744646.50000000 6118362.00000000 
0.01500    155470064.00000000 97046560.00000000 245664576.00000000 95283.09375000  7696081.00000000 6080227.50000000 
0.01600    154563056.00000000 96488912.00000000 244243344.00000000 94567.50000000  7644516.50000000 6039740.50000000 
0.01700    153603456.00000000 95899520.00000000 242739232.00000000 93812.85156250  7590035.00000000 5996977.00000000 
0.01800    152594976.00000000 95279448.00000000 241155888.00000000 93018.93750000  7532716.50000000 5952000.50000000 
0.01900    151534560.00000000 94629016.00000000 239495600.00000000 92187.71875000  7472620.00000000 5904808.00000000 
0.02000    150427120.00000000 93948192.00000000 237758976.00000000 91319.89843750  7409901.00000000 5855553.50000000 
0.02100    149272128.00000000 93238488.00000000 235949360.00000000 90417.28125000  7344562.50000000 5804216.50000000 
0.02200    148073680.00000000 92501712.00000000 234067504.00000000 89480.91406250  7276701.50000000 5750907.50000000 
0.02300    146828352.00000000 91736640.00000000 232116736.00000000 88512.00000000  7206425.50000000 5695717.50000000 
0.02400    145542080.00000000 90946048.00000000 230099328.00000000 87511.59375000  7133814.00000000 5638712.00000000 
0.02500    144215408.00000000 90130024.00000000 228018512.00000000 86482.66406250  7058978.00000000 5579967.00000000 
0.02600    142849616.00000000 89289656.00000000 225875520.00000000 85425.39062500  6982028.00000000 5519484.00000000 
0.02700    141444880.00000000 88426040.00000000 223671232.00000000 84340.58593750  6903055.00000000 5457435.50000000 
0.02800    140003808.00000000 87540120.00000000 221411536.00000000 83231.33593750  6822109.00000000 5393874.00000000 
0.02900    138530048.00000000 86632688.00000000 219098288.00000000 82098.46875000  6739368.50000000 5328831.50000000 
0.03000    137021840.00000000 85704120.00000000 216732816.00000000 80943.44531250  6654877.50000000 5262468.50000000 
0.03100    135483392.00000000 84757248.00000000 214318064.00000000 79768.21875000  6568815.50000000 5194798.00000000 
0.03200    133914864.00000000 83791272.00000000 211857600.00000000 78573.82812500  6481153.00000000 5125971.00000000 
0.03300    132320016.00000000 82809320.00000000 209352720.00000000 77361.74218750  6392164.50000000 5055999.50000000 
0.03400    130699192.00000000 81811240.00000000 206808256.00000000 76133.94531250  6301929.00000000 4984980.50000000 
0.03500    129053712.00000000 80797496.00000000 204225232.00000000 74892.11718750  6210371.00000000 4913054.50000000 
0.03600    127386184.00000000 79769512.00000000 201608080.00000000 73637.87500000  6117780.50000000 4840258.00000000 
0.03700    125698624.00000000 78729088.00000000 198958400.00000000 72372.52343750  6024268.50000000 4766720.00000000 
0.03800    123992336.00000000 77677648.00000000 196278384.00000000 71097.49218750  5929811.00000000 4692439.00000000 
0.03900    122269576.00000000 76614768.00000000 193572304.00000000 69814.00000000  5834657.00000000 4617575.00000000 
0.04000    120531008.00000000 75542240.00000000 190840448.00000000 68525.03906250  5738798.50000000 4542207.50000000 
0.04100    118780648.00000000 74462384.00000000 188089904.00000000 67230.65625000  5642428.00000000 4466364.50000000 
0.04200    117017664.00000000 73374600.00000000 185321664.00000000 65933.42968750  5545568.50000000 4390213.00000000 
0.04300    115244888.00000000 72280520.00000000 182535104.00000000 64633.78125000  5448474.00000000 4313767.50000000 
0.04400    113464224.00000000 71181112.00000000 179736256.00000000 63333.75390625  5351066.50000000 4237143.50000000 
0.04500    111677808.00000000 70077488.00000000 176928080.00000000 62034.84375000  5253590.00000000 4160336.50000000 
0.04600    109886920.00000000 68970328.00000000 174110544.00000000 60738.28515625  5155984.00000000 4083531.50000000 
0.04700    108092872.00000000 67861112.00000000 171290272.00000000 59445.13671875  5058473.00000000 4006750.50000000 
0.04800    106297240.00000000 66751120.00000000 168466656.00000000 58157.23437500  4961099.50000000 3930089.00000000 
0.04900    104502640.00000000 65641144.00000000 165643648.00000000 56875.61328125  4864014.00000000 3853615.25000000 
0.05000    102709432.00000000 64531280.00000000 162823696.00000000 55601.41796875  4767234.50000000 3777388.00000000 
0.05100    100919992.00000000 63424056.00000000 160006128.00000000 54336.03125000  4670912.00000000 3701497.75000000 
0.05200    99136000.00000000 62318996.00000000 157198288.00000000 53080.72656250  4575045.00000000 3625954.00000000 
0.05300    97358136.00000000 61218044.00000000 154400496.00000000 51835.79296875  4479822.50000000 3550906.25000000 
0.05400    95588184.00000000 60121172.00000000 151613296.00000000 50603.30468750  4385255.00000000 3476361.00000000 
0.05500    93827536.00000000 59029700.00000000 148840464.00000000 49384.30859375  4291430.00000000 3402384.00000000 
0.05600    92077472.00000000 57944524.00000000 146083664.00000000 48178.57812500  4198396.50000000 3329045.75000000 
0.05700    90339048.00000000 56866220.00000000 143346032.00000000 46988.25781250  4106305.50000000 3256398.00000000 
0.05800    88614528.00000000 55796016.00000000 140629088.00000000 45813.80078125  4015158.75000000 3184496.25000000 
0.05900    86903640.00000000 54733980.00000000 137931984.00000000 44655.81640625  3925015.50000000 3113374.50000000 
0.06000    85208728.00000000 53681080.00000000 135261424.00000000 43514.93359375  3835955.25000000 3043104.25000000 
0.06100    83530088.00000000 52638544.00000000 132615520.00000000 42392.40234375  3748036.25000000 2973704.00000000 
0.06200    81869592.00000000 51606184.00000000 129997008.00000000 41288.36718750  3661319.25000000 2905247.00000000 
0.06300    80227568.00000000 50585280.00000000 127407992.00000000 40204.05859375  3575845.00000000 2837765.50000000 
0.06400    78605864.00000000 49576168.00000000 124847512.00000000 39139.28906250  3491658.25000000 2771272.50000000 
0.06500    77004264.00000000 48579248.00000000 122320888.00000000 38095.13671875  3408807.00000000 2705809.25000000 
0.06600    75424064.00000000 47595092.00000000 119826992.00000000 37071.85156250  3327324.25000000 2641444.25000000 
0.06700    73865640.00000000 46624284.00000000 117366560.00000000 36069.46093750  3247241.75000000 2578168.00000000 
0.06800    72329864.00000000 45667480.00000000 114942432.00000000 35088.76953125  3168616.75000000 2516010.75000000 
0.06900    70818176.00000000 44725092.00000000 112554912.00000000 34130.04687500  3091475.50000000 2455024.75000000 
0.07000    69330792.00000000 43797080.00000000 110205200.00000000 33193.26953125  3015827.00000000 2395175.50000000 
0.07100    67868184.00000000 42884244.00000000 107894168.00000000 32278.56445312  2941675.25000000 2336540.00000000 
0.07200    66430552.00000000 41986568.00000000 105622272.00000000 31386.47851562  2869080.50000000 2279104.00000000 
0.07300    65018956.00000000 41104668.00000000 103390432.00000000 30516.82812500  2798040.50000000 2222882.50000000 
0.07400    63633276.00000000 40238396.00000000 101199360.00000000 29669.53906250  2728574.25000000 2167905.25000000 
0.07500    62274068.00000000 39388592.00000000 99049632.00000000 28845.00000000  2660671.50000000 2114145.00000000 
0.07600    60941616.00000000 38555148.00000000 96941688.00000000 28042.86718750  2594378.25000000 2061627.12500000 
0.07700    59636492.00000000 37738088.00000000 94876576.00000000 27263.20312500  2529679.00000000 2010375.25000000 
0.07800    58358268.00000000 36937724.00000000 92853760.00000000 26505.80664062  2466557.75000000 1960350.12500000 
0.07900    57107500.00000000 36153892.00000000 90873336.00000000 25770.55664062  2405032.75000000 1911586.62500000 
0.08000    55884288.00000000 35387284.00000000 88936368.00000000 25056.97070312  2345073.50000000 1864070.75000000 
0.08100    54688560.00000000 34637236.00000000 87042088.00000000 24365.24804688  2286713.25000000 1817780.00000000 
0.08200    53520792.00000000 33904244.00000000 85191848.00000000 23694.95898438  2229902.75000000 1772718.62500000 
0.08300    52379740.00000000 33188112.00000000 83383856.00000000 23045.60742188  2174641.50000000 1728876.12500000 
0.08400    51266880.00000000 32488686.00000000 81619112.00000000 22417.15429688  2120922.50000000 1686244.62500000 
0.08500    50181064.00000000 31806286.00000000 79897864.00000000 21809.24804688  2068737.62500000 1644819.62500000 
0.08600    49122540.00000000 31140808.00000000 78219384.00000000 21221.19335938  2018049.25000000 1604584.00000000 
0.08700    48090820.00000000 30491888.00000000 76582312.00000000 20652.93164062  1968857.37500000 1565498.37500000 
0.08800    47086008.00000000 29859312.00000000 74987912.00000000 20103.93554688  1921103.75000000 1527570.12500000 
0.08900    46107332.00000000 29243398.00000000 73434864.00000000 19573.51171875  1874809.00000000 1490779.50000000 
0.09000    45155568.00000000 28643384.00000000 71923776.00000000 19061.59765625  1829910.37500000 1455077.12500000 
0.09100    44228892.00000000 28059588.00000000 70452464.00000000 18567.32226562  1786389.00000000 1420489.75000000 
0.09200    43328096.00000000 27491592.00000000 69021528.00000000 18090.46875000  1744218.62500000 1386951.37500000 
0.09300    42452412.00000000 26939182.00000000 67630080.00000000 17630.47265625  1703373.87500000 1354457.87500000 
0.09400    41601436.00000000 26402134.00000000 66278112.00000000 17186.63281250  1663819.87500000 1322986.75000000 
0.09500    40774676.00000000 25880124.00000000 64963956.00000000 16758.79101562  1625517.12500000 1292504.50000000 
0.09600    39971552.00000000 25372938.00000000 63687672.00000000 16345.93164062  1588448.00000000 1262991.00000000 
0.09700    39192164.00000000 24880284.00000000 62448116.00000000 15947.96679688  1552564.75000000 1234424.12500000 
0.09800    38435000.00000000 24401884.00000000 61244612.00000000 15564.28613281  1517823.62500000 1206755.37500000 
0.09900    37700364.00000000 23937396.00000000 60076140.00000000 15194.03515625  1484219.62500000 1179990.75000000 
0.10000    36987612.00000000 23486608.00000000 58942304.00000000 14836.95019531  1451694.62500000 1154073.87500000 
0.10100    36295792.00000000 23048858.00000000 57841752.00000000 14492.40625000  1420197.37500000 1128984.37500000 
0.10200    35624804.00000000 22624264.00000000 56773960.00000000 14159.89746094  1389726.87500000 1104700.62500000 
0.10300    34973748.00000000 22212208.00000000 55738112.00000000 13838.76074219  1360223.75000000 1081181.87500000 
0.10400    34342160.00000000 21812468.00000000 54733024.00000000 13528.79101562  1331654.12500000 1058404.37500000 
0.10500    33729776.00000000 21424726.00000000 53758016.00000000 13229.21679688  1303995.75000000 1036358.31250000 
0.10600    33135190.00000000 21048182.00000000 52811952.00000000 12939.37304688  1277197.12500000 1014978.50000000 
0.10700    32558674.00000000 20683124.00000000 51894244.00000000 12659.15039062  1251222.37500000 994266.00000000 
0.10800    31999432.00000000 20328832.00000000 51003740.00000000 12387.84472656  1226035.37500000 974182.87500000 
0.10900    31456420.00000000 19984986.00000000 50139336.00000000 12124.98339844  1201606.50000000 954702.43750000 
0.11000    30929186.00000000 19651114.00000000 49300116.00000000 11870.13574219  1177908.25000000 935795.50000000 
0.11100    30417444.00000000 19327000.00000000 48485704.00000000 11622.87695312  1154889.00000000 917437.87500000 
0.11200    29920438.00000000 19012476.00000000 47694472.00000000 11382.74609375  1132526.00000000 899600.31250000 
0.11300    29437426.00000000 18706632.00000000 46925788.00000000 11149.29589844  1110780.25000000 882259.81250000 
0.11400    28968350.00000000 18409578.00000000 46179120.00000000 10922.22949219  1089624.87500000 865385.25000000 
0.11500    28511890.00000000 18120912.00000000 45452808.00000000 10700.99511719  1069038.75000000 848956.62500000 
0.11600    28067960.00000000 17840150.00000000 44746564.00000000 10485.26269531  1048965.25000000 832954.06250000 
0.11700    27635770.00000000 17566796.00000000 44059272.00000000 10274.87207031  1029397.50000000 817350.00000000 
0.11800    27215058.00000000 17301000.00000000 43390164.00000000 10069.17773438  1010298.56250000 802123.93750000 
0.11900    26804862.00000000 17041904.00000000 42738192.00000000 9868.03417969   991639.37500000 787243.12500000 
0.12000    26405210.00000000 16789280.00000000 42102688.00000000 9671.11621094   973391.75000000 772698.68750000 
0.12100    26015300.00000000 16543314.00000000 41483020.00000000 9478.22558594   955545.68750000 758477.87500000 
0.12200    25634498.00000000 16303101.00000000 40877748.00000000 9288.91699219   938062.06250000 744545.56250000 
0.12300    25262308.00000000 16068634.00000000 40286932.00000000 9103.14453125   920922.06250000 730885.87500000 
0.12400    24898496.00000000 15839334.00000000 39709012.00000000 8920.50976562   904102.93750000 717493.56250000 
0.12500    24542590.00000000 15615228.00000000 39144184.00000000 8740.79492188   887581.75000000 704334.25000000 
0.12600    24193954.00000000 15395973.00000000 38591016.00000000 8564.03613281   871346.25000000 691411.12500000 
0.12700    23852428.00000000 15181283.00000000 38049216.00000000 8389.66992188   855375.12500000 678695.75000000 
0.12800    23517458.00000000 14970757.00000000 37517768.00000000 8217.88671875   839647.87500000 666174.31250000 
0.12900    23188530.00000000 14764328.00000000 36996784.00000000 8048.35986328   824149.50000000 653840.93750000 
0.13000    22865488.00000000 14561746.00000000 36484516.00000000 7881.03076172   808867.81250000 641684.12500000 
0.13100    22547848.00000000 14362631.00000000 35981652.00000000 7715.66796875   793781.56250000 629682.25000000 
0.13200    22235266.00000000 14166883.00000000 35487132.00000000 7552.29443359   778887.50000000 617840.43750000 
0.13300    21927688.00000000 13974410.00000000 35000092.00000000 7390.82958984   764168.87500000 606140.68750000 
0.13400    21624238.00000000 13784717.00000000 34520052.00000000 7231.08251953   749615.43750000 594570.31250000 
0.13500    21325278.00000000 13597796.00000000 34047212.00000000 7073.05957031   735219.75000000 583125.87500000 
0.13600    21030042.00000000 13413497.00000000 33580380.00000000 6916.69384766   720967.87500000 571802.50000000 
0.13700    20738590.00000000 13231704.00000000 33119918.00000000 6761.99316406   706860.18750000 560595.43750000 
0.13800    20450662.00000000 13052071.00000000 32664722.00000000 6608.87402344   692884.87500000 549488.31250000 
0.13900    20165698.00000000 12874590.00000000 32214952.00000000 6457.33691406   679039.87500000 538493.68750000 
0.14000    19884108.00000000 12699187.00000000 31770124.00000000 6307.39746094   665312.93750000 527593.56250000 
0.14100    19605192.00000000 12525508.00000000 31330006.00000000 6159.09033203   651708.93750000 516785.15625000 
0.14200    19329054.00000000 12353680.00000000 30893912.00000000 6012.28955078   638219.56250000 506071.62500000 
0.14300    19055266.00000000 12183427.00000000 30462080.00000000 5867.17236328   624843.93750000 495451.65625000 
0.14400    18783904.00000000 12014724.00000000 30033918.00000000 5723.65087891   611580.75000000 484917.84375000 
0.14500    18514760.00000000 11847533.00000000 29609550.00000000 5581.80810547   598423.68750000 474473.87500000 
0.14600    18247868.00000000 11681727.00000000 29188466.00000000 5441.65527344   585383.62500000 464118.28125000 
0.14700    17983142.00000000 11517171.00000000 28770902.00000000 5303.22558594   572456.62500000 453851.40625000 
0.14800    17720146.00000000 11353884.00000000 28356436.00000000 5166.63964844   559632.12500000 443670.90625000 
0.14900    17459108.00000000 11191847.00000000 27944812.00000000 5031.84033203   546923.68750000 433583.56250000 
0.15000    17199940.00000000 11030920.00000000 27536134.00000000 4898.90087891   534331.87500000 423581.65625000 
0.15100    16942480.00000000 10871124.00000000 27130278.00000000 4767.89746094   521858.25000000 413672.50000000 
0.15200    16686943.00000000 10712377.00000000 26727396.00000000 4638.96728516   509501.93750000 403862.75000000 
0.15300    16433143.00000000 10554800.00000000 26327148.00000000 4511.98046875   497271.43750000 394146.50000000 
0.15400    16180905.00000000 10398214.00000000 25929432.00000000 4387.12646484   485160.78125000 384528.96875000 
0.15500    15930383.00000000 10242546.00000000 25534340.00000000 4264.39453125   473184.53125000 375010.50000000 
0.15600    15681490.00000000 10087974.00000000 25141962.00000000 4143.82910156   461336.78125000 365597.34375000 
0.15700    15434522.00000000 9934450.00000000 24752250.00000000 4025.58691406   449629.15625000 356294.56250000 
0.15800    15189017.00000000 9781916.00000000 24365082.00000000 3909.56835938   438059.50000000 347097.68750000 
0.15900    14945368.00000000 9630394.00000000 23980670.00000000 3795.98388672   426635.84375000 338014.75000000 
0.16000    14703526.00000000 9479933.00000000 23599136.00000000 3684.74780273   415358.00000000 329051.75000000 
0.16100    14463551.00000000 9330510.00000000 23220186.00000000 3575.97729492   404239.50000000 320206.09375000 
0.16200    14225340.00000000 9182130.00000000 22844088.00000000 3469.66918945   393275.53125000 311483.68750000 
0.16300    13989040.00000000 9034922.00000000 22470974.00000000 3365.86132812   382471.12500000 302889.68750000 
0.16400    13754780.00000000 8888824.00000000 22100652.00000000 3264.63354492   371833.62500000 294422.78125000 
0.16500    13522332.00000000 8743814.00000000 21733568.00000000 3165.96289062   361368.09375000 286093.37500000 
0.16600    13291998.00000000 8600038.00000000 21369362.00000000 3069.90185547   351074.37500000 277897.40625000 
0.16700    13063759.00000000 8457378.00000000 21008416.00000000 2976.44726562   340956.03125000 269839.15625000 
0.16800    12837612.00000000 8316073.00000000 20650724.00000000 2885.62158203   331016.93750000 261921.98437500 
0.16900    12613842.00000000 8175997.50000000 20296502.00000000 2797.47998047   321266.93750000 254150.87500000 
0.17000    12392202.00000000 8037186.50000000 19945582.00000000 2712.00878906   311701.50000000 246527.42187500 
