# SAXS profile: number of points = 501, q_min = 0, q_max = 0.5, delta_q = 0.001
#    q    intensity 
0.00000    162237088.00000000 101201872.00000000 256271552.00000000 100610.61718750 8080315.50000000 6381824.00000000 
0.00100    162212416.00000000 101185872.00000000 256230400.00000000 100589.66406250 8078842.00000000 6380667.50000000 
0.00200    162135088.00000000 101137344.00000000 256108272.00000000 100526.88281250 8074351.50000000 6377145.00000000 
0.00300    162006496.00000000 101057472.00000000 255905040.00000000 100422.64843750 8066906.00000000 6371279.50000000 
0.00400    161825440.00000000 100945552.00000000 255619040.00000000 100276.85156250 8056493.50000000 6363107.00000000 
0.00500    161592400.00000000 100801760.00000000 255252176.00000000 100089.35156250 8043145.50000000 6352554.00000000 
0.00600    161307392.00000000 100626128.00000000 254805904.00000000 99861.06250000  8026800.50000000 6339728.00000000 
0.00700    160970848.00000000 100418160.00000000 254277536.00000000 99591.52343750  8007597.00000000 6324596.00000000 
0.00800    160584512.00000000 100179504.00000000 253670816.00000000 99281.85937500  7985430.50000000 6307166.00000000 
0.00900    160148304.00000000 99909768.00000000 252983712.00000000 98931.80468750  7960404.00000000 6287501.50000000 
0.01000    159658560.00000000 99609504.00000000 252219424.00000000 98542.22656250  7932525.00000000 6265596.00000000 
0.01100    159122000.00000000 99278944.00000000 251377040.00000000 98112.94531250  7901858.50000000 6241419.50000000 
0.01200    158536784.00000000 98917832.00000000 250456112.00000000 97645.35156250  7868370.50000000 6215111.50000000 
0.01300    157903840.00000000 98526856.00000000 249461344.00000000 97139.64062500  7832137.50000000 6186594.50000000 
0.01400    157223168.00000000 98106616.00000000 248392192.00000000 96596.17187500  7793213.00000000 6155995.00000000 
0.01500    156494576.00000000 97656592.00000000 247247104.00000000 96015.81250000  7751601.50000000 6123267.50000000 
0.01600    155720608.00000000 97178648.00000000 246027824.00000000 95398.95312500  7707388.00000000 6088466.00000000 
0.01700    154899760.00000000 96672304.00000000 244739728.00000000 94747.47656250  7660616.00000000 6051659.00000000 
0.01800    154033280.00000000 96137800.00000000 243380096.00000000 94060.82031250  7611302.00000000 6012887.00000000 
0.01900    153123888.00000000 95576368.00000000 241951808.00000000 93340.47656250  7559520.50000000 5972122.00000000 
0.02000    152171904.00000000 94988680.00000000 240454256.00000000 92586.91406250  7505320.00000000 5929475.50000000 
0.02100    151179024.00000000 94374968.00000000 238892112.00000000 91801.32812500  7448766.50000000 5885012.50000000 
0.02200    150142512.00000000 93735520.00000000 237264112.00000000 90984.96875000  7389926.00000000 5838700.00000000 
0.02300    149066080.00000000 93071216.00000000 235573264.00000000 90138.28906250  7328862.50000000 5790671.50000000 
0.02400    147950208.00000000 92382448.00000000 233819856.00000000 89261.92968750  7265621.00000000 5740918.00000000 
0.02500    146797840.00000000 91670184.00000000 232006896.00000000 88357.88281250  7200269.00000000 5689482.50000000 
0.02600    145607184.00000000 90935336.00000000 230135840.00000000 87426.61718750  7132918.50000000 5636496.00000000 
0.02700    144380640.00000000 90177416.00000000 228207920.00000000 86468.64843750  7063582.00000000 5581900.50000000 
0.02800    143118752.00000000 89397928.00000000 226224608.00000000 85486.29687500  6992345.50000000 5525868.50000000 
0.02900    141824336.00000000 88598456.00000000 224189456.00000000 84479.89843750  6919324.00000000 5468375.50000000 
0.03000    140496448.00000000 87778328.00000000 222102480.00000000 83450.86718750  6844559.00000000 5409536.50000000 
0.03100    139138112.00000000 86938168.00000000 219965776.00000000 82399.93750000  6768102.50000000 5349358.00000000 
0.03200    137749056.00000000 86080520.00000000 217782592.00000000 81328.92968750  6690080.50000000 5287930.00000000 
0.03300    136331664.00000000 85204416.00000000 215553632.00000000 80238.12500000  6610515.50000000 5225342.50000000 
0.03400    134885984.00000000 84311328.00000000 213281088.00000000 79129.22656250  6529543.00000000 5161584.00000000 
0.03500    133414896.00000000 83401696.00000000 210967520.00000000 78004.18750000  6447237.00000000 5096790.50000000 
0.03600    131918624.00000000 82476104.00000000 208615136.00000000 76863.21875000  6363610.00000000 5030959.50000000 
0.03700    130399192.00000000 81536912.00000000 206224368.00000000 75707.35156250  6278873.50000000 4964213.50000000 
0.03800    128857392.00000000 80582888.00000000 203798912.00000000 74538.72656250  6192952.00000000 4896604.50000000 
0.03900    127294120.00000000 79616680.00000000 201340816.00000000 73357.41406250  6106029.50000000 4828167.00000000 
0.04000    125711320.00000000 78638000.00000000 198851440.00000000 72165.77343750  6018166.50000000 4758970.00000000 
0.04100    124110384.00000000 77647368.00000000 196332768.00000000 70964.21093750  5929445.50000000 4689120.50000000 
0.04200    122493040.00000000 76646176.00000000 193786912.00000000 69754.05468750  5839909.50000000 4618629.50000000 
0.04300    120858952.00000000 75635376.00000000 191217344.00000000 68536.92968750  5749742.50000000 4547579.50000000 
0.04400    119211592.00000000 74615672.00000000 188625264.00000000 67313.55468750  5658886.00000000 4476058.00000000 
0.04500    117550824.00000000 73588008.00000000 186011312.00000000 66085.34375000  5567536.00000000 4404113.00000000 
0.04600    115879040.00000000 72552944.00000000 183380512.00000000 64853.66406250  5475718.00000000 4331760.00000000 
0.04700    114196872.00000000 71511464.00000000 180733216.00000000 63618.95312500  5383537.00000000 4259127.00000000 
0.04800    112505440.00000000 70464720.00000000 178072528.00000000 62382.92578125  5291049.50000000 4186267.50000000 
0.04900    110807088.00000000 69412896.00000000 175398240.00000000 61146.98437500  5198365.50000000 4113216.25000000 
0.05000    109101576.00000000 68356712.00000000 172713552.00000000 59911.36718750  5105475.00000000 4040069.50000000 
0.05100    107391976.00000000 67297024.00000000 170021552.00000000 58677.80468750  5012532.00000000 3966837.00000000 
0.05200    105678336.00000000 66234984.00000000 167323440.00000000 57446.87890625  4919637.00000000 3893607.50000000 
0.05300    103962072.00000000 65171844.00000000 164622864.00000000 56219.95312500  4826794.50000000 3820443.25000000 
0.05400    102245128.00000000 64107312.00000000 161917936.00000000 54997.85546875  4734107.00000000 3747387.00000000 
0.05500    100528568.00000000 63042472.00000000 159213792.00000000 53781.83593750  4641638.50000000 3674523.00000000 
0.05600    98812440.00000000 61978528.00000000 156510752.00000000 52572.58203125  4549457.50000000 3601856.25000000 
0.05700    97099040.00000000 60916060.00000000 153811936.00000000 51371.21875000  4457703.00000000 3529478.00000000 
0.05800    95389160.00000000 59855464.00000000 151118784.00000000 50178.58593750  4366316.50000000 3457439.75000000 
0.05900    93684144.00000000 58797532.00000000 148433136.00000000 48995.12890625  4275427.50000000 3385756.50000000 
0.06000    91985040.00000000 57743208.00000000 145756672.00000000 47822.28515625  4185087.25000000 3314524.50000000 
0.06100    90293024.00000000 56692956.00000000 143090160.00000000 46660.46093750  4095363.75000000 3243775.75000000 
0.06200    88609240.00000000 55647288.00000000 140436256.00000000 45510.80468750  4006302.75000000 3173532.25000000 
0.06300    86934144.00000000 54607400.00000000 137796592.00000000 44373.80859375  3917998.75000000 3103866.50000000 
0.06400    85269664.00000000 53573388.00000000 135172352.00000000 43249.91796875  3830445.00000000 3034788.50000000 
0.06500    83615976.00000000 52545980.00000000 132565408.00000000 42140.08203125  3743742.25000000 2966396.00000000 
0.06600    81974224.00000000 51525936.00000000 129977456.00000000 41045.21093750  3657928.75000000 2898667.50000000 
0.06700    80345392.00000000 50513720.00000000 127409416.00000000 39965.28906250  3573020.50000000 2831673.75000000 
0.06800    78730168.00000000 49509828.00000000 124862264.00000000 38901.30859375  3489104.75000000 2765442.25000000 
0.06900    77129920.00000000 48514928.00000000 122338984.00000000 37853.64062500  3406213.25000000 2700001.00000000 
0.07000    75545576.00000000 47529324.00000000 119840056.00000000 36823.00000000  3324368.75000000 2635417.75000000 
0.07100    73976720.00000000 46553932.00000000 117365128.00000000 35809.42187500  3243645.75000000 2571666.75000000 
0.07200    72425608.00000000 45588316.00000000 114917272.00000000 34813.60546875  3164046.25000000 2508803.50000000 
0.07300    70891920.00000000 44633844.00000000 112497672.00000000 33835.90234375  3085621.75000000 2446874.25000000 
0.07400    69376576.00000000 43690708.00000000 110106288.00000000 32876.37109375  3008399.75000000 2385876.50000000 
0.07500    67880512.00000000 42759076.00000000 107745328.00000000 31935.68359375  2932407.50000000 2325854.75000000 
0.07600    66403924.00000000 41839436.00000000 105414528.00000000 31013.79296875  2857665.25000000 2266813.25000000 
0.07700    64947764.00000000 40932224.00000000 103115896.00000000 30111.36718750  2784231.25000000 2208773.50000000 
0.07800    63512272.00000000 40037684.00000000 100849688.00000000 29228.22851562  2712077.00000000 2151771.75000000 
0.07900    62098472.00000000 39156544.00000000 98616568.00000000 28364.86328125  2641246.75000000 2095787.50000000 
0.08000    60706128.00000000 38288544.00000000 96417768.00000000 27520.86328125  2571794.25000000 2040883.12500000 
0.08100    59336136.00000000 37434176.00000000 94254360.00000000 26696.97460938  2503670.25000000 1987031.25000000 
0.08200    57988540.00000000 36593628.00000000 92125144.00000000 25892.87500000  2436937.50000000 1934265.87500000 
0.08300    56663952.00000000 35767076.00000000 90033192.00000000 25108.66796875  2371579.50000000 1882579.87500000 
0.08400    55362904.00000000 34954904.00000000 87976664.00000000 24344.54296875  2307625.00000000 1831992.12500000 
0.08500    54085072.00000000 34157468.00000000 85957504.00000000 23600.14843750  2245049.50000000 1782514.12500000 
0.08600    52831068.00000000 33374340.00000000 83975760.00000000 22875.77734375  2183902.25000000 1734127.75000000 
0.08700    51601476.00000000 32605948.00000000 82031680.00000000 22171.00195312  2124162.75000000 1686849.25000000 
0.08800    50395764.00000000 31852844.00000000 80125824.00000000 21486.01953125  2065827.75000000 1640690.37500000 
0.08900    49214572.00000000 31114660.00000000 78258352.00000000 20820.61718750  2008891.87500000 1595630.75000000 
0.09000    48058084.00000000 30391436.00000000 76429120.00000000 20174.45117188  1953383.12500000 1551676.37500000 
0.09100    46925792.00000000 29683544.00000000 74638664.00000000 19547.54687500  1899267.62500000 1508830.37500000 
0.09200    45818496.00000000 28990742.00000000 72886696.00000000 18939.51953125  1846540.00000000 1467075.00000000 
0.09300    44735804.00000000 28313438.00000000 71173864.00000000 18350.49414062  1795214.75000000 1426418.37500000 
0.09400    43677628.00000000 27651264.00000000 69499352.00000000 17779.77148438  1745244.50000000 1386836.87500000 
0.09500    42644128.00000000 27004126.00000000 67863824.00000000 17227.32031250  1696652.87500000 1348334.12500000 
0.09600    41635296.00000000 26372332.00000000 66267100.00000000 16692.77148438  1649407.25000000 1310901.12500000 
0.09700    40650924.00000000 25755732.00000000 64708932.00000000 16176.06738281  1603504.12500000 1274520.75000000 
0.09800    39691036.00000000 25154324.00000000 63189416.00000000 15676.74218750  1558928.12500000 1239179.62500000 
0.09900    38755324.00000000 24567954.00000000 61707656.00000000 15194.23925781  1515665.75000000 1204869.00000000 
0.10000    37843680.00000000 23996430.00000000 60264320.00000000 14728.44140625  1473682.50000000 1171573.00000000 
0.10100    36955784.00000000 23439784.00000000 58858036.00000000 14278.89160156  1432970.12500000 1139284.00000000 
0.10200    36092016.00000000 22897872.00000000 57489456.00000000 13845.40429688  1393507.12500000 1107966.87500000 
0.10300    35251396.00000000 22370390.00000000 56157432.00000000 13427.39648438  1355278.12500000 1077630.50000000 
0.10400    34433992.00000000 21857466.00000000 54862432.00000000 13024.58398438  1318243.25000000 1048236.81250000 
0.10500    33639456.00000000 21358804.00000000 53603484.00000000 12636.53125000  1282395.87500000 1019780.87500000 
0.10600    32867426.00000000 20874150.00000000 52379916.00000000 12262.79296875  1247688.50000000 992227.37500000 
0.10700    32117786.00000000 20403336.00000000 51191800.00000000 11903.03417969  1214134.37500000 965580.37500000 
0.10800    31390264.00000000 19946290.00000000 50038204.00000000 11556.77539062  1181669.87500000 939802.93750000 
0.10900    30684216.00000000 19502660.00000000 48918824.00000000 11223.59960938  1150303.50000000 914877.43750000 
0.11000    29999448.00000000 19072236.00000000 47833084.00000000 10903.11132812  1119978.37500000 890779.50000000 
0.11100    29335668.00000000 18654978.00000000 46780440.00000000 10594.96582031  1090684.12500000 867500.12500000 
0.11200    28692116.00000000 18250296.00000000 45759960.00000000 10298.69628906  1062390.00000000 845010.75000000 
0.11300    28068874.00000000 17858426.00000000 44771352.00000000 10013.72167969  1035064.12500000 823280.68750000 
0.11400    27465230.00000000 17478702.00000000 43813676.00000000 9739.84667969   1008688.93750000 802305.18750000 
0.11500    26880784.00000000 17111080.00000000 42886724.00000000 9476.55273438   983220.75000000 782051.56250000 
0.11600    26315198.00000000 16755296.00000000 41989400.00000000 9223.37304688   958644.06250000 762499.75000000 
0.11700    25768088.00000000 16411090.00000000 41121256.00000000 8979.99511719   934919.62500000 743626.43750000 
0.11800    25238862.00000000 16077913.00000000 40281616.00000000 8745.95312500   912025.25000000 725405.87500000 
0.11900    24727254.00000000 15755890.00000000 39469428.00000000 8520.83007812   889934.06250000 707821.87500000 
0.12000    24232256.00000000 15444373.00000000 38684140.00000000 8304.32421875   868614.50000000 690845.81250000 
0.12100    23754132.00000000 15143372.00000000 37925344.00000000 8095.97070312   848039.43750000 674471.06250000 
0.12200    23291992.00000000 14852468.00000000 37191600.00000000 7895.33154297   828185.37500000 658655.81250000 
0.12300    22845470.00000000 14571401.00000000 36482884.00000000 7702.20166016   809011.87500000 643383.31250000 
0.12400    22414246.00000000 14299787.00000000 35798376.00000000 7516.08203125   790501.37500000 628640.81250000 
0.12500    21997460.00000000 14037451.00000000 35137024.00000000 7336.64208984   772625.75000000 614399.75000000 
0.12600    21595056.00000000 13784120.00000000 34498192.00000000 7163.62597656   755358.56250000 600645.37500000 
0.12700    21206264.00000000 13539385.00000000 33881204.00000000 6996.58789062   738675.62500000 587343.62500000 
0.12800    20830840.00000000 13303006.00000000 33285282.00000000 6835.25292969   722536.06250000 574486.93750000 
0.12900    20468160.00000000 13074835.00000000 32709798.00000000 6679.26220703   706937.00000000 562052.50000000 
0.13000    20117746.00000000 12854323.00000000 32153840.00000000 6528.42041016   691841.00000000 550015.00000000 
0.13100    19779208.00000000 12641345.00000000 31616688.00000000 6382.29882812   677220.37500000 538365.06250000 
0.13200    19452180.00000000 12435593.00000000 31097746.00000000 6240.70996094   663059.43750000 527075.87500000 
0.13300    19135982.00000000 12236864.00000000 30596428.00000000 6103.39062500   649329.37500000 516131.50000000 
0.13400    18830402.00000000 12044645.00000000 30111650.00000000 5969.98144531   636010.87500000 505515.81250000 
0.13500    18534920.00000000 11858979.00000000 29642934.00000000 5840.36328125   623087.12500000 495207.31250000 
0.13600    18248958.00000000 11679416.00000000 29189532.00000000 5714.27246094   610531.43750000 485195.87500000 
0.13700    17972308.00000000 11505513.00000000 28751028.00000000 5591.43261719   598318.87500000 475460.56250000 
0.13800    17704422.00000000 11337421.00000000 28326472.00000000 5471.65527344   586437.87500000 465986.28125000 
0.13900    17444994.00000000 11174567.00000000 27915042.00000000 5354.77539062   574868.62500000 456762.15625000 
0.14000    17193586.00000000 11016880.00000000 27516724.00000000 5240.58984375   563589.62500000 447771.12500000 
0.14100    16949664.00000000 10863996.00000000 27130322.00000000 5128.94580078   552583.43750000 438997.53125000 
0.14200    16712980.00000000 10715699.00000000 26755648.00000000 5019.62451172   541837.43750000 430426.84375000 
0.14300    16483208.00000000 10571841.00000000 26391846.00000000 4912.48632812   531328.56250000 422054.71875000 
0.14400    16259808.00000000 10432033.00000000 26038312.00000000 4807.48779297   521050.71875000 413860.21875000 
0.14500    16042750.00000000 10296194.00000000 25694724.00000000 4704.34716797   510988.62500000 405838.15625000 
0.14600    15831302.00000000 10164016.00000000 25360208.00000000 4603.08447266   501120.15625000 397974.62500000 
0.14700    15625457.00000000 10035402.00000000 25034724.00000000 4503.51708984   491443.56250000 390260.68750000 
0.14800    15424733.00000000 9909984.00000000 24717244.00000000 4405.56103516   481935.34375000 382685.59375000 
0.14900    15228766.00000000 9787679.00000000 24407588.00000000 4309.09912109   472590.21875000 375237.84375000 
0.15000    15037365.00000000 9668310.00000000 24105102.00000000 4214.07177734   463397.75000000 367915.06250000 
0.15100    14850297.00000000 9551644.00000000 23809454.00000000 4120.41552734   454348.71875000 360704.40625000 
0.15200    14667251.00000000 9437514.00000000 23520294.00000000 4028.11889648   445432.50000000 353604.03125000 
0.15300    14487813.00000000 9325826.00000000 23237056.00000000 3937.04858398   436641.18750000 346601.00000000 
0.15400    14311752.00000000 9216255.00000000 22959258.00000000 3847.16455078   427963.75000000 339691.56250000 
0.15500    14139058.00000000 9108810.00000000 22686554.00000000 3758.48901367   419399.78125000 332869.28125000 
0.15600    13969295.00000000 9003197.00000000 22418792.00000000 3670.90942383   410935.71875000 326128.25000000 
0.15700    13802375.00000000 8899435.00000000 22155416.00000000 3584.48364258   402569.25000000 319468.90625000 
0.15800    13637900.00000000 8797290.00000000 21895932.00000000 3499.12304688   394294.09375000 312878.68750000 
0.15900    13475994.00000000 8696634.00000000 21640654.00000000 3414.85449219   386106.46875000 306358.65625000 
0.16000    13316087.00000000 8597345.00000000 21388502.00000000 3331.65820312   378000.81250000 299903.25000000 
0.16100    13158371.00000000 8499377.00000000 21139824.00000000 3249.59106445   369978.90625000 293516.12500000 
0.16200    13002374.00000000 8402590.00000000 20894018.00000000 3168.54931641   362028.65625000 287186.68750000 
0.16300    12848100.00000000 8306828.00000000 20650734.00000000 3088.60791016   354155.15625000 280916.53125000 
0.16400    12695470.00000000 8212046.50000000 20410058.00000000 3009.76757812   346350.53125000 274703.59375000 
0.16500    12544158.00000000 8118123.50000000 20171556.00000000 2932.03662109   338616.56250000 268543.50000000 
0.16600    12394130.00000000 8025031.00000000 19935198.00000000 2855.43530273   330952.09375000 262440.43750000 
0.16700    12245399.00000000 7932645.50000000 19700468.00000000 2779.94311523   323353.96875000 256390.00000000 
0.16800    12097636.00000000 7840910.50000000 19467562.00000000 2705.63037109   315821.59375000 250389.21875000 
0.16900    11950999.00000000 7749823.00000000 19236216.00000000 2632.54150391   308359.65625000 244445.48437500 
0.17000    11805198.00000000 7659229.00000000 19006320.00000000 2560.66259766   300961.43750000 238553.00000000 
