# SAXS profile: number of points = 501, q_min = 0, q_max = 0.5, delta_q = 0.001
#    q    intensity 
0.00000    162235664.00000000 101202272.00000000 256270176.00000000 97649.36718750  7960555.00000000 6287198.00000000 
0.00100    162205760.00000000 101182472.00000000 256220832.00000000 97622.22656250  7958661.50000000 6285725.00000000 
0.00200    162115664.00000000 101124416.00000000 256074256.00000000 97543.83593750  7953119.00000000 6281413.00000000 
0.00300    161961440.00000000 101028664.00000000 255829728.00000000 97413.07812500  7943891.00000000 6274186.50000000 
0.00400    161742320.00000000 100893976.00000000 255484560.00000000 97230.39062500  7930987.50000000 6264024.50000000 
0.00500    161458624.00000000 100720744.00000000 255043504.00000000 96995.50000000  7914418.00000000 6251025.00000000 
0.00600    161114336.00000000 100508640.00000000 254503360.00000000 96709.77343750  7894237.00000000 6235210.00000000 
0.00700    160708720.00000000 100260208.00000000 253869952.00000000 96373.22656250  7870496.50000000 6216529.00000000 
0.00800    160237360.00000000 99974128.00000000 253140224.00000000 95986.51562500  7843172.00000000 6195107.00000000 
0.00900    159710176.00000000 99652240.00000000 252316560.00000000 95550.65625000  7812351.50000000 6170923.50000000 
0.01000    159125856.00000000 99293632.00000000 251398192.00000000 95065.21875000  7778078.00000000 6144014.50000000 
0.01100    158483616.00000000 98898392.00000000 250388816.00000000 94533.44531250  7740353.50000000 6114422.00000000 
0.01200    157783280.00000000 98467856.00000000 249288720.00000000 93954.38281250  7699319.00000000 6082190.00000000 
0.01300    157023088.00000000 98001688.00000000 248099440.00000000 93329.09375000  7654948.50000000 6047419.00000000 
0.01400    156206672.00000000 97501224.00000000 246822752.00000000 92659.33593750  7607426.50000000 6010086.00000000 
0.01500    155338016.00000000 96967200.00000000 245460944.00000000 91946.29687500  7556758.00000000 5970284.00000000 
0.01600    154415152.00000000 96400704.00000000 244014736.00000000 91191.25781250  7503000.50000000 5928123.50000000 
0.01700    153440304.00000000 95802208.00000000 242485840.00000000 90394.92187500  7446253.50000000 5883591.50000000 
0.01800    152413888.00000000 95172552.00000000 240877344.00000000 89560.23437500  7386673.50000000 5836787.00000000 
0.01900    151338064.00000000 94510928.00000000 239191328.00000000 88686.21093750  7324257.50000000 5787816.00000000 
0.02000    150213936.00000000 93821464.00000000 237429296.00000000 87776.35156250  7259158.50000000 5736667.50000000 
0.02100    149043232.00000000 93101432.00000000 235594432.00000000 86831.66406250  7191416.00000000 5683491.50000000 
0.02200    147826256.00000000 92354464.00000000 233687200.00000000 85853.28906250  7121180.50000000 5628321.50000000 
0.02300    146566336.00000000 91580936.00000000 231712880.00000000 84843.70312500  7048578.00000000 5571273.00000000 
0.02400    145264992.00000000 90780688.00000000 229671376.00000000 83803.10156250  6973673.50000000 5512423.00000000 
0.02500    143922960.00000000 89955952.00000000 227564480.00000000 82734.98437500  6896525.00000000 5451855.00000000 
0.02600    142540400.00000000 89106872.00000000 225399648.00000000 81639.49218750  6817360.00000000 5389632.50000000 
0.02700    141123040.00000000 88234528.00000000 223176288.00000000 80519.80468750  6736156.50000000 5325906.00000000 
0.02800    139669616.00000000 87340928.00000000 220895312.00000000 79377.04687500  6653157.00000000 5260684.00000000 
0.02900    138182416.00000000 86426024.00000000 218563424.00000000 78212.60156250  6568431.50000000 5194080.00000000 
0.03000    136663888.00000000 85491760.00000000 216180608.00000000 77028.65625000  6482065.50000000 5126218.00000000 
0.03100    135114656.00000000 84539136.00000000 213750704.00000000 75826.66406250  6394197.50000000 5057167.50000000 
0.03200    133538016.00000000 83568008.00000000 211277072.00000000 74608.83593750  6304945.50000000 4987029.50000000 
0.03300    131935896.00000000 82581704.00000000 208761456.00000000 73377.59375000  6214457.00000000 4915880.50000000 
0.03400    130307584.00000000 81579624.00000000 206209088.00000000 72133.42968750  6122808.50000000 4843833.50000000 
0.03500    128658240.00000000 80563104.00000000 203618512.00000000 70878.37500000  6030111.00000000 4770933.50000000 
0.03600    126987344.00000000 79534288.00000000 200994928.00000000 69614.39843750  5936509.50000000 4697372.00000000 
0.03700    125298312.00000000 78493920.00000000 198343584.00000000 68343.25000000  5842141.50000000 4623140.50000000 
0.03800    123592040.00000000 77442472.00000000 195665760.00000000 67066.98437500  5747018.00000000 4548364.50000000 
0.03900    121870712.00000000 76381408.00000000 192962080.00000000 65787.07031250  5651373.00000000 4473111.50000000 
0.04000    120135784.00000000 75311952.00000000 190236208.00000000 64504.53125000  5555262.50000000 4397509.50000000 
0.04100    118389584.00000000 74234784.00000000 187493296.00000000 63221.38281250  5458841.00000000 4321638.00000000 
0.04200    116633856.00000000 73151592.00000000 184734624.00000000 61939.48828125  5362154.50000000 4245566.00000000 
0.04300    114869648.00000000 72062504.00000000 181963376.00000000 60659.57421875  5265336.50000000 4169332.25000000 
0.04400    113099216.00000000 70969416.00000000 179181120.00000000 59384.04296875  5168473.50000000 4093098.25000000 
0.04500    111324880.00000000 69873464.00000000 176391888.00000000 58113.35546875  5071691.50000000 4016927.25000000 
0.04600    109547192.00000000 68775688.00000000 173598016.00000000 56849.49609375  4975093.00000000 3940868.75000000 
0.04700    107768568.00000000 67676536.00000000 170802000.00000000 55593.34375000  4878773.50000000 3865000.75000000 
0.04800    105990888.00000000 66577640.00000000 168005568.00000000 54347.05078125  4782814.00000000 3789426.25000000 
0.04900    104214400.00000000 65479596.00000000 165212864.00000000 53110.91796875  4687280.00000000 3714181.75000000 
0.05000    102442408.00000000 64383128.00000000 162423264.00000000 51886.32421875  4592287.50000000 3639349.50000000 
0.05100    100674584.00000000 63289684.00000000 159642096.00000000 50674.08984375  4497904.50000000 3564993.50000000 
0.05200    98913056.00000000 62199540.00000000 156871488.00000000 49475.90234375  4404269.00000000 3491189.00000000 
0.05300    97160088.00000000 61114180.00000000 154112912.00000000 48291.92968750  4311338.00000000 3417970.00000000 
0.05400    95415664.00000000 60034096.00000000 151366432.00000000 47123.78125000  4219287.50000000 3345421.00000000 
0.05500    93681760.00000000 58960248.00000000 148638544.00000000 45971.58203125  4128197.00000000 3273571.75000000 
0.05600    91960520.00000000 57893248.00000000 145927792.00000000 44836.52734375  4038036.75000000 3202487.75000000 
0.05700    90250952.00000000 56833708.00000000 143235152.00000000 43719.50000000  3948951.75000000 3132225.50000000 
0.05800    88556184.00000000 55782540.00000000 140566192.00000000 42620.71875000  3860933.00000000 3062797.75000000 
0.05900    86876448.00000000 54740908.00000000 137921552.00000000 41540.93359375  3774094.25000000 2994293.50000000 
0.06000    85213168.00000000 53708400.00000000 135300816.00000000 40480.49218750  3688455.75000000 2926711.50000000 
0.06100    83567344.00000000 52686880.00000000 132706456.00000000 39440.44531250  3604039.75000000 2860112.75000000 
0.06200    81939392.00000000 51675652.00000000 130140576.00000000 38420.28515625  3520964.75000000 2794507.75000000 
0.06300    80330608.00000000 50676144.00000000 127603976.00000000 37421.21484375  3439173.25000000 2729948.50000000 
0.06400    78741256.00000000 49688332.00000000 125099008.00000000 36442.71484375  3358778.25000000 2666454.00000000 
0.06500    77172456.00000000 48713432.00000000 122625488.00000000 35485.55078125  3279748.50000000 2604057.50000000 
0.06600    75625864.00000000 47751308.00000000 120184816.00000000 34549.94140625  3202164.25000000 2542771.75000000 
0.06700    74100312.00000000 46802172.00000000 117778560.00000000 33635.60156250  3126001.75000000 2482594.75000000 
0.06800    72598152.00000000 45867272.00000000 115407560.00000000 32743.06054688  3051331.75000000 2423581.00000000 
0.06900    71118584.00000000 44946000.00000000 113072840.00000000 31871.64062500  2978121.75000000 2365763.50000000 
0.07000    69663128.00000000 44039368.00000000 110775560.00000000 31022.13476562  2906427.00000000 2309056.25000000 
0.07100    68230824.00000000 43147172.00000000 108514416.00000000 30194.11132812  2836207.50000000 2253552.50000000 
0.07200    66823860.00000000 42270308.00000000 106292136.00000000 29387.32031250  2767528.00000000 2199233.75000000 
0.07300    65441100.00000000 41407936.00000000 104108568.00000000 28602.00390625  2700366.50000000 2146130.25000000 
0.07400    64083468.00000000 40561052.00000000 101964432.00000000 27837.49023438  2634694.00000000 2094176.25000000 
0.07500    62751704.00000000 39729772.00000000 99860296.00000000 27093.80273438  2570535.75000000 2043421.62500000 
0.07600    61444900.00000000 38913988.00000000 97794816.00000000 26370.71289062  2507907.25000000 1993858.62500000 
0.07700    60163916.00000000 38113888.00000000 95770088.00000000 25668.05859375  2446792.25000000 1945478.50000000 
0.07800    58908652.00000000 37329804.00000000 93785944.00000000 24985.15234375  2387150.25000000 1898263.37500000 
0.07900    57679252.00000000 36561468.00000000 91842456.00000000 24322.10351562  2328988.00000000 1852219.25000000 
0.08000    56475472.00000000 35809044.00000000 89938728.00000000 23678.17382812  2272311.25000000 1807336.62500000 
0.08100    55298104.00000000 35072508.00000000 88076384.00000000 23053.30859375  2217064.25000000 1763588.37500000 
0.08200    54145888.00000000 34351848.00000000 86253280.00000000 22446.62500000  2163277.25000000 1720971.12500000 
0.08300    53019292.00000000 33646900.00000000 84471352.00000000 21858.25976562  2110874.00000000 1679467.62500000 
0.08400    51918404.00000000 32957728.00000000 82728496.00000000 21287.54687500  2059886.50000000 1639052.50000000 
0.08500    50842784.00000000 32284270.00000000 81026312.00000000 20734.08789062  2010263.62500000 1599726.50000000 
0.08600    49792652.00000000 31626406.00000000 79363320.00000000 20197.17773438  1962003.12500000 1561455.87500000 
0.08700    48767080.00000000 30983682.00000000 77740144.00000000 19676.85546875  1915051.62500000 1524236.75000000 
0.08800    47766444.00000000 30356200.00000000 76154832.00000000 19172.26367188  1869379.37500000 1488031.12500000 
0.08900    46789868.00000000 29743808.00000000 74608520.00000000 18683.14648438  1824988.62500000 1452821.25000000 
0.09000    45837564.00000000 29146526.00000000 73099000.00000000 18208.87500000  1781857.75000000 1418587.50000000 
0.09100    44908580.00000000 28563950.00000000 71628064.00000000 17748.99609375  1739920.25000000 1385315.25000000 
0.09200    44003628.00000000 27995612.00000000 70194176.00000000 17303.18750000  1699155.62500000 1352976.00000000 
0.09300    43121364.00000000 27441884.00000000 68795736.00000000 16871.06445312  1659557.25000000 1321535.87500000 
0.09400    42261552.00000000 26902002.00000000 67432792.00000000 16451.74609375  1621071.00000000 1290989.25000000 
0.09500    41424012.00000000 26375924.00000000 66105492.00000000 16045.19433594  1583668.62500000 1261303.00000000 
0.09600    40608536.00000000 25863602.00000000 64812428.00000000 15650.77441406  1547344.87500000 1232443.50000000 
0.09700    39814216.00000000 25364512.00000000 63553236.00000000 15268.04687500  1512036.62500000 1204408.25000000 
0.09800    39040740.00000000 24878218.00000000 62326568.00000000 14896.66015625  1477735.37500000 1177159.37500000 
0.09900    38288116.00000000 24404948.00000000 61132476.00000000 14536.23339844  1444394.75000000 1150675.50000000 
0.10000    37555172.00000000 23944086.00000000 59970244.00000000 14186.20410156  1411991.75000000 1124932.25000000 
0.10100    36842096.00000000 23495354.00000000 58838340.00000000 13846.30664062  1380504.12500000 1099904.50000000 
0.10200    36147584.00000000 23058522.00000000 57736540.00000000 13516.13476562  1349882.62500000 1075555.62500000 
0.10300    35471572.00000000 22633378.00000000 56664436.00000000 13195.17578125  1320107.87500000 1051887.75000000 
0.10400    34813912.00000000 22219424.00000000 55620692.00000000 12883.27539062  1291155.50000000 1028867.50000000 
0.10500    34173880.00000000 21816496.00000000 54605136.00000000 12579.99414062  1262992.75000000 1006474.18750000 
0.10600    33550926.00000000 21424238.00000000 53616100.00000000 12284.94335938  1235589.62500000 984671.75000000 
0.10700    32944570.00000000 21042468.00000000 52653716.00000000 11997.96582031  1208934.37500000 963456.31250000 
0.10800    32354416.00000000 20670756.00000000 51716780.00000000 11718.59863281  1182966.37500000 942795.68750000 
0.10900    31779912.00000000 20308724.00000000 50804484.00000000 11446.56152344  1157692.75000000 922676.93750000 
0.11000    31220446.00000000 19956324.00000000 49916416.00000000 11181.72167969  1133070.62500000 903078.87500000 
0.11100    30675734.00000000 19613226.00000000 49051604.00000000 10923.48730469  1109076.12500000 883977.25000000 
0.11200    30145298.00000000 19278932.00000000 48209236.00000000 10671.93945312  1085695.37500000 865351.37500000 
0.11300    29628368.00000000 18953188.00000000 47388540.00000000 10426.74609375  1062888.00000000 847189.50000000 
0.11400    29125068.00000000 18635970.00000000 46588884.00000000 10187.64843750  1040653.56250000 829477.56250000 
0.11500    28634344.00000000 18326822.00000000 45809832.00000000 9954.41210938   1018955.87500000 812187.50000000 
0.11600    28156428.00000000 18025204.00000000 45050120.00000000 9726.83300781   997790.62500000 795308.12500000 
0.11700    27690160.00000000 17731212.00000000 44309764.00000000 9504.83496094   977112.25000000 778831.93750000 
0.11800    27235336.00000000 17444534.00000000 43587356.00000000 9288.08984375   956917.62500000 762724.50000000 
0.11900    26791656.00000000 17164728.00000000 42882504.00000000 9076.48535156   937181.68750000 746984.87500000 
0.12000    26358786.00000000 16891690.00000000 42194640.00000000 8869.73828125   917898.50000000 731603.81250000 
0.12100    25936224.00000000 16625186.00000000 41523204.00000000 8667.92871094   899043.93750000 716559.31250000 
0.12200    25523640.00000000 16364819.00000000 40867508.00000000 8470.80761719   880603.87500000 701843.06250000 
0.12300    25120498.00000000 16110364.00000000 40226700.00000000 8278.18066406   862560.43750000 687437.62500000 
0.12400    24726352.00000000 15861738.00000000 39600500.00000000 8089.90722656   844895.06250000 673339.31250000 
0.12500    24341048.00000000 15618686.00000000 38988592.00000000 7906.07910156   827607.62500000 659526.62500000 
0.12600    23964488.00000000 15380955.00000000 38389752.00000000 7726.38916016   810677.06250000 646006.75000000 
0.12700    23596030.00000000 15148332.00000000 37803848.00000000 7550.74804688   794094.87500000 632748.68750000 
0.12800    23235082.00000000 14920507.00000000 37230356.00000000 7379.13818359   777838.87500000 619756.68750000 
0.12900    22881964.00000000 14697388.00000000 36668860.00000000 7211.32617188   761911.31250000 607026.62500000 
0.13000    22535920.00000000 14478811.00000000 36118792.00000000 7047.40039062   746294.31250000 594538.62500000 
0.13100    22196630.00000000 14264561.00000000 35579404.00000000 6887.13574219   730979.68750000 582289.43750000 
0.13200    21864270.00000000 14054507.00000000 35050352.00000000 6730.54882812   715960.37500000 570272.18750000 
0.13300    21538074.00000000 13848357.00000000 34531428.00000000 6577.47070312   701225.68750000 558485.43750000 
0.13400    21218090.00000000 13646036.00000000 34022448.00000000 6427.89746094   686764.18750000 546914.75000000 
0.13500    20903580.00000000 13447308.00000000 33522420.00000000 6281.72998047   672587.25000000 535553.87500000 
0.13600    20594938.00000000 13252150.00000000 33031076.00000000 6138.90087891   658655.37500000 524402.62500000 
0.13700    20291768.00000000 13060340.00000000 32548586.00000000 5999.33935547   644987.18750000 513450.75000000 
0.13800    19993568.00000000 12871628.00000000 32074184.00000000 5862.93994141   631560.00000000 502699.81250000 
0.13900    19700244.00000000 12686150.00000000 31607572.00000000 5729.73242188   618384.18750000 492139.53125000 
0.14000    19412062.00000000 12503590.00000000 31148486.00000000 5599.62548828   605440.87500000 481764.53125000 
0.14100    19128194.00000000 12323875.00000000 30696758.00000000 5472.46582031   592727.87500000 471578.31250000 
0.14200    18848774.00000000 12146894.00000000 30251764.00000000 5348.31005859   580248.18750000 461570.90625000 
0.14300    18573672.00000000 11972482.00000000 29813372.00000000 5227.04736328   567982.56250000 451734.96875000 
0.14400    18302386.00000000 11800651.00000000 29381558.00000000 5108.61718750   555939.25000000 442075.12500000 
0.14500    18035200.00000000 11631207.00000000 28955754.00000000 4992.90039062   544106.12500000 432585.28125000 
0.14600    17771720.00000000 11464130.00000000 28535904.00000000 4879.98925781   532485.50000000 423262.56250000 
0.14700    17511970.00000000 11299284.00000000 28122044.00000000 4769.72314453   521066.90625000 414100.84375000 
0.14800    17255452.00000000 11136585.00000000 27713408.00000000 4662.03417969   509845.90625000 405097.31250000 
0.14900    17002576.00000000 10976011.00000000 27310054.00000000 4556.85791016   498825.87500000 396254.03125000 
0.15000    16752855.00000000 10817375.00000000 26911992.00000000 4454.25781250   487997.34375000 387563.43750000 
0.15100    16506270.00000000 10660718.00000000 26518752.00000000 4353.97851562   477361.59375000 379027.31250000 
0.15200    16262929.00000000 10506019.00000000 26130268.00000000 4256.13867188   466915.75000000 370639.09375000 
0.15300    16022397.00000000 10353100.00000000 25746726.00000000 4160.59472656   456651.37500000 362400.75000000 
0.15400    15784593.00000000 10201918.00000000 25367422.00000000 4067.30053711   446565.90625000 354305.68750000 
0.15500    15549750.00000000 10052491.00000000 24992712.00000000 3976.21069336   436660.43750000 346351.37500000 
0.15600    15317584.00000000 9904675.00000000 24622022.00000000 3887.24511719   426927.03125000 338541.18750000 
0.15700    15088127.00000000 9758633.00000000 24255738.00000000 3800.42016602   417369.00000000 330869.65625000 
0.15800    14861052.00000000 9613986.00000000 23893168.00000000 3715.53515625   407982.37500000 323331.03125000 
0.15900    14636698.00000000 9471056.00000000 23534896.00000000 3632.69384766   398759.68750000 315927.87500000 
0.16000    14414565.00000000 9329518.00000000 23180266.00000000 3551.77246094   389698.31250000 308656.06250000 
0.16100    14195140.00000000 9189564.00000000 22829626.00000000 3472.77685547   380804.53125000 301519.28125000 
0.16200    13977823.00000000 9050975.00000000 22482552.00000000 3395.55932617   372068.43750000 294507.78125000 
0.16300    13762936.00000000 8913861.00000000 22139104.00000000 3320.10668945   363485.46875000 287620.75000000 
0.16400    13550329.00000000 8778146.00000000 21799262.00000000 3246.41821289   355063.25000000 280862.65625000 
0.16500    13339890.00000000 8643804.00000000 21463038.00000000 3174.39501953   346783.81250000 274224.28125000 
0.16600    13131701.00000000 8510794.00000000 21130128.00000000 3104.02441406   338662.06250000 267710.03125000 
0.16700    12925552.00000000 8379204.00000000 20800558.00000000 3035.18627930   330678.40625000 261309.23437500 
0.16800    12721619.00000000 8248823.50000000 20474562.00000000 2967.93383789   322842.53125000 255026.93750000 
0.16900    12519957.00000000 8119808.00000000 20151940.00000000 2902.22436523   315151.81250000 248862.59375000 
0.17000    12320163.00000000 7992180.50000000 19832430.00000000 2837.94506836   307596.96875000 242809.62500000 
