# SAXS profile: number of points = 501, q_min = 0, q_max = 0.5, delta_q = 0.001
#    q    intensity 
0.00000    162238560.00000000 101201536.00000000 256271840.00000000 113174.00781250 8570018.00000000 6768597.00000000 
0.00100    162209088.00000000 101183384.00000000 256224352.00000000 113147.64062500 8568201.00000000 6767159.50000000 
0.00200    162119840.00000000 101128448.00000000 256084624.00000000 113067.75781250 8562785.00000000 6762895.50000000 
0.00300    161971936.00000000 101036368.00000000 255850320.00000000 112934.81250000 8553757.00000000 6755817.50000000 
0.00400    161762704.00000000 100907936.00000000 255521584.00000000 112748.72656250 8541161.00000000 6745897.50000000 
0.00500    161493888.00000000 100742704.00000000 255102000.00000000 112510.28906250 8524897.00000000 6733213.50000000 
0.00600    161165600.00000000 100541576.00000000 254587728.00000000 112219.32031250 8505161.00000000 6717712.50000000 
0.00700    160779104.00000000 100303640.00000000 253981376.00000000 111876.68750000 8481871.00000000 6699405.00000000 
0.00800    160334384.00000000 100030376.00000000 253284896.00000000 111482.45312500 8455061.00000000 6678403.00000000 
0.00900    159830912.00000000 99722240.00000000 252497168.00000000 111037.07812500 8424795.00000000 6654630.50000000 
0.01000    159270176.00000000 99378136.00000000 251620656.00000000 110541.39062500 8391081.00000000 6628172.50000000 
0.01100    158654512.00000000 99000136.00000000 250654896.00000000 109996.54687500 8353979.50000000 6599055.00000000 
0.01200    157983200.00000000 98587792.00000000 249601504.00000000 109401.85937500 8313518.50000000 6567302.50000000 
0.01300    157257056.00000000 98140912.00000000 248462640.00000000 108759.89062500 8269786.50000000 6533001.00000000 
0.01400    156477072.00000000 97661072.00000000 247236880.00000000 108070.15625000 8222790.50000000 6496099.00000000 
0.01500    155642224.00000000 97148712.00000000 245929248.00000000 107334.26562500 8172654.00000000 6456713.00000000 
0.01600    154754752.00000000 96603304.00000000 244538368.00000000 106552.59375000 8119336.00000000 6414901.50000000 
0.01700    153816800.00000000 96026600.00000000 243067952.00000000 105727.25781250 8062982.50000000 6370666.00000000 
0.01800    152827888.00000000 95418704.00000000 241517488.00000000 104858.19531250 8003638.00000000 6324073.50000000 
0.01900    151790224.00000000 94780776.00000000 239890336.00000000 103947.40625000 7941366.50000000 6275231.50000000 
0.02000    150703952.00000000 94113536.00000000 238187168.00000000 102995.63281250 7876266.50000000 6224084.50000000 
0.02100    149570560.00000000 93416848.00000000 236410416.00000000 102003.80468750 7808378.00000000 6170777.00000000 
0.02200    148392160.00000000 92692816.00000000 234561520.00000000 100973.71875000 7737822.50000000 6115396.00000000 
0.02300    147168864.00000000 91939928.00000000 232643520.00000000 99906.86718750  7664651.50000000 6057952.00000000 
0.02400    145903376.00000000 91161784.00000000 230658176.00000000 98804.20312500  7588998.50000000 5998545.00000000 
0.02500    144595728.00000000 90357376.00000000 228606096.00000000 97667.40625000  7510894.00000000 5937232.00000000 
0.02600    143247136.00000000 89528744.00000000 226491360.00000000 96497.44531250  7430477.50000000 5874055.50000000 
0.02700    141860720.00000000 88675880.00000000 224317360.00000000 95296.76562500  7347801.50000000 5809144.50000000 
0.02800    140437168.00000000 87799528.00000000 222083776.00000000 94066.01562500  7262989.00000000 5742551.50000000 
0.02900    138976672.00000000 86901728.00000000 219792720.00000000 92806.81250000  7176115.50000000 5674321.50000000 
0.03000    137481792.00000000 85981816.00000000 217448032.00000000 91521.22656250  7087287.50000000 5604560.50000000 
0.03100    135955520.00000000 85042320.00000000 215053920.00000000 90210.25781250  6996652.50000000 5533376.50000000 
0.03200    134397888.00000000 84083552.00000000 212608784.00000000 88875.00781250  6904262.00000000 5460772.00000000 
0.03300    132809896.00000000 83106744.00000000 210117712.00000000 87519.32812500  6810195.00000000 5386897.00000000 
0.03400    131194352.00000000 82111872.00000000 207582384.00000000 86142.36718750  6714651.50000000 5311790.00000000 
0.03500    129552736.00000000 81101960.00000000 205006256.00000000 84747.00000000  6617647.50000000 5235583.00000000 
0.03600    127886688.00000000 80075440.00000000 202391376.00000000 83334.81250000  6519295.00000000 5158310.00000000 
0.03700    126197448.00000000 79035288.00000000 199739536.00000000 81906.51562500  6419773.00000000 5080073.00000000 
0.03800    124487544.00000000 77981872.00000000 197055664.00000000 80465.14843750  6319086.00000000 5000958.00000000 
0.03900    122758144.00000000 76916520.00000000 194341728.00000000 79011.47656250  6217437.50000000 4921049.00000000 
0.04000    121010088.00000000 75840096.00000000 191596144.00000000 77547.26562500  6114860.50000000 4840410.00000000 
0.04100    119246416.00000000 74753072.00000000 188827664.00000000 76073.94531250  6011503.00000000 4759140.50000000 
0.04200    117468176.00000000 73656720.00000000 186035728.00000000 74593.86718750  5907452.50000000 4677345.50000000 
0.04300    115677344.00000000 72552352.00000000 183222752.00000000 73108.00000000  5802834.00000000 4595045.00000000 
0.04400    113875392.00000000 71441824.00000000 180392960.00000000 71618.19531250  5697688.00000000 4512387.00000000 
0.04500    112063888.00000000 70324824.00000000 177547472.00000000 70125.53125000  5592228.00000000 4429393.50000000 
0.04600    110244528.00000000 69202552.00000000 174688720.00000000 68632.08593750  5486452.00000000 4346231.00000000 
0.04700    108419000.00000000 68076768.00000000 171822976.00000000 67139.70312500  5380531.00000000 4262895.50000000 
0.04800    106589384.00000000 66947520.00000000 168947312.00000000 65648.78125000  5274530.00000000 4179492.00000000 
0.04900    104756264.00000000 65816036.00000000 166067008.00000000 64161.71093750  5168573.50000000 4096090.00000000 
0.05000    102921920.00000000 64683736.00000000 163184608.00000000 62679.41796875  5062717.50000000 4012782.25000000 
0.05100    101088352.00000000 63551616.00000000 160301904.00000000 61203.50000000  4957056.00000000 3929641.00000000 
0.05200    99256128.00000000 62419812.00000000 157421824.00000000 59735.18750000  4851754.00000000 3846719.75000000 
0.05300    97427160.00000000 61289680.00000000 154546944.00000000 58276.36328125  4746844.50000000 3764105.50000000 
0.05400    95602712.00000000 60162668.00000000 151679184.00000000 56827.70703125  4642417.50000000 3681874.25000000 
0.05500    93784832.00000000 59039040.00000000 148819776.00000000 55390.44531250  4538564.00000000 3600094.00000000 
0.05600    91974488.00000000 57919580.00000000 145973120.00000000 53966.05078125  4435384.50000000 3518800.25000000 
0.05700    90172912.00000000 56805496.00000000 143139184.00000000 52555.81640625  4332944.50000000 3438095.75000000 
0.05800    88382056.00000000 55697628.00000000 140321600.00000000 51160.26562500  4231299.50000000 3358013.50000000 
0.05900    86602472.00000000 54596440.00000000 137522336.00000000 49781.04687500  4130610.25000000 3278609.25000000 
0.06000    84835960.00000000 53502792.00000000 134742128.00000000 48419.09765625  4030857.50000000 3199983.00000000 
0.06100    83083328.00000000 52418016.00000000 131983984.00000000 47075.14453125  3932146.25000000 3122163.75000000 
0.06200    81346144.00000000 51342192.00000000 129250032.00000000 45750.14453125  3834556.50000000 3045198.50000000 
0.06300    79625832.00000000 50275988.00000000 126540912.00000000 44445.23046875  3738141.25000000 2969154.50000000 
0.06400    77922664.00000000 49220444.00000000 123859232.00000000 43160.90625000  3642940.50000000 2894059.25000000 
0.06500    76238064.00000000 48176128.00000000 121205632.00000000 41898.17187500  3549056.25000000 2819961.50000000 
0.06600    74573368.00000000 47143368.00000000 118583376.00000000 40657.58984375  3456518.25000000 2746919.50000000 
0.06700    72929264.00000000 46123044.00000000 115992288.00000000 39440.14453125  3365375.75000000 2674991.50000000 
0.06800    71305984.00000000 45115648.00000000 113434632.00000000 38245.94531250  3275703.75000000 2604152.50000000 
0.06900    69705192.00000000 44121988.00000000 110911960.00000000 37076.02734375  3187523.75000000 2534506.50000000 
0.07000    68127888.00000000 43142328.00000000 108425784.00000000 35930.57421875  3100881.00000000 2466043.50000000 
0.07100    66574780.00000000 42176616.00000000 105976224.00000000 34809.97265625  3015818.75000000 2398824.75000000 
0.07200    65045424.00000000 41226288.00000000 103565216.00000000 33715.01953125  2932353.50000000 2332868.00000000 
0.07300    63541768.00000000 40291124.00000000 101193528.00000000 32645.74414062  2850560.25000000 2268193.00000000 
0.07400    62064240.00000000 39371796.00000000 98861896.00000000 31602.66796875  2770430.75000000 2204824.25000000 
0.07500    60613432.00000000 38468360.00000000 96572168.00000000 30585.76953125  2692013.50000000 2142778.25000000 
0.07600    59189484.00000000 37581476.00000000 94323840.00000000 29595.37109375  2615308.25000000 2082084.12500000 
0.07700    57792756.00000000 36711188.00000000 92118704.00000000 28631.75976562  2540365.25000000 2022748.25000000 
0.07800    56424260.00000000 35857944.00000000 89957192.00000000 27694.85546875  2467177.50000000 1964807.25000000 
0.07900    55083716.00000000 35021632.00000000 87839928.00000000 26784.75000000  2395772.50000000 1908245.50000000 
0.08000    53772168.00000000 34203152.00000000 85766536.00000000 25901.55273438  2326149.50000000 1853073.87500000 
0.08100    52489440.00000000 33402024.00000000 83738592.00000000 25045.27929688  2258320.75000000 1799314.37500000 
0.08200    51235536.00000000 32618404.00000000 81756560.00000000 24215.50195312  2192295.00000000 1746958.00000000 
0.08300    50011136.00000000 31853020.00000000 79820296.00000000 23412.40429688  2128069.00000000 1696011.87500000 
0.08400    48815776.00000000 31105286.00000000 77929312.00000000 22635.75781250  2065641.37500000 1646473.50000000 
0.08500    47650268.00000000 30375726.00000000 76085184.00000000 21885.36328125  2005012.87500000 1598340.50000000 
0.08600    46514524.00000000 29664356.00000000 74286944.00000000 21160.99804688  1946175.87500000 1551617.87500000 
0.08700    45408232.00000000 28971034.00000000 72534680.00000000 20462.33203125  1889120.37500000 1506297.75000000 
0.08800    44331324.00000000 28295670.00000000 70829216.00000000 19788.96484375  1833829.50000000 1462344.25000000 
0.08900    43283860.00000000 27638116.00000000 69169384.00000000 19140.60546875  1780286.00000000 1419777.50000000 
0.09000    42265992.00000000 26998690.00000000 67555456.00000000 18516.96875000  1728491.37500000 1378566.25000000 
0.09100    41277016.00000000 26377222.00000000 65987152.00000000 17917.69140625  1678412.00000000 1338712.87500000 
0.09200    40317156.00000000 25773390.00000000 64464512.00000000 17342.10546875  1630033.75000000 1300192.37500000 
0.09300    39386116.00000000 25187316.00000000 62986912.00000000 16790.02539062  1583331.75000000 1262985.62500000 
0.09400    38483504.00000000 24618630.00000000 61553196.00000000 16260.59179688  1538275.87500000 1227084.00000000 
0.09500    37608728.00000000 24067178.00000000 60164124.00000000 15753.63574219  1494854.12500000 1192444.12500000 
0.09600    36762204.00000000 23532830.00000000 58818888.00000000 15268.49707031  1453021.37500000 1159074.00000000 
0.09700    35942948.00000000 23015368.00000000 57516752.00000000 14804.56445312  1412754.00000000 1126932.25000000 
0.09800    35150820.00000000 22514818.00000000 56256688.00000000 14361.50781250  1374027.50000000 1095994.00000000 
0.09900    34385388.00000000 22030468.00000000 55038764.00000000 13938.44433594  1336799.37500000 1066258.25000000 
0.10000    33646076.00000000 21562270.00000000 53861984.00000000 13534.78710938  1301037.62500000 1037654.87500000 
0.10100    32932486.00000000 21109800.00000000 52725496.00000000 13150.08691406  1266713.37500000 1010186.50000000 
0.10200    32243950.00000000 20673016.00000000 51628524.00000000 12783.73730469  1233774.75000000 983820.12500000 
0.10300    31580394.00000000 20251516.00000000 50570400.00000000 12434.95800781  1202200.37500000 958524.68750000 
0.10400    30940920.00000000 19845032.00000000 49550352.00000000 12103.25390625  1171942.12500000 934271.68750000 
0.10500    30324920.00000000 19453116.00000000 48567724.00000000 11787.91210938  1142968.87500000 911034.06250000 
0.10600    29732266.00000000 19075350.00000000 47620984.00000000 11488.21972656  1115226.87500000 888771.18750000 
0.10700    29161718.00000000 18711570.00000000 46709672.00000000 11203.67285156  1088695.12500000 867460.37500000 
0.10800    28613034.00000000 18361240.00000000 45832556.00000000 10933.42285156  1063317.37500000 847068.25000000 
0.10900    28085634.00000000 18024110.00000000 44989132.00000000 10677.06542969  1039057.00000000 827560.50000000 
0.11000    27578814.00000000 17699788.00000000 44178260.00000000 10433.83007812  1015879.18750000 808907.31250000 
0.11100    27091908.00000000 17388038.00000000 43398672.00000000 10203.07031250  993732.50000000 791073.37500000 
0.11200    26624330.00000000 17088090.00000000 42649556.00000000 9984.07812500   972574.81250000 774025.25000000 
0.11300    26175324.00000000 16799844.00000000 41929848.00000000 9776.39843750   952355.50000000 757731.50000000 
0.11400    25744180.00000000 16522962.00000000 41238668.00000000 9579.30957031   933069.81250000 742166.25000000 
0.11500    25330684.00000000 16256705.00000000 40574804.00000000 9392.23046875   914638.68750000 727294.75000000 
0.11600    24933610.00000000 16000998.00000000 39937372.00000000 9214.49804688   897036.50000000 713075.43750000 
0.11700    24552734.00000000 15755336.00000000 39325164.00000000 9045.64843750   880223.37500000 699489.00000000 
0.11800    24186938.00000000 15519207.00000000 38737484.00000000 8885.02832031   864151.18750000 686497.18750000 
0.11900    23836034.00000000 15292407.00000000 38172728.00000000 8731.96875000   848781.93750000 674074.56250000 
0.12000    23498834.00000000 15074333.00000000 37630408.00000000 8586.06347656   834079.56250000 662176.12500000 
0.12100    23175284.00000000 14864789.00000000 37109612.00000000 8446.87597656   820008.18750000 650783.87500000 
0.12200    22864272.00000000 14663250.00000000 36608444.00000000 8313.65136719   806529.50000000 639866.12500000 
0.12300    22565360.00000000 14469319.00000000 36126844.00000000 8186.01367188   793597.81250000 629392.75000000 
0.12400    22277760.00000000 14282709.00000000 35663424.00000000 8063.44238281   781185.18750000 619339.12500000 
0.12500    22001106.00000000 14102846.00000000 35217032.00000000 7945.53759766   769251.81250000 609675.25000000 
0.12600    21734628.00000000 13929608.00000000 34787300.00000000 7831.85400391   757773.93750000 600372.75000000 
0.12700    21477692.00000000 13762538.00000000 34372764.00000000 7721.92236328   746698.00000000 591405.37500000 
0.12800    21229696.00000000 13601230.00000000 33972592.00000000 7615.33300781   736001.37500000 582746.06250000 
0.12900    20990160.00000000 13445397.00000000 33586140.00000000 7511.69482422   725666.56250000 574377.93750000 
0.13000    20758396.00000000 13294517.00000000 33212014.00000000 7410.74609375   715643.93750000 566267.12500000 
0.13100    20534012.00000000 13148384.00000000 32849816.00000000 7311.95703125   705908.50000000 558394.06250000 
0.13200    20316286.00000000 13006639.00000000 32498388.00000000 7215.07421875   696441.56250000 550740.50000000 
0.13300    20104774.00000000 12869097.00000000 32157162.00000000 7119.87548828   687209.81250000 543284.93750000 
0.13400    19898974.00000000 12735197.00000000 31825240.00000000 7026.00585938   678181.81250000 536005.12500000 
0.13500    19698534.00000000 12604772.00000000 31501696.00000000 6933.21240234   669344.81250000 528877.56250000 
0.13600    19502722.00000000 12477530.00000000 31185990.00000000 6841.20898438   660670.93750000 521893.40625000 
0.13700    19311206.00000000 12353258.00000000 30877464.00000000 6749.78808594   652139.81250000 515024.00000000 
0.13800    19123582.00000000 12231524.00000000 30574924.00000000 6658.79248047   643722.87500000 508261.65625000 
0.13900    18939374.00000000 12112169.00000000 30278492.00000000 6568.02392578   635411.81250000 501588.96875000 
0.14000    18758278.00000000 11994961.00000000 29987180.00000000 6477.18994141   627184.00000000 494993.59375000 
0.14100    18579680.00000000 11879635.00000000 29700180.00000000 6386.28613281   619018.18750000 488456.18750000 
0.14200    18403528.00000000 11765873.00000000 29416894.00000000 6295.11376953   610902.25000000 481968.40625000 
0.14300    18229246.00000000 11653599.00000000 29137284.00000000 6203.57666016   602828.50000000 475515.12500000 
0.14400    18056532.00000000 11542469.00000000 28860208.00000000 6111.54150391   594770.50000000 469089.15625000 
0.14500    17885208.00000000 11432416.00000000 28585612.00000000 6018.95312500   586724.50000000 462682.28125000 
0.14600    17714838.00000000 11323209.00000000 28312848.00000000 5925.80126953   578679.37500000 456278.90625000 
0.14700    17545344.00000000 11214703.00000000 28041564.00000000 5831.92919922   570626.81250000 449879.71875000 
0.14800    17376188.00000000 11106637.00000000 27771286.00000000 5737.32861328   562551.68750000 443468.03125000 
0.14900    17207358.00000000 10998912.00000000 27501814.00000000 5642.00976562   554449.00000000 437046.50000000 
0.15000    17038532.00000000 10891490.00000000 27232412.00000000 5545.94824219   546313.43750000 430599.93750000 
0.15100    16869580.00000000 10784105.00000000 26963170.00000000 5449.18261719   538138.81250000 424131.46875000 
0.15200    16700393.00000000 10676802.00000000 26693660.00000000 5351.69726562   529927.50000000 417638.15625000 
0.15300    16530653.00000000 10569303.00000000 26423620.00000000 5253.52294922   521664.18750000 411112.62500000 
0.15400    16360195.00000000 10461533.00000000 26152566.00000000 5154.61767578   513350.75000000 404549.12500000 
0.15500    16189132.00000000 10353512.00000000 25880762.00000000 5055.16210938   504989.46875000 397956.59375000 
0.15600    16017034.00000000 10245100.00000000 25607678.00000000 4955.11083984   496571.56250000 391321.43750000 
0.15700    15844058.00000000 10136229.00000000 25333348.00000000 4854.65527344   488106.53125000 384652.96875000 
0.15800    15670039.00000000 10026798.00000000 25057372.00000000 4753.68896484   479586.68750000 377946.75000000 
0.15900    15494851.00000000 9916897.00000000 24780004.00000000 4652.44384766   471019.31250000 371207.21875000 
0.16000    15318544.00000000 9806316.00000000 24500816.00000000 4550.91894531   462400.40625000 364428.84375000 
0.16100    15141105.00000000 9695221.00000000 24220098.00000000 4449.26904297   453742.31250000 357621.84375000 
0.16200    14962402.00000000 9583370.00000000 23937384.00000000 4347.50390625   445037.40625000 350782.68750000 
0.16300    14782451.00000000 9470908.00000000 23652926.00000000 4245.80810547   436298.62500000 343914.00000000 
0.16400    14601362.00000000 9357767.00000000 23366758.00000000 4144.27783203   427523.53125000 337024.50000000 
0.16500    14418948.00000000 9243991.00000000 23078716.00000000 4042.99340820   418721.90625000 330110.28125000 
0.16600    14235431.00000000 9129495.00000000 22788934.00000000 3942.02319336   409896.78125000 323181.87500000 
0.16700    14050653.00000000 9014394.00000000 22497338.00000000 3841.53686523   401052.50000000 316237.65625000 
0.16800    13864840.00000000 8898589.00000000 22204002.00000000 3741.59667969   392195.81250000 309283.12500000 
0.16900    13678059.00000000 8782325.00000000 21909330.00000000 3642.40039062   383337.84375000 302328.81250000 
0.17000    13490265.00000000 8665447.00000000 21613102.00000000 3543.97143555   374479.06250000 295373.40625000 
