# SAXS profile: number of points = 501, q_min = 0, q_max = 0.5, delta_q = 0.001
#    q    intensity 
0.00000    162232048.00000000 101201744.00000000 256270336.00000000 104952.97656250 8252887.00000000 6518075.00000000 
0.00100    162197696.00000000 101177088.00000000 256208784.00000000 104919.60156250 8250573.50000000 6516278.00000000 
0.00200    162085024.00000000 101105224.00000000 256025952.00000000 104821.91406250 8243663.50000000 6510881.00000000 
0.00300    161894448.00000000 100985792.00000000 255719984.00000000 104658.41406250 8232165.50000000 6501870.00000000 
0.00400    161619120.00000000 100816752.00000000 255290720.00000000 104430.76562500 8216142.00000000 6489257.00000000 
0.00500    161266016.00000000 100601496.00000000 254741376.00000000 104138.14843750 8195612.50000000 6473083.50000000 
0.00600    160838480.00000000 100337768.00000000 254070528.00000000 103782.07812500 8170532.50000000 6453466.00000000 
0.00700    160332144.00000000 100028672.00000000 253282528.00000000 103363.78125000 8141090.00000000 6430278.00000000 
0.00800    159752592.00000000 99673592.00000000 252374928.00000000 102882.55468750 8107244.00000000 6403688.50000000 
0.00900    159099296.00000000 99273584.00000000 251353056.00000000 102341.64843750 8069095.00000000 6373694.50000000 
0.01000    158376512.00000000 98827984.00000000 250216384.00000000 101739.87500000 8026749.50000000 6340448.50000000 
0.01100    157583712.00000000 98338152.00000000 248966160.00000000 101080.40625000 7980236.00000000 6303856.50000000 
0.01200    156714544.00000000 97804176.00000000 247607424.00000000 100364.50781250 7929671.00000000 6264154.00000000 
0.01300    155778112.00000000 97228624.00000000 246138960.00000000 99592.82031250  7875166.50000000 6221322.50000000 
0.01400    154777184.00000000 96611832.00000000 244566064.00000000 98768.02343750  7816787.50000000 6175422.00000000 
0.01500    153709264.00000000 95955008.00000000 242891056.00000000 97891.07812500  7754741.00000000 6126667.50000000 
0.01600    152577712.00000000 95258672.00000000 241118448.00000000 96964.07031250  7689040.50000000 6075050.50000000 
0.01700    151384128.00000000 94524688.00000000 239245808.00000000 95989.53125000  7619892.50000000 6020677.00000000 
0.01800    150134304.00000000 93753360.00000000 237280368.00000000 94969.32812500  7547379.00000000 5963667.50000000 
0.01900    148825872.00000000 92947008.00000000 235225328.00000000 93904.28906250  7471693.50000000 5904221.50000000 
0.02000    147460176.00000000 92106824.00000000 233083600.00000000 92799.10937500  7392925.50000000 5842266.50000000 
0.02100    146042032.00000000 91233360.00000000 230858480.00000000 91653.22656250  7311220.00000000 5778008.00000000 
0.02200    144573472.00000000 90328552.00000000 228552192.00000000 90471.37500000  7226763.50000000 5711593.50000000 
0.02300    143057392.00000000 89394288.00000000 226170416.00000000 89254.19531250  7139682.50000000 5643102.50000000 
0.02400    141495184.00000000 88430640.00000000 223715888.00000000 88004.81250000  7050144.50000000 5572719.50000000 
0.02500    139889744.00000000 87439568.00000000 221194896.00000000 86726.64843750  6958317.00000000 5500509.00000000 
0.02600    138243472.00000000 86423464.00000000 218607840.00000000 85419.96875000  6864357.50000000 5426561.00000000 
0.02700    136558032.00000000 85383768.00000000 215960720.00000000 84088.74218750  6768495.00000000 5351090.00000000 
0.02800    134836784.00000000 84321704.00000000 213257184.00000000 82735.52343750  6670734.00000000 5274229.00000000 
0.02900    133084112.00000000 83239328.00000000 210501104.00000000 81362.29687500  6571321.00000000 5195991.50000000 
0.03000    131300184.00000000 82136440.00000000 207697104.00000000 79970.51562500  6470475.00000000 5116620.00000000 
0.03100    129488040.00000000 81016808.00000000 204846352.00000000 78564.60156250  6368331.50000000 5036219.00000000 
0.03200    127650792.00000000 79880992.00000000 201956736.00000000 77145.73437500  6264984.00000000 4954897.00000000 
0.03300    125791120.00000000 78731560.00000000 199034608.00000000 75716.53906250  6160699.00000000 4872745.50000000 
0.03400    123911000.00000000 77570048.00000000 196076992.00000000 74279.73437500  6055553.50000000 4790004.00000000 
0.03500    122013512.00000000 76395960.00000000 193092304.00000000 72837.17187500  5949723.00000000 4706681.00000000 
0.03600    120101768.00000000 75212144.00000000 190082480.00000000 71391.50781250  5843418.00000000 4622949.00000000 
0.03700    118176544.00000000 74020304.00000000 187053296.00000000 69944.10937500  5736735.50000000 4538868.50000000 
0.03800    116242936.00000000 72822056.00000000 184009072.00000000 68497.09375000  5629812.00000000 4454617.50000000 
0.03900    114301224.00000000 71618744.00000000 180951968.00000000 67053.66406250  5522796.50000000 4370331.00000000 
0.04000    112354152.00000000 70412120.00000000 177884624.00000000 65615.46875000  5415884.00000000 4286064.50000000 
0.04100    110404776.00000000 69202504.00000000 174816320.00000000 64183.06640625  5309169.00000000 4201949.50000000 
0.04200    108454440.00000000 67993512.00000000 171745312.00000000 62759.96875000  5202759.50000000 4118058.50000000 
0.04300    106507632.00000000 66784116.00000000 168674928.00000000 61346.85937500  5096832.50000000 4034554.50000000 
0.04400    104563392.00000000 65577284.00000000 165612064.00000000 59945.89843750  4991493.00000000 3951474.75000000 
0.04500    102626464.00000000 64374056.00000000 162557760.00000000 58558.27734375  4886853.50000000 3868951.50000000 
0.04600    100697136.00000000 63174644.00000000 159515072.00000000 57186.25000000  4783038.00000000 3787025.00000000 
0.04700    98777984.00000000 61981768.00000000 156489824.00000000 55830.19531250  4680134.00000000 3705843.50000000 
0.04800    96870552.00000000 60795892.00000000 153482096.00000000 54491.84375000  4578207.00000000 3625435.50000000 
0.04900    94977208.00000000 59618140.00000000 150494400.00000000 53172.71875000  4477437.50000000 3545909.75000000 
0.05000    93100168.00000000 58449600.00000000 147531216.00000000 51873.12890625  4377845.50000000 3467278.75000000 
0.05100    91239040.00000000 57291140.00000000 144596032.00000000 50594.55468750  4279507.50000000 3389661.50000000 
0.05200    89397664.00000000 56143708.00000000 141689184.00000000 49337.96484375  4182577.75000000 3313093.25000000 
0.05300    87576320.00000000 55009116.00000000 138812928.00000000 48103.73828125  4087041.75000000 3237672.50000000 
0.05400    85777072.00000000 53887000.00000000 135971344.00000000 46892.89453125  3993006.75000000 3163362.50000000 
0.05500    83999720.00000000 52778632.00000000 133164848.00000000 45706.27734375  3900484.25000000 3090294.50000000 
0.05600    82246552.00000000 51685520.00000000 130397024.00000000 44543.70312500  3809588.25000000 3018486.75000000 
0.05700    80519712.00000000 50607440.00000000 127667320.00000000 43406.32812500  3720327.75000000 2947935.00000000 
0.05800    78818712.00000000 49545412.00000000 124979040.00000000 42293.92968750  3632743.50000000 2878696.50000000 
0.05900    77144176.00000000 48499736.00000000 122332712.00000000 41207.11718750  3546886.50000000 2810841.50000000 
0.06000    75498176.00000000 47471724.00000000 119731832.00000000 40146.00390625  3462771.00000000 2744331.75000000 
0.06100    73880928.00000000 46460996.00000000 117175120.00000000 39110.22265625  3380431.75000000 2679209.25000000 
0.06200    72293632.00000000 45468508.00000000 114664424.00000000 38100.72265625  3299867.50000000 2615494.25000000 
0.06300    70736232.00000000 44494864.00000000 112201336.00000000 37116.93750000  3221078.25000000 2553222.50000000 
0.06400    69209656.00000000 43539796.00000000 109785864.00000000 36158.40234375  3144120.25000000 2492321.00000000 
0.06500    67714192.00000000 42603864.00000000 107419800.00000000 35225.56250000  3068989.75000000 2432855.00000000 
0.06600    66248968.00000000 41687416.00000000 105102968.00000000 34317.88671875  2995655.75000000 2374832.75000000 
0.06700    64816020.00000000 40790540.00000000 102835872.00000000 33434.93359375  2924098.50000000 2318218.75000000 
0.06800    63416004.00000000 39913352.00000000 100618824.00000000 32576.92968750  2854363.25000000 2263024.00000000 
0.06900    62047184.00000000 39056700.00000000 98452624.00000000 31743.27148438  2786419.75000000 2209239.50000000 
0.07000    60710704.00000000 38219568.00000000 96337864.00000000 30933.08007812  2720223.00000000 2156828.25000000 
0.07100    59406136.00000000 37402512.00000000 94273048.00000000 30146.35742188  2655785.25000000 2105808.25000000 
0.07200    58133576.00000000 36605632.00000000 92258280.00000000 29382.45898438  2593056.75000000 2056149.37500000 
0.07300    56893156.00000000 35828456.00000000 90294448.00000000 28641.05664062  2532054.50000000 2007845.12500000 
0.07400    55684492.00000000 35071284.00000000 88381752.00000000 27921.50976562  2472692.25000000 1960849.50000000 
0.07500    54507432.00000000 34334064.00000000 86518848.00000000 27223.07031250  2414991.75000000 1915157.00000000 
0.07600    53361524.00000000 33616352.00000000 84704312.00000000 26545.40429688  2358902.25000000 1870739.50000000 
0.07700    52246596.00000000 32918362.00000000 82939488.00000000 25887.63281250  2304397.00000000 1827556.50000000 
0.07800    51162496.00000000 32239522.00000000 81223568.00000000 25249.55664062  2251418.75000000 1785608.50000000 
0.07900    50108804.00000000 31579466.00000000 79555736.00000000 24630.15820312  2199959.25000000 1744852.00000000 
0.08000    49084344.00000000 30938350.00000000 77934224.00000000 24028.94531250  2149954.50000000 1705242.37500000 
0.08100    48089108.00000000 30315850.00000000 76359544.00000000 23445.44335938  2101365.25000000 1666776.12500000 
0.08200    47123080.00000000 29711292.00000000 74831688.00000000 22879.01757812  2054190.62500000 1629415.12500000 
0.08300    46184648.00000000 29124878.00000000 73347904.00000000 22328.88085938  2008328.37500000 1593112.00000000 
0.08400    45274540.00000000 28555798.00000000 71908184.00000000 21794.72460938  1963794.75000000 1557838.00000000 
0.08500    44391220.00000000 28003942.00000000 70511816.00000000 21275.55078125  1920528.37500000 1523592.50000000 
0.08600    43534152.00000000 27468924.00000000 69157936.00000000 20771.23242188  1878510.75000000 1490310.00000000 
0.08700    42703024.00000000 26950338.00000000 67844496.00000000 20281.00000000  1837640.37500000 1457971.75000000 
0.08800    41897168.00000000 26447680.00000000 66571740.00000000 19804.12500000  1797946.00000000 1426542.87500000 
0.08900    41116116.00000000 25960848.00000000 65337356.00000000 19340.53515625  1759362.75000000 1395981.25000000 
0.09000    40358904.00000000 25488980.00000000 64142300.00000000 18889.37109375  1721826.62500000 1366305.25000000 
0.09100    39624932.00000000 25032166.00000000 62983664.00000000 18450.17773438  1685349.87500000 1337430.12500000 
0.09200    38913208.00000000 24589684.00000000 61861572.00000000 18022.57031250  1649835.62500000 1309337.37500000 
0.09300    38223564.00000000 24161206.00000000 60773944.00000000 17605.88867188  1615303.87500000 1282009.62500000 
0.09400    37555288.00000000 23746184.00000000 59720536.00000000 17200.25976562  1581682.12500000 1255423.25000000 
0.09500    36907308.00000000 23344352.00000000 58699724.00000000 16804.63281250  1548958.25000000 1229534.50000000 
0.09600    36279272.00000000 22955204.00000000 57710948.00000000 16418.95117188  1517088.25000000 1204329.25000000 
0.09700    35670644.00000000 22578330.00000000 56752996.00000000 16042.89355469  1486031.37500000 1179780.25000000 
0.09800    35080184.00000000 22213500.00000000 55824260.00000000 15676.03417969  1455777.12500000 1155860.12500000 
0.09900    34508124.00000000 21859922.00000000 54924764.00000000 15318.01562500  1426286.87500000 1132545.87500000 
0.10000    33953188.00000000 21517300.00000000 54051808.00000000 14968.55761719  1397532.37500000 1109815.00000000 
0.10100    33414804.00000000 21185478.00000000 53206164.00000000 14627.23046875  1369483.62500000 1087643.62500000 
0.10200    32892392.00000000 20863650.00000000 52385968.00000000 14294.09277344  1342113.75000000 1066026.75000000 
0.10300    32385250.00000000 20551526.00000000 51589912.00000000 13968.73925781  1315401.00000000 1044903.81250000 
0.10400    31892870.00000000 20248980.00000000 50817536.00000000 13650.93554688  1289320.62500000 1024298.37500000 
0.10500    31414674.00000000 19955522.00000000 50068048.00000000 13340.48144531  1263842.25000000 1004178.37500000 
0.10600    30950120.00000000 19670502.00000000 49339720.00000000 13037.08886719  1238959.87500000 984512.00000000 
0.10700    30498590.00000000 19393724.00000000 48632720.00000000 12740.80468750  1214651.00000000 965308.06250000 
0.10800    30059314.00000000 19125076.00000000 47945348.00000000 12451.12207031  1190878.62500000 946524.18750000 
0.10900    29632114.00000000 18863724.00000000 47276660.00000000 12168.20117188  1167635.00000000 928170.25000000 
0.11000    29216542.00000000 18609588.00000000 46626404.00000000 11891.81933594  1144916.00000000 910216.56250000 
0.11100    28811588.00000000 18362478.00000000 45993200.00000000 11621.70214844  1122680.75000000 892656.00000000 
0.11200    28417026.00000000 18121768.00000000 45376696.00000000 11357.92871094  1100948.25000000 875469.75000000 
0.11300    28032530.00000000 17887376.00000000 44776024.00000000 11100.15136719  1079652.62500000 858650.18750000 
0.11400    27657532.00000000 17658668.00000000 44190248.00000000 10848.47851562  1058827.37500000 842192.68750000 
0.11500    27291508.00000000 17435736.00000000 43618468.00000000 10602.56835938  1038436.25000000 826079.87500000 
0.11600    26934100.00000000 17218146.00000000 43060212.00000000 10362.54589844  1018486.68750000 810303.93750000 
0.11700    26584894.00000000 17005504.00000000 42515212.00000000 10128.19921875  998933.62500000 794854.37500000 
0.11800    26243238.00000000 16797868.00000000 41981612.00000000 9899.32226562   979789.12500000 779711.50000000 
0.11900    25909186.00000000 16594593.00000000 41460360.00000000 9675.95019531   961043.43750000 764887.81250000 
0.12000    25582088.00000000 16395527.00000000 40949640.00000000 9458.02734375   942662.18750000 750354.62500000 
0.12100    25261750.00000000 16200666.00000000 40449308.00000000 9245.37500000   924676.06250000 736120.87500000 
0.12200    24947734.00000000 16009343.00000000 39958744.00000000 9037.84765625   907045.68750000 722168.12500000 
0.12300    24639654.00000000 15821678.00000000 39477440.00000000 8835.47558594   889764.68750000 708494.56250000 
0.12400    24337252.00000000 15637498.00000000 39005572.00000000 8638.00195312   872836.68750000 695083.81250000 
0.12500    24040148.00000000 15456422.00000000 38541276.00000000 8445.51269531   856238.37500000 681939.68750000 
0.12600    23748258.00000000 15278234.00000000 38084760.00000000 8257.77539062   839977.25000000 669056.06250000 
0.12700    23461220.00000000 15102941.00000000 37635812.00000000 8074.69384766   824027.37500000 656420.50000000 
0.12800    23178546.00000000 14930159.00000000 37193328.00000000 7896.19433594   808394.37500000 644024.12500000 
0.12900    22900188.00000000 14759808.00000000 36757584.00000000 7722.18945312   793067.18750000 631864.18750000 
0.13000    22626004.00000000 14591857.00000000 36328328.00000000 7552.46728516   778030.81250000 619943.37500000 
0.13100    22355492.00000000 14425914.00000000 35904480.00000000 7387.06396484   763288.06250000 608240.18750000 
0.13200    22088736.00000000 14261985.00000000 35486016.00000000 7225.75097656   748825.68750000 596761.87500000 
0.13300    21824988.00000000 14099877.00000000 35072604.00000000 7068.45898438   734635.12500000 585493.00000000 
0.13400    21564940.00000000 13939604.00000000 34663732.00000000 6915.00634766   720712.00000000 574432.37500000 
0.13500    21307780.00000000 13780875.00000000 34259464.00000000 6765.38623047   707050.12500000 563576.68750000 
0.13600    21053168.00000000 13623563.00000000 33859276.00000000 6619.31933594   693641.93750000 552913.81250000 
0.13700    20801398.00000000 13467690.00000000 33462872.00000000 6476.88330078   680474.12500000 542443.50000000 
0.13800    20551994.00000000 13312969.00000000 33069830.00000000 6337.71777344   667546.25000000 532162.43750000 
0.13900    20305038.00000000 13159673.00000000 32680572.00000000 6201.96679688   654853.75000000 522054.21875000 
0.14000    20060258.00000000 13007375.00000000 32294300.00000000 6069.30419922   642382.81250000 512127.87500000 
0.14100    19817622.00000000 12856056.00000000 31911232.00000000 5939.69726562   630132.37500000 502370.78125000 
0.14200    19577112.00000000 12705773.00000000 31530424.00000000 5813.04492188   618084.25000000 492776.34375000 
0.14300    19338154.00000000 12556288.00000000 31152506.00000000 5689.15771484   606247.00000000 483342.09375000 
0.14400    19101092.00000000 12407524.00000000 30777030.00000000 5567.98535156   594606.62500000 474062.68750000 
0.14500    18865368.00000000 12259667.00000000 30403734.00000000 5449.42431641   583164.00000000 464934.46875000 
0.14600    18631694.00000000 12112516.00000000 30032726.00000000 5333.28857422   571896.62500000 455950.50000000 
0.14700    18399230.00000000 11966007.00000000 29663608.00000000 5219.62939453   560821.75000000 447109.75000000 
0.14800    18168206.00000000 11820202.00000000 29296326.00000000 5108.14794922   549911.18750000 438403.15625000 
0.14900    17938648.00000000 11674925.00000000 28931154.00000000 4998.88281250   539172.75000000 429827.68750000 
0.15000    17710196.00000000 11530165.00000000 28567310.00000000 4891.70654297   528595.25000000 421381.62500000 
0.15100    17483064.00000000 11386016.00000000 28205534.00000000 4786.57275391   518177.93750000 413056.25000000 
0.15200    17256988.00000000 11242389.00000000 27845316.00000000 4683.31250000   507911.87500000 404855.68750000 
0.15300    17032270.00000000 11099217.00000000 27486472.00000000 4581.96240234   497800.37500000 396772.34375000 
0.15400    16808468.00000000 10956512.00000000 27129098.00000000 4482.32470703   487825.31250000 388799.40625000 
0.15500    16586146.00000000 10814303.00000000 26773452.00000000 4384.51318359   477992.50000000 380938.75000000 
0.15600    16364629.00000000 10672629.00000000 26419306.00000000 4288.28515625   468296.37500000 373183.68750000 
0.15700    16144129.00000000 10531461.00000000 26066346.00000000 4193.76757812   458738.34375000 365535.18750000 
0.15800    15924677.00000000 10390743.00000000 25715078.00000000 4100.72167969   449302.37500000 357987.53125000 
0.15900    15706348.00000000 10250597.00000000 25365048.00000000 4009.25195312   439998.25000000 350540.87500000 
0.16000    15489079.00000000 10110828.00000000 25016570.00000000 3919.28271484   430815.68750000 343187.84375000 
0.16100    15272856.00000000 9971695.00000000 24669880.00000000 3830.79321289   421752.62500000 335933.12500000 
0.16200    15057732.00000000 9833002.00000000 24324418.00000000 3743.77392578   412814.50000000 328773.31250000 
0.16300    14843747.00000000 9694942.00000000 23980664.00000000 3658.14355469   403992.31250000 321704.68750000 
0.16400    14630954.00000000 9557496.00000000 23638720.00000000 3573.96166992   395280.12500000 314728.65625000 
0.16500    14419169.00000000 9420594.00000000 23298276.00000000 3491.18408203   386688.25000000 307843.40625000 
0.16600    14208626.00000000 9284350.00000000 22959752.00000000 3409.81494141   378209.15625000 301048.28125000 
0.16700    13999212.00000000 9148751.00000000 22622610.00000000 3329.83300781   369839.75000000 294340.84375000 
0.16800    13791051.00000000 9013852.00000000 22287578.00000000 3251.26831055   361581.93750000 287721.87500000 
0.16900    13584237.00000000 8879739.00000000 21954728.00000000 3174.13232422   353436.78125000 281188.96875000 
0.17000    13378801.00000000 8746283.00000000 21623572.00000000 3098.40698242   345402.87500000 274746.43750000 
