# SAXS profile: number of points = 501, q_min = 0, q_max = 0.5, delta_q = 0.001
#    q    intensity 
0.00000    162238160.00000000 101202168.00000000 256271440.00000000 97568.64062500  7957254.00000000 6284603.00000000 
0.00100    162213472.00000000 101186224.00000000 256231056.00000000 97546.70312500  7955713.50000000 6283411.50000000 
0.00200    162136752.00000000 101138776.00000000 256109920.00000000 97480.50000000  7951095.50000000 6279799.50000000 
0.00300    162008448.00000000 101059432.00000000 255908032.00000000 97369.71093750  7943401.50000000 6273769.50000000 
0.00400    161828592.00000000 100948960.00000000 255627360.00000000 97215.18750000  7932660.50000000 6265310.50000000 
0.00500    161596896.00000000 100807728.00000000 255263904.00000000 97016.37500000  7918851.50000000 6254492.50000000 
0.00600    161313728.00000000 100633888.00000000 254821264.00000000 96775.04687500  7902028.50000000 6241319.00000000 
0.00700    160980000.00000000 100430072.00000000 254300592.00000000 96489.50781250  7882154.50000000 6225720.00000000 
0.00800    160596928.00000000 100194520.00000000 253699072.00000000 96161.64843750  7859326.00000000 6207824.50000000 
0.00900    160163616.00000000 99929008.00000000 253021472.00000000 95791.25000000  7833502.00000000 6187552.00000000 
0.01000    159678944.00000000 99632920.00000000 252264832.00000000 95378.38281250  7804741.50000000 6164994.00000000 
0.01100    159145520.00000000 99306976.00000000 251432800.00000000 94925.25000000  7773101.50000000 6140182.00000000 
0.01200    158566048.00000000 98951384.00000000 250522416.00000000 94430.42968750  7738568.50000000 6113105.00000000 
0.01300    157937776.00000000 98566424.00000000 249538352.00000000 93895.88281250  7701238.50000000 6083820.50000000 
0.01400    157263552.00000000 98152192.00000000 248480944.00000000 93321.82812500  7661114.50000000 6052353.00000000 
0.01500    156541024.00000000 97709456.00000000 247349920.00000000 92709.34375000  7618249.00000000 6018715.00000000 
0.01600    155773152.00000000 97238504.00000000 246146704.00000000 92058.06250000  7572717.50000000 5982994.00000000 
0.01700    154959216.00000000 96739888.00000000 244872464.00000000 91371.06250000  7524525.00000000 5945206.00000000 
0.01800    154101152.00000000 96214160.00000000 243530480.00000000 90646.94531250  7473759.50000000 5905382.00000000 
0.01900    153200256.00000000 95661496.00000000 242118576.00000000 89887.98437500  7420473.50000000 5863566.00000000 
0.02000    152256752.00000000 95083096.00000000 240640560.00000000 89094.57812500  7364713.00000000 5819827.00000000 
0.02100    151272176.00000000 94478824.00000000 239098256.00000000 88268.03906250  7306581.50000000 5774202.50000000 
0.02200    150246448.00000000 93849744.00000000 237491504.00000000 87409.52343750  7246078.50000000 5726743.00000000 
0.02300    149180528.00000000 93196184.00000000 235822048.00000000 86519.75000000  7183332.50000000 5677498.00000000 
0.02400    148076656.00000000 92518520.00000000 234092096.00000000 85600.21093750  7118374.50000000 5626532.00000000 
0.02500    146934496.00000000 91817888.00000000 232302800.00000000 84651.63281250  7051313.50000000 5573887.00000000 
0.02600    145756320.00000000 91095392.00000000 230457952.00000000 83675.63281250  6982167.50000000 5519603.00000000 
0.02700    144542528.00000000 90350648.00000000 228556240.00000000 82673.46093750  6911060.00000000 5463805.50000000 
0.02800    143295744.00000000 89584872.00000000 226600624.00000000 81645.28906250  6838068.00000000 5406493.00000000 
0.02900    142015072.00000000 88798712.00000000 224594208.00000000 80593.89843750  6763238.50000000 5347735.50000000 
0.03000    140702864.00000000 87992768.00000000 222537136.00000000 79519.90625000  6686660.00000000 5287613.50000000 
0.03100    139359472.00000000 87168216.00000000 220431920.00000000 78423.75781250  6608426.50000000 5226197.50000000 
0.03200    137987008.00000000 86325088.00000000 218281472.00000000 77308.08593750  6528614.50000000 5163535.00000000 
0.03300    136586608.00000000 85465184.00000000 216085408.00000000 76173.74218750  6447333.00000000 5099681.00000000 
0.03400    135160208.00000000 84587816.00000000 213847904.00000000 75022.53125000  6364589.00000000 5034727.50000000 
0.03500    133707000.00000000 83695584.00000000 211571712.00000000 73854.19531250  6280599.50000000 4968723.00000000 
0.03600    132230576.00000000 82787992.00000000 209256112.00000000 72671.46875000  6195305.50000000 4901742.00000000 
0.03700    130730584.00000000 81866312.00000000 206904080.00000000 71475.94531250  6108890.00000000 4833814.50000000 
0.03800    129209904.00000000 80931104.00000000 204518768.00000000 70267.82031250  6021406.00000000 4765071.50000000 
0.03900    127668552.00000000 79982816.00000000 202101280.00000000 69048.99218750  5932936.00000000 4695584.00000000 
0.04000    126108536.00000000 79023488.00000000 199653520.00000000 67820.95312500  5843608.50000000 4625360.50000000 
0.04100    124531008.00000000 78053368.00000000 197179056.00000000 66585.41406250  5753457.00000000 4554509.00000000 
0.04200    122937264.00000000 77072792.00000000 194678896.00000000 65342.81640625  5662567.00000000 4483076.00000000 
0.04300    121328840.00000000 76082752.00000000 192155136.00000000 64094.97656250  5571083.00000000 4411124.00000000 
0.04400    119707288.00000000 75084064.00000000 189610112.00000000 62842.90625000  5479037.50000000 4338770.50000000 
0.04500    118073432.00000000 74078024.00000000 187045840.00000000 61588.50390625  5386527.00000000 4266026.00000000 
0.04600    116428976.00000000 73065232.00000000 184463472.00000000 60332.42187500  5293649.50000000 4192978.25000000 
0.04700    114775024.00000000 72046096.00000000 181866928.00000000 59076.23828125  5200504.00000000 4119716.25000000 
0.04800    113113072.00000000 71022032.00000000 179258752.00000000 57821.03125000  5107136.00000000 4046271.00000000 
0.04900    111444024.00000000 69994376.00000000 176638144.00000000 56568.19140625  5013671.50000000 3972713.00000000 
0.05000    109769752.00000000 68962104.00000000 174008144.00000000 55318.68359375  4920120.00000000 3899101.25000000 
0.05100    108091600.00000000 67926848.00000000 171371600.00000000 54073.73828125  4826638.00000000 3825518.25000000 
0.05200    106410288.00000000 66889232.00000000 168729632.00000000 52834.71484375  4733257.00000000 3752006.25000000 
0.05300    104727296.00000000 65850604.00000000 166085968.00000000 51602.43359375  4640035.00000000 3678661.00000000 
0.05400    103043672.00000000 64811936.00000000 163441328.00000000 50378.12890625  4547152.00000000 3605478.00000000 
0.05500    101361064.00000000 63772852.00000000 160797024.00000000 49162.66796875  4454577.00000000 3532565.00000000 
0.05600    99680504.00000000 62734704.00000000 158155184.00000000 47957.49609375  4362419.00000000 3459962.00000000 
0.05700    98003608.00000000 61698432.00000000 155518144.00000000 46763.29296875  4270715.00000000 3387739.25000000 
0.05800    96330144.00000000 60664536.00000000 152887872.00000000 45580.66406250  4179576.00000000 3315924.25000000 
0.05900    94662504.00000000 59633620.00000000 150264928.00000000 44410.89453125  4089044.25000000 3244575.50000000 
0.06000    93001168.00000000 58606168.00000000 147651856.00000000 43255.00000000  3999205.00000000 3173762.25000000 
0.06100    91347504.00000000 57583120.00000000 145050048.00000000 42113.35156250  3910110.75000000 3103505.00000000 
0.06200    89702800.00000000 56565416.00000000 142461728.00000000 40987.12890625  3821790.75000000 3033873.75000000 
0.06300    88067816.00000000 55552932.00000000 139888640.00000000 39876.90625000  3734353.00000000 2964901.75000000 
0.06400    86443160.00000000 54546836.00000000 137331408.00000000 38783.23437500  3647801.00000000 2896615.25000000 
0.06500    84829824.00000000 53547448.00000000 134791664.00000000 37706.87890625  3562242.00000000 2829111.75000000 
0.06600    83229208.00000000 52555328.00000000 132271104.00000000 36648.68750000  3477683.75000000 2762371.25000000 
0.06700    81641744.00000000 51570944.00000000 129771632.00000000 35608.87890625  3394185.00000000 2696431.00000000 
0.06800    80068752.00000000 50595604.00000000 127293576.00000000 34588.00000000  3311780.75000000 2631381.00000000 
0.06900    78510912.00000000 49628752.00000000 124839112.00000000 33586.88281250  3230537.50000000 2567202.75000000 
0.07000    76968376.00000000 48671296.00000000 122408336.00000000 32605.90625000  3150483.00000000 2503958.25000000 
0.07100    75442824.00000000 47723696.00000000 120003240.00000000 31645.03906250  3071637.75000000 2441668.25000000 
0.07200    73934144.00000000 46786428.00000000 117624744.00000000 30705.21093750  2994060.75000000 2380348.00000000 
0.07300    72443464.00000000 45859832.00000000 115273888.00000000 29786.51367188  2917781.75000000 2320042.50000000 
0.07400    70971144.00000000 44944584.00000000 112951888.00000000 28888.82421875  2842818.75000000 2260769.75000000 
0.07500    69518336.00000000 44040428.00000000 110659880.00000000 28012.67578125  2769205.50000000 2202522.50000000 
0.07600    68084904.00000000 43148372.00000000 108398296.00000000 27158.44531250  2696969.25000000 2145367.00000000 
0.07700    66672356.00000000 42268464.00000000 106168096.00000000 26326.26367188  2626124.00000000 2089303.12500000 
0.07800    65279852.00000000 41401056.00000000 103970168.00000000 25515.89062500  2556682.50000000 2034332.87500000 
0.07900    63908760.00000000 40546360.00000000 101804752.00000000 24727.67382812  2488684.50000000 1980475.87500000 
0.08000    62559408.00000000 39704804.00000000 99673224.00000000 23961.70312500  2422126.00000000 1927747.25000000 
0.08100    61231692.00000000 38876376.00000000 97575416.00000000 23217.82226562  2357022.50000000 1876165.87500000 
0.08200    59926480.00000000 38061468.00000000 95512472.00000000 22495.86914062  2293382.50000000 1825717.37500000 
0.08300    58643716.00000000 37260336.00000000 93485040.00000000 21795.98632812  2231223.50000000 1776433.00000000 
0.08400    57383856.00000000 36472792.00000000 91492528.00000000 21117.95898438  2170540.00000000 1728303.12500000 
0.08500    56147148.00000000 35699680.00000000 89537016.00000000 20461.78125000  2111337.00000000 1681330.75000000 
0.08600    54933844.00000000 34940328.00000000 87616696.00000000 19827.03515625  2053602.62500000 1635520.37500000 
0.08700    53743752.00000000 34195388.00000000 85733840.00000000 19213.67187500  1997364.75000000 1590868.75000000 
0.08800    52577340.00000000 33464808.00000000 83887272.00000000 18621.45898438  1942598.37500000 1547369.25000000 
0.08900    51434572.00000000 32748520.00000000 82077672.00000000 18049.95507812  1889291.87500000 1505023.25000000 
0.09000    50315776.00000000 32046776.00000000 80305344.00000000 17499.15039062  1837467.75000000 1463826.12500000 
0.09100    49220284.00000000 31359602.00000000 78570456.00000000 16968.55273438  1787082.75000000 1423760.75000000 
0.09200    48149092.00000000 30687108.00000000 76872192.00000000 16457.72851562  1738135.12500000 1384833.00000000 
0.09300    47101600.00000000 30028802.00000000 75211096.00000000 15966.46972656  1690627.12500000 1347022.75000000 
0.09400    46077216.00000000 29385128.00000000 73587240.00000000 15494.28613281  1644516.25000000 1310317.37500000 
0.09500    45076896.00000000 28755860.00000000 72000168.00000000 15040.84179688  1599801.25000000 1274721.12500000 
0.09600    44100040.00000000 28140978.00000000 70449576.00000000 14605.57519531  1556459.12500000 1240194.75000000 
0.09700    43146680.00000000 27540450.00000000 68936280.00000000 14188.28906250  1514482.75000000 1206742.25000000 
0.09800    42216324.00000000 26954112.00000000 67458984.00000000 13788.28222656  1473841.25000000 1174333.37500000 
0.09900    41309264.00000000 26381944.00000000 66018048.00000000 13405.24804688  1434510.50000000 1142973.37500000 
0.10000    40424688.00000000 25823772.00000000 64612392.00000000 13038.51660156  1396464.87500000 1112609.37500000 
0.10100    39562620.00000000 25279306.00000000 63242172.00000000 12687.77148438  1359682.25000000 1083245.12500000 
0.10200    38722916.00000000 24748840.00000000 61907088.00000000 12352.42089844  1324145.75000000 1054870.87500000 
0.10300    37905288.00000000 24231824.00000000 60606672.00000000 12031.96777344  1289818.62500000 1027447.12500000 
0.10400    37109060.00000000 23728134.00000000 59339764.00000000 11725.87890625  1256665.75000000 1000951.75000000 
0.10500    36334712.00000000 23237808.00000000 58107444.00000000 11433.60253906  1224684.12500000 975382.50000000 
0.10600    35581096.00000000 22760260.00000000 56907156.00000000 11154.57421875  1193810.37500000 950688.81250000 
0.10700    34848268.00000000 22295554.00000000 55740316.00000000 10888.43554688  1164045.87500000 926865.62500000 
0.10800    34135760.00000000 21843614.00000000 54605056.00000000 10634.42773438  1135338.50000000 903886.12500000 
0.10900    33443130.00000000 21403930.00000000 53501288.00000000 10392.16796875  1107665.12500000 881727.37500000 
0.11000    32770270.00000000 20976392.00000000 52428160.00000000 10161.09472656  1080992.50000000 860370.00000000 
0.11100    32116186.00000000 20560622.00000000 51385552.00000000 9940.65722656   1055299.25000000 839767.68750000 
0.11200    31481018.00000000 20156554.00000000 50371864.00000000 9730.30566406   1030534.50000000 819915.62500000 
0.11300    30864132.00000000 19763894.00000000 49387504.00000000 9529.55273438   1006682.56250000 800784.56250000 
0.11400    30265122.00000000 19382534.00000000 48431548.00000000 9337.90039062   983703.68750000 782348.75000000 
0.11500    29683570.00000000 19011730.00000000 47502804.00000000 9154.77246094   961568.75000000 764586.68750000 
0.11600    29118830.00000000 18651780.00000000 46600916.00000000 8979.74511719   940239.43750000 747464.50000000 
0.11700    28570758.00000000 18302144.00000000 45725188.00000000 8812.30957031   919693.31250000 730967.00000000 
0.11800    28038860.00000000 17962380.00000000 44874724.00000000 8651.89355469   899882.00000000 715054.68750000 
0.11900    27522422.00000000 17632498.00000000 44049012.00000000 8498.10937500   880795.93750000 699717.06250000 
0.12000    27020884.00000000 17312026.00000000 43247332.00000000 8350.53906250   862384.75000000 684919.31250000 
0.12100    26534318.00000000 17000964.00000000 42468796.00000000 8208.67871094   844623.75000000 670651.62500000 
0.12200    26061848.00000000 16698652.00000000 41712744.00000000 8072.09033203   827485.87500000 656881.25000000 
0.12300    25603038.00000000 16405054.00000000 40978644.00000000 7940.39404297   810936.43750000 643578.18750000 
0.12400    25157442.00000000 16119731.00000000 40265548.00000000 7813.15429688   794948.06250000 630723.68750000 
0.12500    24724598.00000000 15842478.00000000 39572576.00000000 7689.98583984   779490.00000000 618297.06250000 
0.12600    24304080.00000000 15573218.00000000 38899400.00000000 7570.57080078   764540.81250000 606275.06250000 
0.12700    23895454.00000000 15311336.00000000 38245144.00000000 7454.45751953   750065.62500000 594643.18750000 
0.12800    23498372.00000000 15056707.00000000 37608876.00000000 7341.40576172   736031.56250000 583362.68750000 
0.12900    23112108.00000000 14809061.00000000 36990236.00000000 7230.96923828   722426.93750000 572431.93750000 
0.13000    22736300.00000000 14568132.00000000 36388308.00000000 7122.96582031   709216.18750000 561818.06250000 
0.13100    22370554.00000000 14333569.00000000 35802700.00000000 7017.03515625   696370.50000000 551502.00000000 
0.13200    22014468.00000000 14105240.00000000 35232008.00000000 6912.90234375   683872.12500000 541467.93750000 
0.13300    21667704.00000000 13882787.00000000 34676544.00000000 6810.27001953   671700.75000000 531700.50000000 
0.13400    21329578.00000000 13665992.00000000 34135108.00000000 6708.99121094   659832.56250000 522175.59375000 
0.13500    21000016.00000000 13454600.00000000 33606984.00000000 6608.81347656   648241.37500000 512883.62500000 
0.13600    20678322.00000000 13248359.00000000 33091838.00000000 6509.50830078   636905.81250000 503801.31250000 
0.13700    20364190.00000000 13047028.00000000 32588918.00000000 6410.85791016   625814.56250000 494912.12500000 
0.13800    20057408.00000000 12850388.00000000 32097650.00000000 6312.73583984   614945.37500000 486210.71875000 
0.13900    19757542.00000000 12658225.00000000 31617354.00000000 6214.99658203   604272.43750000 477674.06250000 
0.14000    19464074.00000000 12470307.00000000 31147724.00000000 6117.44873047   593791.12500000 469293.06250000 
0.14100    19176776.00000000 12286403.00000000 30687974.00000000 6020.01318359   583477.87500000 461052.68750000 
0.14200    18895494.00000000 12106373.00000000 30237640.00000000 5922.56298828   573324.12500000 452945.03125000 
0.14300    18619546.00000000 11929919.00000000 29796346.00000000 5824.96923828   563310.43750000 444951.53125000 
0.14400    18348682.00000000 11756812.00000000 29363280.00000000 5727.20654297   553418.43750000 437062.62500000 
0.14500    18082960.00000000 11586951.00000000 28938380.00000000 5629.20898438   543648.81250000 429278.75000000 
0.14600    17821734.00000000 11420232.00000000 28521046.00000000 5530.88525391   533983.93750000 421581.75000000 
0.14700    17564880.00000000 11256452.00000000 28110668.00000000 5432.22656250   524412.00000000 413967.62500000 
0.14800    17312130.00000000 11095260.00000000 27707096.00000000 5333.17968750   514923.25000000 406422.75000000 
0.14900    17063268.00000000 10936695.00000000 27309598.00000000 5233.70361328   505514.50000000 398941.78125000 
0.15000    16817940.00000000 10780480.00000000 26918168.00000000 5133.89355469   496170.53125000 391522.21875000 
0.15100    16575942.00000000 10626645.00000000 26532286.00000000 5033.69873047   486886.90625000 384156.50000000 
0.15200    16337286.00000000 10474856.00000000 26151612.00000000 4933.15917969   477666.15625000 376840.09375000 
0.15300    16101606.00000000 10325161.00000000 25775794.00000000 4832.27490234   468492.50000000 369570.09375000 
0.15400    15868607.00000000 10177286.00000000 25404630.00000000 4731.09082031   459363.18750000 362335.87500000 
0.15500    15638315.00000000 10031219.00000000 25037918.00000000 4629.68505859   450276.43750000 355139.87500000 
0.15600    15410399.00000000 9886780.00000000 24674864.00000000 4528.02880859   441225.65625000 347978.53125000 
0.15700    15184852.00000000 9743950.00000000 24315970.00000000 4426.35449219   432217.71875000 340849.96875000 
0.15800    14961409.00000000 9602526.00000000 23960502.00000000 4324.50488281   423237.46875000 333748.78125000 
0.15900    14740006.00000000 9462545.00000000 23608376.00000000 4222.75927734   414296.93750000 326680.43750000 
0.16000    14520526.00000000 9323882.00000000 23259398.00000000 4121.04003906   405385.78125000 319639.18750000 
0.16100    14302965.00000000 9186525.00000000 22913714.00000000 4019.55786133   396510.93750000 312626.75000000 
0.16200    14087074.00000000 9050269.00000000 22570612.00000000 3918.35791016   387667.00000000 305643.43750000 
0.16300    13872744.00000000 8915159.00000000 22230354.00000000 3817.47436523   378857.93750000 298687.37500000 
0.16400    13660007.00000000 8781138.00000000 21892644.00000000 3717.08422852   370086.78125000 291762.40625000 
0.16500    13448850.00000000 8648124.00000000 21557438.00000000 3617.26879883   361353.12500000 284869.65625000 
0.16600    13239117.00000000 8516104.00000000 21224546.00000000 3518.08349609   352662.84375000 278009.09375000 
0.16700    13030721.00000000 8384947.00000000 20893978.00000000 3419.66967773   344011.18750000 271183.15625000 
0.16800    12823554.00000000 8254697.50000000 20565528.00000000 3322.09326172   335407.43750000 264391.15625000 
0.16900    12618023.00000000 8125398.50000000 20239542.00000000 3225.49780273   326854.78125000 257645.64062500 
0.17000    12413648.00000000 7996994.50000000 19915476.00000000 3129.96655273   318353.87500000 250937.76562500 
