# SAXS profile: number of points = 501, q_min = 0, q_max = 0.5, delta_q = 0.001
#    q    intensity 
0.00000    162231344.00000000 101202040.00000000 256270560.00000000 108915.81250000 8407223.00000000 6640020.00000000 
0.00100    162196560.00000000 101177488.00000000 256208576.00000000 108881.57031250 8404904.00000000 6638139.00000000 
0.00200    162085328.00000000 101105464.00000000 256027344.00000000 108780.14062500 8397863.00000000 6632695.50000000 
0.00300    161895152.00000000 100986816.00000000 255722544.00000000 108611.18750000 8386187.00000000 6623521.50000000 
0.00400    161621648.00000000 100819984.00000000 255296704.00000000 108375.52343750 8369909.50000000 6610756.00000000 
0.00500    161270960.00000000 100605584.00000000 254749888.00000000 108073.03906250 8349043.00000000 6594322.00000000 
0.00600    160844368.00000000 100343800.00000000 254083648.00000000 107704.50000000 8323578.00000000 6574382.00000000 
0.00700    160339248.00000000 100036280.00000000 253298608.00000000 107271.03906250 8293644.50000000 6550789.50000000 
0.00800    159761376.00000000 99683856.00000000 252397088.00000000 106774.00000000 8259244.50000000 6523852.00000000 
0.00900    159113200.00000000 99286784.00000000 251379424.00000000 106212.96093750 8220428.50000000 6493388.00000000 
0.01000    158392880.00000000 98845088.00000000 250248944.00000000 105591.35156250 8177386.50000000 6459571.50000000 
0.01100    157602752.00000000 98356456.00000000 249005568.00000000 104907.71093750 8130064.00000000 6422433.00000000 
0.01200    156736816.00000000 97827160.00000000 247653600.00000000 104165.41406250 8078616.00000000 6382101.00000000 
0.01300    155805152.00000000 97255312.00000000 246193328.00000000 103366.01562500 8023185.00000000 6338571.50000000 
0.01400    154806096.00000000 96642432.00000000 244630080.00000000 102511.92968750 7963770.00000000 6291954.00000000 
0.01500    153743552.00000000 95989752.00000000 242963264.00000000 101602.86718750 7900623.00000000 6242302.50000000 
0.01600    152616256.00000000 95297784.00000000 241196256.00000000 100641.25781250 7833736.50000000 6189847.00000000 
0.01700    151428496.00000000 94568784.00000000 239334352.00000000 99630.34375000  7763298.00000000 6134547.50000000 
0.01800    150180864.00000000 93801616.00000000 237378480.00000000 98571.02343750  7689512.00000000 6076581.50000000 
0.01900    148874848.00000000 93000728.00000000 235333264.00000000 97465.71875000  7612433.50000000 6016010.50000000 
0.02000    147514976.00000000 92165464.00000000 233200576.00000000 96317.57031250  7532184.50000000 5952985.00000000 
0.02100    146103408.00000000 91296512.00000000 230984864.00000000 95127.81250000  7448912.50000000 5887557.50000000 
0.02200    144638752.00000000 90396200.00000000 228688544.00000000 93898.53125000  7362824.50000000 5819947.50000000 
0.02300    143125280.00000000 89466904.00000000 226317264.00000000 92633.82812500  7274019.00000000 5750213.00000000 
0.02400    141568272.00000000 88507928.00000000 223873216.00000000 91334.12500000  7182710.00000000 5678425.50000000 
0.02500    139966592.00000000 87522800.00000000 221360576.00000000 90003.22656250  7089079.00000000 5604846.50000000 
0.02600    138324176.00000000 86511272.00000000 218783552.00000000 88643.32812500  6993178.00000000 5529456.50000000 
0.02700    136641968.00000000 85476480.00000000 216145312.00000000 87256.76562500  6895259.00000000 5452520.00000000 
0.02800    134926512.00000000 84420072.00000000 213451168.00000000 85845.09375000  6795461.00000000 5374044.00000000 
0.02900    133176696.00000000 83341448.00000000 210703600.00000000 84413.46875000  6693951.00000000 5294244.00000000 
0.03000    131396464.00000000 82243488.00000000 207906832.00000000 82961.92968750  6590871.50000000 5213224.50000000 
0.03100    129587448.00000000 81128528.00000000 205066784.00000000 81493.25000000  6486446.00000000 5131072.00000000 
0.03200    127753056.00000000 79997232.00000000 202184592.00000000 80010.76562500  6380789.00000000 5047977.00000000 
0.03300    125895640.00000000 78851976.00000000 199268832.00000000 78518.09375000  6274063.00000000 4964050.50000000 
0.03400    124018432.00000000 77693752.00000000 196318864.00000000 77014.90625000  6166539.00000000 4879409.00000000 
0.03500    122123072.00000000 76523080.00000000 193338416.00000000 75505.58593750  6058213.50000000 4794194.50000000 
0.03600    120212416.00000000 75343464.00000000 190336224.00000000 73992.19531250  5949346.50000000 4708496.50000000 
0.03700    118288696.00000000 74154392.00000000 187312352.00000000 72475.83593750  5840001.00000000 4622456.00000000 
0.03800    116355632.00000000 72958832.00000000 184270592.00000000 70959.89843750  5730408.50000000 4536195.50000000 
0.03900    114415000.00000000 71758160.00000000 181217408.00000000 69446.16406250  5620772.00000000 4449821.00000000 
0.04000    112467736.00000000 70553656.00000000 178153648.00000000 67936.66406250  5511096.00000000 4363425.00000000 
0.04100    110517488.00000000 69346600.00000000 175087008.00000000 66432.59375000  5401566.00000000 4277179.00000000 
0.04200    108568016.00000000 68138864.00000000 172016016.00000000 64937.98828125  5292386.00000000 4191163.00000000 
0.04300    106618696.00000000 66930496.00000000 168948960.00000000 63452.76562500  5183663.50000000 4105469.50000000 
0.04400    104673216.00000000 65724512.00000000 165884928.00000000 61979.62109375  5075442.50000000 4020186.75000000 
0.04500    102734056.00000000 64521796.00000000 162828144.00000000 60520.23828125  4967929.50000000 3935432.50000000 
0.04600    100802088.00000000 63322752.00000000 159784768.00000000 59075.73828125  4861201.00000000 3851300.50000000 
0.04700    98879864.00000000 62129564.00000000 156756144.00000000 57647.95312500  4755420.00000000 3767852.00000000 
0.04800    96968736.00000000 60943088.00000000 153743968.00000000 56238.34765625  4650589.00000000 3685179.25000000 
0.04900    95071968.00000000 59763892.00000000 150753840.00000000 54847.79296875  4546922.00000000 3603383.25000000 
0.05000    93189992.00000000 58594084.00000000 147786160.00000000 53477.64062500  4444409.50000000 3522502.50000000 
0.05100    91325752.00000000 57434012.00000000 144846016.00000000 52129.47656250  4343233.00000000 3442635.25000000 
0.05200    89478728.00000000 56284612.00000000 141930256.00000000 50803.81640625  4243402.00000000 3363829.50000000 
0.05300    87652416.00000000 55146844.00000000 139048240.00000000 49501.61328125  4144957.75000000 3286144.75000000 
0.05400    85846216.00000000 54022256.00000000 136198080.00000000 48223.98828125  4048098.75000000 3209634.25000000 
0.05500    84063264.00000000 52911168.00000000 133383256.00000000 46971.65625000  3952805.25000000 3134355.00000000 
0.05600    82303240.00000000 51814244.00000000 130604288.00000000 45744.69921875  3859113.25000000 3060364.75000000 
0.05700    80569520.00000000 50732224.00000000 127864600.00000000 44544.53515625  3767148.00000000 2987652.00000000 
0.05800    78861256.00000000 49665788.00000000 125165896.00000000 43370.46875000  3676882.50000000 2916310.75000000 
0.05900    77181112.00000000 48616156.00000000 122508176.00000000 42223.75781250  3588353.50000000 2846337.00000000 
0.06000    75526936.00000000 47583272.00000000 119895016.00000000 41104.42187500  3501647.75000000 2777783.75000000 
0.06100    73901544.00000000 46567640.00000000 117324648.00000000 40012.83203125  3416777.25000000 2710633.00000000 
0.06200    72306784.00000000 45570056.00000000 114801912.00000000 38948.45703125  3333773.50000000 2644952.00000000 
0.06300    70741240.00000000 44590928.00000000 112324664.00000000 37912.17187500  3252618.75000000 2580750.75000000 
0.06400    69205920.00000000 43629692.00000000 109896840.00000000 36903.66015625  3173334.00000000 2517994.50000000 
0.06500    67701944.00000000 42688092.00000000 107516128.00000000 35922.69140625  3095935.75000000 2456725.00000000 
0.06600    66229184.00000000 41765384.00000000 105184744.00000000 34968.88281250  3020398.00000000 2396923.25000000 
0.06700    64788144.00000000 40861852.00000000 102903032.00000000 34042.30859375  2946802.50000000 2338603.50000000 
0.06800    63378992.00000000 39978596.00000000 100671680.00000000 33143.05859375  2875061.50000000 2281803.75000000 
0.06900    62001648.00000000 39115500.00000000 98490816.00000000 32269.58203125  2805206.00000000 2226452.75000000 
0.07000    60656788.00000000 38271760.00000000 96360400.00000000 31422.79687500  2737194.00000000 2172561.50000000 
0.07100    59344244.00000000 37448164.00000000 94280728.00000000 30601.53125000  2671030.00000000 2120106.00000000 
0.07200    58063600.00000000 36644244.00000000 92251680.00000000 29805.79882812  2606680.25000000 2069106.75000000 
0.07300    56815224.00000000 35860628.00000000 90273360.00000000 29034.70117188  2544134.00000000 2019527.00000000 
0.07400    55599032.00000000 35096848.00000000 88346000.00000000 28287.69531250  2483367.00000000 1971331.12500000 
0.07500    54414376.00000000 34352888.00000000 86468416.00000000 27564.39843750  2424350.25000000 1924517.12500000 
0.07600    53261700.00000000 33628736.00000000 84640048.00000000 26864.23828125  2367030.75000000 1879069.12500000 
0.07700    52139768.00000000 32924440.00000000 82862664.00000000 26186.26171875  2311400.75000000 1834918.87500000 
0.07800    51049628.00000000 32239046.00000000 81133032.00000000 25530.36914062  2257386.25000000 1792070.37500000 
0.07900    49989232.00000000 31572898.00000000 79452296.00000000 24895.56835938  2205009.50000000 1750510.37500000 
0.08000    48959008.00000000 30925882.00000000 77818808.00000000 24281.15039062  2154176.75000000 1710184.75000000 
0.08100    47958884.00000000 30297228.00000000 76233576.00000000 23686.60546875  2104922.50000000 1671073.00000000 
0.08200    46987880.00000000 29687060.00000000 74693224.00000000 23111.07226562  2057104.75000000 1633117.75000000 
0.08300    46045188.00000000 29095264.00000000 73199208.00000000 22554.10351562  2010768.25000000 1596339.12500000 
0.08400    45130732.00000000 28521026.00000000 71749720.00000000 22014.88281250  1965820.50000000 1560666.75000000 
0.08500    44244120.00000000 27964014.00000000 70344568.00000000 21492.75781250  1922263.12500000 1526076.87500000 
0.08600    43384984.00000000 27424542.00000000 68982416.00000000 20987.19335938  1879990.37500000 1492532.00000000 
0.08700    42551432.00000000 26901548.00000000 67662000.00000000 20497.48046875  1839040.62500000 1460006.37500000 
0.08800    41743852.00000000 26394894.00000000 66382808.00000000 20022.91406250  1799303.62500000 1428457.75000000 
0.08900    40961460.00000000 25904384.00000000 65143244.00000000 19562.73828125  1760765.25000000 1397881.87500000 
0.09000    40203760.00000000 25429312.00000000 63943660.00000000 19116.76562500  1723380.37500000 1368191.87500000 
0.09100    39469668.00000000 24969362.00000000 62781056.00000000 18683.90820312  1687105.50000000 1339394.62500000 
0.09200    38758880.00000000 24524250.00000000 61656120.00000000 18263.89453125  1651895.75000000 1311455.62500000 
0.09300    38070380.00000000 24093630.00000000 60566676.00000000 17856.19140625  1617723.75000000 1284338.87500000 
0.09400    37403812.00000000 23676820.00000000 59512408.00000000 17459.95898438  1584541.62500000 1257993.25000000 
0.09500    36758556.00000000 23273558.00000000 58491564.00000000 17075.01757812  1552308.87500000 1232430.75000000 
0.09600    36133752.00000000 22883400.00000000 57503980.00000000 16700.61914062  1520990.00000000 1207566.62500000 
0.09700    35528928.00000000 22505698.00000000 56548120.00000000 16336.53027344  1490556.12500000 1183436.62500000 
0.09800    34942848.00000000 22140582.00000000 55623024.00000000 15982.16699219  1460960.00000000 1159959.75000000 
0.09900    34375488.00000000 21787070.00000000 54726816.00000000 15636.93164062  1432191.50000000 1137133.00000000 
0.10000    33826248.00000000 21445230.00000000 53859344.00000000 15300.66308594  1404175.25000000 1114933.12500000 
0.10100    33293740.00000000 21114098.00000000 53019520.00000000 14972.83105469  1376907.62500000 1093296.37500000 
0.10200    32777886.00000000 20793630.00000000 52206288.00000000 14653.05078125  1350348.25000000 1072250.75000000 
0.10300    32277860.00000000 20483392.00000000 51418304.00000000 14341.00683594  1324479.87500000 1051746.87500000 
0.10400    31793054.00000000 20182960.00000000 50654664.00000000 14036.45898438  1299264.62500000 1031768.00000000 
0.10500    31323088.00000000 19892108.00000000 49914352.00000000 13738.95800781  1274677.25000000 1012279.75000000 
0.10600    30866930.00000000 19609622.00000000 49196944.00000000 13448.37207031  1250673.25000000 993270.37500000 
0.10700    30424338.00000000 19336120.00000000 48500848.00000000 13164.21875000  1227258.62500000 974721.93750000 
0.10800    29994592.00000000 19070908.00000000 47824956.00000000 12886.46093750  1204387.87500000 956609.31250000 
0.10900    29577188.00000000 18813346.00000000 47169476.00000000 12614.64355469  1182038.12500000 938916.31250000 
0.11000    29171572.00000000 18563464.00000000 46532208.00000000 12348.64062500  1160205.37500000 921627.43750000 
0.11100    28776908.00000000 18320734.00000000 45913048.00000000 12088.45703125  1138854.37500000 904730.87500000 
0.11200    28393202.00000000 18084626.00000000 45310528.00000000 11833.59765625  1117968.25000000 888203.12500000 
0.11300    28019426.00000000 17855152.00000000 44724848.00000000 11583.85937500  1097526.50000000 872017.12500000 
0.11400    27655592.00000000 17631870.00000000 44153996.00000000 11339.30273438  1077511.37500000 856187.37500000 
0.11500    27300680.00000000 17414096.00000000 43597864.00000000 11099.74218750  1057915.50000000 840679.12500000 
0.11600    26954818.00000000 17201938.00000000 43056072.00000000 10864.86132812  1038720.50000000 825485.87500000 
0.11700    26617042.00000000 16995218.00000000 42527012.00000000 10634.80371094  1019891.87500000 810600.00000000 
0.11800    26287172.00000000 16793236.00000000 42010540.00000000 10409.03906250  1001438.00000000 796001.25000000 
0.11900    25964540.00000000 16595951.00000000 41505504.00000000 10187.75195312  983329.87500000 781679.75000000 
0.12000    25648878.00000000 16402907.00000000 41011804.00000000 9970.77734375   965566.06250000 767630.68750000 
0.12100    25339778.00000000 16214097.00000000 40528412.00000000 9758.01367188   948133.75000000 753845.81250000 
0.12200    25037146.00000000 16029038.00000000 40054536.00000000 9549.35058594   931014.87500000 740302.43750000 
0.12300    24740144.00000000 15847608.00000000 39590000.00000000 9344.64257812   914205.56250000 727005.56250000 
0.12400    24448688.00000000 15669548.00000000 39134684.00000000 9143.84179688   897680.62500000 713937.31250000 
0.12500    24162242.00000000 15494492.00000000 38686412.00000000 8946.86035156   881446.87500000 701099.25000000 
0.12600    23880832.00000000 15322535.00000000 38246296.00000000 8753.68945312   865489.50000000 688471.81250000 
0.12700    23603854.00000000 15153183.00000000 37812732.00000000 8564.10546875   849791.50000000 676063.12500000 
0.12800    23331066.00000000 14986415.00000000 37385876.00000000 8378.03027344   834355.25000000 663842.93750000 
0.12900    23062434.00000000 14821916.00000000 36965012.00000000 8195.65429688   819171.43750000 651833.68750000 
0.13000    22797264.00000000 14659544.00000000 36549996.00000000 8016.54980469   804225.56250000 640011.37500000 
0.13100    22535274.00000000 14499025.00000000 36139908.00000000 7840.93945312   789509.56250000 628359.81250000 
0.13200    22276648.00000000 14340429.00000000 35734240.00000000 7668.54541016   775022.12500000 616895.43750000 
0.13300    22020862.00000000 14183462.00000000 35333536.00000000 7499.44775391   760762.43750000 605596.18750000 
0.13400    21767720.00000000 14027947.00000000 34936768.00000000 7333.49267578   746699.93750000 594473.25000000 
0.13500    21517098.00000000 13873725.00000000 34543412.00000000 7170.68798828   732860.00000000 583506.00000000 
0.13600    21268650.00000000 13720739.00000000 34153292.00000000 7010.88867188   719214.50000000 572697.12500000 
0.13700    21022206.00000000 13568896.00000000 33766472.00000000 6854.07421875   705759.31250000 562039.43750000 
0.13800    20777938.00000000 13417990.00000000 33382132.00000000 6700.17773438   692491.06250000 551526.00000000 
0.13900    20535112.00000000 13267970.00000000 33000406.00000000 6549.14160156   679417.00000000 541160.00000000 
0.14000    20293720.00000000 13118749.00000000 32620730.00000000 6400.95800781   666514.37500000 530934.43750000 
0.14100    20054172.00000000 12970182.00000000 32243186.00000000 6255.52050781   653792.43750000 520839.25000000 
0.14200    19815718.00000000 12822097.00000000 31867334.00000000 6112.74511719   641222.68750000 510876.50000000 
0.14300    19578328.00000000 12674658.00000000 31493182.00000000 5972.64794922   628830.56250000 501042.46875000 
0.14400    19342138.00000000 12527541.00000000 31120246.00000000 5835.08398438   616592.06250000 491328.03125000 
0.14500    19106632.00000000 12380913.00000000 30748736.00000000 5700.09667969   604512.68750000 481741.43750000 
0.14600    18872312.00000000 12234456.00000000 30378302.00000000 5567.61962891   592583.62500000 472270.75000000 
0.14700    18638766.00000000 12088358.00000000 30008810.00000000 5437.56250000   580809.68750000 462914.00000000 
0.14800    18405712.00000000 11942435.00000000 29639782.00000000 5309.92382812   569171.87500000 453670.25000000 
0.14900    18173288.00000000 11796809.00000000 29271996.00000000 5184.58740234   557681.12500000 444534.50000000 
0.15000    17941490.00000000 11651163.00000000 28904720.00000000 5061.65576172   546326.62500000 435506.37500000 
0.15100    17710174.00000000 11505743.00000000 28537836.00000000 4940.94384766   535107.93750000 426586.09375000 
0.15200    17479474.00000000 11360537.00000000 28171674.00000000 4822.52783203   524029.43750000 417770.65625000 
0.15300    17249218.00000000 11215283.00000000 27806092.00000000 4706.27685547   513083.81250000 409055.21875000 
0.15400    17019544.00000000 11070161.00000000 27440904.00000000 4592.28369141   502259.12500000 400442.03125000 
0.15500    16790176.00000000 10925084.00000000 27076266.00000000 4480.40966797   491569.06250000 391926.84375000 
0.15600    16561580.00000000 10780089.00000000 26711698.00000000 4370.65625000   481004.50000000 383508.34375000 
0.15700    16333192.00000000 10635254.00000000 26348210.00000000 4263.03271484   470567.50000000 375191.93750000 
0.15800    16105284.00000000 10490513.00000000 25984924.00000000 4157.46923828   460248.40625000 366964.96875000 
0.15900    15877836.00000000 10345917.00000000 25622272.00000000 4054.03784180   450059.46875000 358837.59375000 
0.16000    15650861.00000000 10201535.00000000 25260104.00000000 3952.61303711   439990.93750000 350804.00000000 
0.16100    15424513.00000000 10057239.00000000 24898886.00000000 3853.28100586   430051.15625000 342868.53125000 
0.16200    15198734.00000000 9913199.00000000 24538162.00000000 3755.96899414   420228.31250000 335025.34375000 
0.16300    14973713.00000000 9769416.00000000 24178444.00000000 3660.66845703   410529.50000000 327275.81250000 
0.16400    14749143.00000000 9625841.00000000 23819596.00000000 3567.43212891   400953.34375000 319626.21875000 
0.16500    14525354.00000000 9482748.00000000 23461600.00000000 3476.17089844   391504.68750000 312070.21875000 
0.16600    14302560.00000000 9339852.00000000 23104786.00000000 3386.92285156   382178.25000000 304608.37500000 
0.16700    14080426.00000000 9197464.00000000 22749084.00000000 3299.69360352   372969.96875000 297244.59375000 
0.16800    13859276.00000000 9055406.00000000 22394804.00000000 3214.42773438   363894.00000000 289977.59375000 
0.16900    13639183.00000000 8914020.00000000 22041934.00000000 3131.21044922   354944.87500000 282811.90625000 
0.17000    13420118.00000000 8773210.00000000 21690724.00000000 3049.94555664   346121.03125000 275744.15625000 
