# SAXS profile: number of points = 501, q_min = 0, q_max = 0.5, delta_q = 0.001
#    q    intensity 
0.00000    162232416.00000000 101202200.00000000 256269824.00000000 103883.73437500 8210736.50000000 6484828.00000000 
0.00100    162195392.00000000 101176960.00000000 256206016.00000000 103851.53906250 8208449.00000000 6483027.50000000 
0.00200    162079184.00000000 101101824.00000000 256016704.00000000 103757.11718750 8201551.50000000 6477587.00000000 
0.00300    161881888.00000000 100977256.00000000 255699744.00000000 103599.34375000 8190141.00000000 6468613.50000000 
0.00400    161597616.00000000 100802608.00000000 255254416.00000000 103379.49218750 8174167.00000000 6456055.50000000 
0.00500    161232096.00000000 100578136.00000000 254685520.00000000 103097.51562500 8153696.00000000 6439948.50000000 
0.00600    160789664.00000000 100304912.00000000 253989968.00000000 102753.73437500 8128749.50000000 6420332.00000000 
0.00700    160265856.00000000 99984480.00000000 253173984.00000000 102348.59375000 8099453.00000000 6397250.00000000 
0.00800    159666208.00000000 99616144.00000000 252234784.00000000 101885.66406250 8065736.00000000 6370730.50000000 
0.00900    158992192.00000000 99200624.00000000 251174640.00000000 101362.09375000 8027698.50000000 6340869.50000000 
0.01000    158244288.00000000 98738672.00000000 249997360.00000000 100780.75781250 7985534.50000000 6307697.00000000 
0.01100    157423424.00000000 98230696.00000000 248704704.00000000 100144.10156250 7939207.00000000 6271226.00000000 
0.01200    156526816.00000000 97677952.00000000 247298576.00000000 99452.52343750  7888850.00000000 6231627.00000000 
0.01300    155559296.00000000 97081080.00000000 245781264.00000000 98706.94531250  7834582.50000000 6188950.50000000 
0.01400    154524176.00000000 96442424.00000000 244154752.00000000 97909.37500000  7776485.00000000 6143264.50000000 
0.01500    153424560.00000000 95762472.00000000 242422512.00000000 97062.27343750  7714657.00000000 6094642.50000000 
0.01600    152255536.00000000 95042136.00000000 240589504.00000000 96166.44531250  7649247.50000000 6043213.50000000 
0.01700    151026832.00000000 94283232.00000000 238656464.00000000 95224.58593750  7580428.00000000 5989032.00000000 
0.01800    149735760.00000000 93485816.00000000 236628240.00000000 94237.46093750  7508259.00000000 5932253.50000000 
0.01900    148386336.00000000 92652496.00000000 234506112.00000000 93208.02343750  7432957.50000000 5872980.00000000 
0.02000    146979728.00000000 91784720.00000000 232297232.00000000 92138.54687500  7354555.00000000 5811262.00000000 
0.02100    145522016.00000000 90883216.00000000 230003456.00000000 91030.53906250  7273269.50000000 5747347.50000000 
0.02200    144010832.00000000 89949304.00000000 227627488.00000000 89886.64062500  7189265.00000000 5681220.50000000 
0.02300    142451264.00000000 88986264.00000000 225175824.00000000 88709.07812500  7102662.00000000 5613039.50000000 
0.02400    140845504.00000000 87993696.00000000 222651728.00000000 87499.80468750  7013632.50000000 5542957.00000000 
0.02500    139196848.00000000 86974168.00000000 220058080.00000000 86261.52343750  6922325.00000000 5471090.50000000 
0.02600    137507616.00000000 85928744.00000000 217399696.00000000 84996.84375000  6828901.50000000 5397570.00000000 
0.02700    135779232.00000000 84860320.00000000 214683024.00000000 83707.35156250  6733587.00000000 5322485.50000000 
0.02800    134016416.00000000 83768960.00000000 211909296.00000000 82395.58593750  6636464.50000000 5245985.00000000 
0.02900    132220928.00000000 82658408.00000000 209083856.00000000 81064.32031250  6537744.50000000 5168234.50000000 
0.03000    130395888.00000000 81528304.00000000 206211232.00000000 79715.89062500  6437562.50000000 5089366.00000000 
0.03100    128543296.00000000 80381728.00000000 203296656.00000000 78351.85156250  6336078.00000000 5009441.00000000 
0.03200    126666968.00000000 79219304.00000000 200343152.00000000 76975.98437500  6233497.50000000 4928625.50000000 
0.03300    124769328.00000000 78043872.00000000 197357088.00000000 75589.28906250  6129970.00000000 4847106.50000000 
0.03400    122853176.00000000 76857784.00000000 194341872.00000000 74194.43750000  6025650.00000000 4764899.00000000 
0.03500    120921104.00000000 75660720.00000000 191297584.00000000 72794.21875000  5920716.50000000 4682211.50000000 
0.03600    118975960.00000000 74454472.00000000 188235504.00000000 71389.59375000  5815280.50000000 4599137.50000000 
0.03700    117021112.00000000 73241896.00000000 185155216.00000000 69983.29687500  5709562.00000000 4515793.50000000 
0.03800    115057128.00000000 72024176.00000000 182062832.00000000 68577.34375000  5603606.50000000 4432312.50000000 
0.03900    113089040.00000000 70802440.00000000 178962400.00000000 67174.80468750  5497637.00000000 4348779.50000000 
0.04000    111117992.00000000 69579360.00000000 175855616.00000000 65775.82812500  5391742.50000000 4265303.00000000 
0.04100    109146120.00000000 68355672.00000000 172749424.00000000 64382.17968750  5286143.50000000 4181993.25000000 
0.04200    107177368.00000000 67133080.00000000 169646384.00000000 62997.11718750  5180915.00000000 4099029.25000000 
0.04300    105213480.00000000 65912588.00000000 166550560.00000000 61621.30859375  5076223.00000000 4016436.00000000 
0.04400    103255840.00000000 64696300.00000000 163463216.00000000 60256.81250000  4972120.50000000 3934325.00000000 
0.04500    101307656.00000000 63485448.00000000 160391024.00000000 58905.70703125  4868794.50000000 3852806.75000000 
0.04600    99370744.00000000 62281388.00000000 157336048.00000000 57567.91796875  4766321.00000000 3771954.50000000 
0.04700    97446968.00000000 61084564.00000000 154301088.00000000 56245.85937500  4664786.50000000 3691849.50000000 
0.04800    95537872.00000000 59897380.00000000 151291216.00000000 54940.75781250  4564349.50000000 3612580.50000000 
0.04900    93646272.00000000 58720320.00000000 148306144.00000000 53653.13281250  4465052.50000000 3534234.25000000 
0.05000    91772896.00000000 57554616.00000000 145351152.00000000 52384.63671875  4367056.00000000 3456849.50000000 
0.05100    89920656.00000000 56401224.00000000 142427872.00000000 51135.80859375  4270312.50000000 3380504.75000000 
0.05200    88090392.00000000 55261116.00000000 139538736.00000000 49908.01953125  4174980.75000000 3305256.00000000 
0.05300    86283760.00000000 54135188.00000000 136685696.00000000 48701.96875000  4081145.50000000 3231173.75000000 
0.05400    84501016.00000000 53024784.00000000 133873328.00000000 47518.00000000  3988845.00000000 3158294.25000000 
0.05500    82745464.00000000 51930524.00000000 131101016.00000000 46356.81640625  3898148.75000000 3086654.75000000 
0.05600    81017080.00000000 50853068.00000000 128371192.00000000 45219.29687500  3809064.75000000 3016329.50000000 
0.05700    79317808.00000000 49793196.00000000 125686584.00000000 44105.44531250  3721692.50000000 2947298.25000000 
0.05800    77646480.00000000 48751056.00000000 123047056.00000000 43015.91796875  3636038.25000000 2879654.75000000 
0.05900    76006440.00000000 47727916.00000000 120455600.00000000 41950.44140625  3552147.00000000 2813352.00000000 
0.06000    74397600.00000000 46723520.00000000 117913584.00000000 40909.91015625  3470030.00000000 2748503.75000000 
0.06100    72819448.00000000 45738972.00000000 115421304.00000000 39894.59375000  3389715.00000000 2685039.25000000 
0.06200    71274776.00000000 44774420.00000000 112980536.00000000 38903.24609375  3311261.00000000 2623039.25000000 
0.06300    69763160.00000000 43830312.00000000 110590632.00000000 37937.17187500  3234615.25000000 2562476.75000000 
0.06400    68284192.00000000 42906996.00000000 108253496.00000000 36995.69140625  3159796.75000000 2503378.75000000 
0.06500    66838336.00000000 42004192.00000000 105969136.00000000 36078.85937500  3086819.75000000 2445707.50000000 
0.06600    65427124.00000000 41122644.00000000 103738288.00000000 35186.01562500  3015698.25000000 2389496.25000000 
0.06700    64049580.00000000 40262396.00000000 101560696.00000000 34317.43750000  2946402.00000000 2334721.25000000 
0.06800    62706508.00000000 39422780.00000000 99437144.00000000 33472.28125000  2878919.75000000 2281394.50000000 
0.06900    61397412.00000000 38604960.00000000 97368304.00000000 32651.03320312  2813254.75000000 2229480.25000000 
0.07000    60122140.00000000 37808656.00000000 95352280.00000000 31852.33007812  2749333.25000000 2178981.75000000 
0.07100    58881100.00000000 37033248.00000000 93390560.00000000 31076.75585938  2687185.50000000 2129873.00000000 
0.07200    57673180.00000000 36278372.00000000 91480904.00000000 30322.84570312  2626774.25000000 2082106.50000000 
0.07300    56498672.00000000 35545512.00000000 89624872.00000000 29590.64062500  2568064.25000000 2035716.25000000 
0.07400    55357592.00000000 34832576.00000000 87820472.00000000 28879.35351562  2511006.50000000 1990636.25000000 
0.07500    54248908.00000000 34140196.00000000 86068728.00000000 28188.36523438  2455609.00000000 1946841.12500000 
0.07600    53172416.00000000 33468172.00000000 84367640.00000000 27517.73242188  2401805.75000000 1904330.87500000 
0.07700    52128108.00000000 32816368.00000000 82716784.00000000 26866.32421875  2349518.50000000 1863039.75000000 
0.07800    51114184.00000000 32183528.00000000 81115344.00000000 26233.76757812  2298809.50000000 1822973.12500000 
0.07900    50131068.00000000 31570398.00000000 79562936.00000000 25619.23828125  2249556.00000000 1784069.00000000 
0.08000    49178076.00000000 30975894.00000000 78056744.00000000 25022.13476562  2201724.75000000 1746298.12500000 
0.08100    48254036.00000000 30399918.00000000 76598104.00000000 24442.10351562  2155316.75000000 1709623.00000000 
0.08200    47358700.00000000 29842072.00000000 75184512.00000000 23878.54882812  2110239.75000000 1674027.50000000 
0.08300    46491332.00000000 29301842.00000000 73814760.00000000 23330.57421875  2066476.12500000 1639461.50000000 
0.08400    45650892.00000000 28778552.00000000 72488344.00000000 22797.65039062  2023967.00000000 1605889.87500000 
0.08500    44837220.00000000 28272150.00000000 71204912.00000000 22279.40429688  1982652.75000000 1573284.62500000 
0.08600    44048764.00000000 27781940.00000000 69961880.00000000 21775.29492188  1942518.75000000 1541603.87500000 
0.08700    43285264.00000000 27307536.00000000 68757832.00000000 21284.59960938  1903500.37500000 1510826.62500000 
0.08800    42545192.00000000 26848322.00000000 67591704.00000000 20806.78515625  1865587.37500000 1480885.50000000 
0.08900    41829000.00000000 26403686.00000000 66462840.00000000 20341.11523438  1828692.87500000 1451765.00000000 
0.09000    41134780.00000000 25973348.00000000 65369764.00000000 19887.65625000  1792782.62500000 1423443.25000000 
0.09100    40462264.00000000 25556534.00000000 64311192.00000000 19445.32421875  1757829.87500000 1395862.00000000 
0.09200    39810704.00000000 25153028.00000000 63284904.00000000 19013.85546875  1723776.25000000 1369004.75000000 
0.09300    39178592.00000000 24762334.00000000 62290816.00000000 18593.08398438  1690613.00000000 1342832.62500000 
0.09400    38566024.00000000 24383536.00000000 61327256.00000000 18182.19726562  1658266.25000000 1317317.25000000 
0.09500    37971552.00000000 24016382.00000000 60392764.00000000 17780.81835938  1626708.87500000 1292433.25000000 
0.09600    37394528.00000000 23660466.00000000 59486376.00000000 17388.79101562  1595904.87500000 1268147.37500000 
0.09700    36834284.00000000 23315156.00000000 58606696.00000000 17005.62109375  1565826.50000000 1244416.50000000 
0.09800    36290124.00000000 22980152.00000000 57752064.00000000 16631.12304688  1536433.62500000 1221240.87500000 
0.09900    35761228.00000000 22654540.00000000 56922164.00000000 16264.81152344  1507703.75000000 1198586.87500000 
0.10000    35246776.00000000 22338318.00000000 56115128.00000000 15906.27636719  1479591.75000000 1176399.12500000 
0.10100    34745816.00000000 22030716.00000000 55329940.00000000 15555.61718750  1452056.37500000 1154699.00000000 
0.10200    34258324.00000000 21731646.00000000 54565648.00000000 15212.21386719  1425107.37500000 1133441.87500000 
0.10300    33783128.00000000 21440190.00000000 53821400.00000000 14875.94628906  1398688.62500000 1112592.25000000 
0.10400    33319806.00000000 21156084.00000000 53095424.00000000 14546.66601562  1372797.12500000 1092165.75000000 
0.10500    32867710.00000000 20879316.00000000 52387396.00000000 14224.17187500  1347389.50000000 1072122.12500000 
0.10600    32425640.00000000 20608676.00000000 51695708.00000000 13908.22558594  1322446.62500000 1052435.37500000 
0.10700    31993730.00000000 20344584.00000000 51019880.00000000 13598.45019531  1297966.75000000 1033104.68750000 
0.10800    31571162.00000000 20086362.00000000 50358924.00000000 13295.18066406  1273912.62500000 1014115.31250000 
0.10900    31157664.00000000 19833592.00000000 49711916.00000000 12997.93261719  1250267.50000000 995441.62500000 
0.11000    30752214.00000000 19586028.00000000 49077812.00000000 12706.58789062  1227029.50000000 977072.56250000 
0.11100    30354590.00000000 19343184.00000000 48456472.00000000 12421.09765625  1204161.12500000 959008.37500000 
0.11200    29964340.00000000 19104838.00000000 47845984.00000000 12141.31640625  1181672.62500000 941224.43750000 
0.11300    29580986.00000000 18870770.00000000 47246932.00000000 11867.21093750  1159541.87500000 923717.93750000 
0.11400    29204152.00000000 18640724.00000000 46657648.00000000 11598.67089844  1137759.37500000 906482.18750000 
0.11500    28833576.00000000 18414386.00000000 46077796.00000000 11335.57812500  1116295.12500000 889497.81250000 
0.11600    28468552.00000000 18191378.00000000 45506956.00000000 11077.89648438  1095161.37500000 872764.81250000 
0.11700    28108784.00000000 17971706.00000000 44944724.00000000 10825.55273438  1074346.00000000 856272.68750000 
0.11800    27754118.00000000 17754900.00000000 44389428.00000000 10578.38378906  1053832.75000000 840020.50000000 
0.11900    27404004.00000000 17540974.00000000 43841848.00000000 10336.41308594  1033624.43750000 823999.56250000 
0.12000    27058490.00000000 17329424.00000000 43300760.00000000 10099.47753906  1013706.00000000 808202.43750000 
0.12100    26717024.00000000 17120540.00000000 42766000.00000000 9867.75000000   994089.50000000 792621.12500000 
0.12200    26379466.00000000 16913700.00000000 42237312.00000000 9640.88476562   974739.50000000 777270.06250000 
0.12300    26045642.00000000 16708855.00000000 41714572.00000000 9419.07812500   955685.18750000 762129.75000000 
0.12400    25715320.00000000 16506093.00000000 41196636.00000000 9201.93750000   936895.00000000 747192.18750000 
0.12500    25388094.00000000 16305115.00000000 40683440.00000000 8989.70703125   918374.81250000 732467.87500000 
0.12600    25064182.00000000 16105956.00000000 40174984.00000000 8782.18164062   900134.50000000 717952.25000000 
0.12700    24743200.00000000 15908147.00000000 39670776.00000000 8579.32812500   882156.37500000 703644.68750000 
0.12800    24424822.00000000 15711902.00000000 39170496.00000000 8381.04199219   864437.50000000 689537.12500000 
0.12900    24109258.00000000 15517110.00000000 38674488.00000000 8187.30957031   846980.00000000 675624.25000000 
0.13000    23796254.00000000 15323600.00000000 38181836.00000000 7997.99414062   829785.75000000 661921.06250000 
0.13100    23485378.00000000 15131340.00000000 37693116.00000000 7813.00830078   812837.81250000 648405.68750000 
0.13200    23177014.00000000 14940350.00000000 37206976.00000000 7632.32080078   796149.68750000 635084.25000000 
0.13300    22871046.00000000 14750400.00000000 36724764.00000000 7455.91503906   779718.06250000 621967.25000000 
0.13400    22567172.00000000 14561586.00000000 36245220.00000000 7283.57226562   763528.00000000 609042.31250000 
0.13500    22265416.00000000 14373791.00000000 35769316.00000000 7115.21875000   747588.68750000 596309.56250000 
0.13600    21965770.00000000 14187031.00000000 35296060.00000000 6950.80419922   731898.18750000 583772.37500000 
0.13700    21668240.00000000 14001347.00000000 34825504.00000000 6790.25390625   716452.43750000 571422.68750000 
0.13800    21372394.00000000 13816624.00000000 34357924.00000000 6633.49511719   701253.68750000 559261.56250000 
0.13900    21078950.00000000 13632872.00000000 33893340.00000000 6480.34179688   686291.93750000 547293.56250000 
0.14000    20787290.00000000 13450148.00000000 33431766.00000000 6330.73486328   671572.81250000 535512.43750000 
0.14100    20497602.00000000 13268278.00000000 32972170.00000000 6184.67041016   657093.68750000 523921.62500000 
0.14200    20210078.00000000 13087573.00000000 32515770.00000000 6041.89453125   642846.56250000 512513.43750000 
0.14300    19924372.00000000 12907758.00000000 32062506.00000000 5902.35839844   628831.18750000 501290.21875000 
0.14400    19640310.00000000 12728803.00000000 31611572.00000000 5766.04833984   615047.25000000 490247.68750000 
0.14500    19358456.00000000 12551042.00000000 31163814.00000000 5632.83056641   601500.00000000 479392.53125000 
0.14600    19078836.00000000 12374229.00000000 30718896.00000000 5502.53515625   588178.25000000 468711.62500000 
0.14700    18800924.00000000 12198483.00000000 30276984.00000000 5375.17333984   575080.25000000 458214.40625000 
0.14800    18525186.00000000 12023766.00000000 29837864.00000000 5250.53906250   562204.62500000 447894.12500000 
0.14900    18251460.00000000 11850109.00000000 29401872.00000000 5128.64062500   549555.81250000 437749.03125000 
0.15000    17979834.00000000 11677617.00000000 28968882.00000000 5009.38720703   537119.37500000 427776.71875000 
0.15100    17710492.00000000 11506268.00000000 28538990.00000000 4892.64794922   524898.37500000 417978.56250000 
0.15200    17443244.00000000 11336115.00000000 28112396.00000000 4778.36474609   512900.06250000 408352.37500000 
0.15300    17178058.00000000 11167087.00000000 27689062.00000000 4666.48437500   501107.75000000 398898.00000000 
0.15400    16915130.00000000 10999359.00000000 27268948.00000000 4556.83886719   489522.34375000 389604.43750000 
0.15500    16654597.00000000 10832826.00000000 26852508.00000000 4449.52148438   478147.59375000 380485.34375000 
0.15600    16396342.00000000 10667647.00000000 26439100.00000000 4344.31738281   466973.96875000 371522.12500000 
0.15700    16140344.00000000 10503804.00000000 26029522.00000000 4241.27099609   456007.53125000 362723.62500000 
0.15800    15886651.00000000 10341296.00000000 25623428.00000000 4140.23583984   445234.21875000 354089.53125000 
0.15900    15635473.00000000 10180212.00000000 25221074.00000000 4041.21362305   434661.87500000 345613.03125000 
0.16000    15386578.00000000 10020422.00000000 24822452.00000000 3944.16455078   424285.21875000 337290.81250000 
0.16100    15140401.00000000 9862318.00000000 24427590.00000000 3849.03393555   414100.62500000 329125.87500000 
0.16200    14896595.00000000 9705469.00000000 24036654.00000000 3755.80346680   404106.62500000 321116.18750000 
0.16300    14655397.00000000 9550267.00000000 23649694.00000000 3664.36450195   394302.90625000 313254.81250000 
0.16400    14416731.00000000 9396556.00000000 23266664.00000000 3574.75976562   384688.15625000 305547.40625000 
0.16500    14180761.00000000 9244421.00000000 22887890.00000000 3486.91601562   375254.75000000 297988.78125000 
0.16600    13947470.00000000 9093999.00000000 22513186.00000000 3400.88989258   366005.87500000 290575.84375000 
0.16700    13716812.00000000 8944991.00000000 22142502.00000000 3316.51904297   356935.78125000 283308.03125000 
0.16800    13488859.00000000 8797787.00000000 21776206.00000000 3233.90991211   348044.03125000 276183.87500000 
0.16900    13263876.00000000 8652265.00000000 21414198.00000000 3153.00000000   339333.43750000 269205.87500000 
0.17000    13041447.00000000 8508416.00000000 21056308.00000000 3073.80151367   330794.43750000 262365.25000000 
