# SAXS profile: number of points = 501, q_min = 0, q_max = 0.5, delta_q = 0.001
#    q    intensity 
0.00000    162233280.00000000 101202032.00000000 256271136.00000000 98283.27343750  7986324.50000000 6307619.00000000 
0.00100    162202576.00000000 101180760.00000000 256219872.00000000 98256.83593750  7984429.50000000 6306124.00000000 
0.00200    162107712.00000000 101120360.00000000 256064448.00000000 98178.53125000  7978771.50000000 6301631.50000000 
0.00300    161947104.00000000 101019264.00000000 255805168.00000000 98048.03906250  7969307.50000000 6294245.00000000 
0.00400    161716304.00000000 100877824.00000000 255442832.00000000 97866.12500000  7956093.00000000 6283865.00000000 
0.00500    161418224.00000000 100695712.00000000 254980576.00000000 97632.70312500  7939156.00000000 6270534.50000000 
0.00600    161056208.00000000 100471680.00000000 254412256.00000000 97348.14843750  7918483.00000000 6254265.00000000 
0.00700    160631008.00000000 100210336.00000000 253745424.00000000 97013.63281250  7894188.00000000 6235177.50000000 
0.00800    160137376.00000000 99909928.00000000 252979472.00000000 96628.26562500  7866198.50000000 6213229.50000000 
0.00900    159583584.00000000 99570608.00000000 252112688.00000000 96194.26562500  7834636.50000000 6188424.50000000 
0.01000    158969040.00000000 99193480.00000000 251148208.00000000 95711.53906250  7799578.00000000 6160858.00000000 
0.01100    158294944.00000000 98778168.00000000 250088176.00000000 95181.17187500  7761022.00000000 6130558.00000000 
0.01200    157560912.00000000 98324384.00000000 248932480.00000000 94604.78125000  7718989.50000000 6097568.50000000 
0.01300    156763664.00000000 97834320.00000000 247684944.00000000 93982.85156250  7673692.50000000 6061923.50000000 
0.01400    155908656.00000000 97308904.00000000 246344448.00000000 93316.00000000  7625082.50000000 6023717.00000000 
0.01500    154997264.00000000 96748128.00000000 244915280.00000000 92606.32031250  7573281.00000000 5983048.50000000 
0.01600    154030320.00000000 96153640.00000000 243397664.00000000 91854.21093750  7518408.00000000 5939917.00000000 
0.01700    153009632.00000000 95525296.00000000 241795200.00000000 91061.67968750  7460471.00000000 5894348.00000000 
0.01800    151935376.00000000 94864512.00000000 240109184.00000000 90230.22656250  7399599.00000000 5846528.50000000 
0.01900    150810544.00000000 94170288.00000000 238344416.00000000 89360.70312500  7335904.00000000 5796418.50000000 
0.02000    149635328.00000000 93447416.00000000 236498896.00000000 88454.42187500  7269481.50000000 5744242.00000000 
0.02100    148410528.00000000 92693936.00000000 234578272.00000000 87513.49218750  7200377.50000000 5689926.00000000 
0.02200    147140880.00000000 91912136.00000000 232583712.00000000 86539.37500000  7128806.00000000 5633629.00000000 
0.02300    145824368.00000000 91101632.00000000 230518336.00000000 85533.57031250  7054788.50000000 5575449.00000000 
0.02400    144467872.00000000 90264928.00000000 228386784.00000000 84497.82812500  6978491.50000000 5515449.00000000 
0.02500    143065872.00000000 89402112.00000000 226189600.00000000 83434.13281250  6899962.00000000 5453659.00000000 
0.02600    141628528.00000000 88514744.00000000 223929072.00000000 82343.32031250  6819389.50000000 5390299.00000000 
0.02700    140150976.00000000 87604600.00000000 221609248.00000000 81228.30468750  6736847.50000000 5325374.00000000 
0.02800    138640064.00000000 86671608.00000000 219234368.00000000 80089.98437500  6652493.50000000 5258995.50000000 
0.02900    137091920.00000000 85717440.00000000 216805808.00000000 78929.96875000  6566381.50000000 5191270.00000000 
0.03000    135514240.00000000 84744296.00000000 214327152.00000000 77751.21093750  6478684.50000000 5122238.00000000 
0.03100    133906944.00000000 83752272.00000000 211800432.00000000 76554.28125000  6389504.50000000 5052111.50000000 
0.03200    132271384.00000000 82742368.00000000 209231920.00000000 75341.14843750  6298962.50000000 4980882.50000000 
0.03300    130609680.00000000 81716808.00000000 206619008.00000000 74114.14062500  6207281.00000000 4908672.00000000 
0.03400    128925024.00000000 80675568.00000000 203969744.00000000 72874.97656250  6114428.00000000 4835582.50000000 
0.03500    127218008.00000000 79620432.00000000 201286448.00000000 71624.73437500  6020574.00000000 4761731.50000000 
0.03600    125491320.00000000 78553864.00000000 198572544.00000000 70366.02343750  5925887.50000000 4687197.50000000 
0.03700    123747344.00000000 77476016.00000000 195829456.00000000 69100.40625000  5830496.50000000 4612090.50000000 
0.03800    121986856.00000000 76388184.00000000 193060368.00000000 67829.07031250  5734455.00000000 4536465.50000000 
0.03900    120212552.00000000 75290616.00000000 190269168.00000000 66553.64843750  5637900.50000000 4460434.50000000 
0.04000    118426280.00000000 74185200.00000000 187459936.00000000 65276.19140625  5540944.00000000 4384083.50000000 
0.04100    116630368.00000000 73073656.00000000 184634224.00000000 63998.27343750  5443711.00000000 4307448.00000000 
0.04200    114826056.00000000 71956584.00000000 181794832.00000000 62720.91406250  5346352.50000000 4230766.00000000 
0.04300    113016488.00000000 70834720.00000000 178944544.00000000 61445.83203125  5248922.50000000 4153988.50000000 
0.04400    111200928.00000000 69709888.00000000 176087696.00000000 60174.87109375  5151535.00000000 4077234.00000000 
0.04500    109384112.00000000 68584648.00000000 173226464.00000000 58909.44531250  5054309.00000000 4000599.50000000 
0.04600    107566384.00000000 67457824.00000000 170363488.00000000 57650.16015625  4957352.50000000 3924141.25000000 
0.04700    105749864.00000000 66329960.00000000 167502528.00000000 56399.30468750  4860716.50000000 3847997.00000000 
0.04800    103935952.00000000 65204336.00000000 164642736.00000000 55157.01953125  4764551.50000000 3772166.50000000 
0.04900    102126184.00000000 64081032.00000000 161792064.00000000 53925.52343750  4668929.50000000 3696738.50000000 
0.05000    100322392.00000000 62961212.00000000 158948064.00000000 52705.48046875  4573908.00000000 3621811.50000000 
0.05100    98526080.00000000 61845084.00000000 156116688.00000000 51497.82812500  4479604.00000000 3547411.50000000 
0.05200    96738288.00000000 60734464.00000000 153297904.00000000 50304.04687500  4386068.00000000 3473633.75000000 
0.05300    94960960.00000000 59629660.00000000 150496064.00000000 49124.52734375  4293435.00000000 3400521.50000000 
0.05400    93196160.00000000 58531664.00000000 147711920.00000000 47960.80078125  4201681.00000000 3328134.25000000 
0.05500    91443680.00000000 57441980.00000000 144948304.00000000 46812.84375000  4110984.50000000 3256521.25000000 
0.05600    89705760.00000000 56360276.00000000 142205216.00000000 45682.55078125  4021310.00000000 3185739.25000000 
0.05700    87983808.00000000 55287636.00000000 139487856.00000000 44569.14843750  3932792.25000000 3115829.00000000 
0.05800    86278512.00000000 54225760.00000000 136796688.00000000 43474.52734375  3845426.00000000 3046847.50000000 
0.05900    84590632.00000000 53173852.00000000 134132696.00000000 42398.51562500  3759305.75000000 2978828.25000000 
0.06000    82921040.00000000 52133968.00000000 131497328.00000000 41342.36328125  3674469.00000000 2911815.25000000 
0.06100    81272880.00000000 51105748.00000000 128893144.00000000 40305.79296875  3590916.25000000 2845822.00000000 
0.06200    79644240.00000000 50090204.00000000 126321024.00000000 39289.55078125  3508755.50000000 2780909.00000000 
0.06300    78037616.00000000 49087672.00000000 123783160.00000000 38293.84765625  3428008.75000000 2717072.25000000 
0.06400    76452984.00000000 48098696.00000000 121278320.00000000 37319.10156250  3348646.25000000 2654343.25000000 
0.06500    74891240.00000000 47123772.00000000 118810616.00000000 36365.46484375  3270751.25000000 2592754.75000000 
0.06600    73353880.00000000 46163188.00000000 116380712.00000000 35432.75000000  3194337.75000000 2532351.50000000 
0.06700    71840672.00000000 45217916.00000000 113988568.00000000 34521.75000000  3119424.25000000 2473118.75000000 
0.06800    70352248.00000000 44287332.00000000 111634920.00000000 33631.89453125  3046013.50000000 2415040.50000000 
0.06900    68889520.00000000 43372332.00000000 109321416.00000000 32763.71289062  2974124.75000000 2358172.00000000 
0.07000    67452352.00000000 42473784.00000000 107048048.00000000 31916.61718750  2903772.75000000 2302517.25000000 
0.07100    66041248.00000000 41591072.00000000 104815504.00000000 31090.94921875  2834957.25000000 2248075.50000000 
0.07200    64656608.00000000 40724272.00000000 102624776.00000000 30286.26757812  2767673.00000000 2194825.25000000 
0.07300    63299012.00000000 39874116.00000000 100475656.00000000 29503.12890625  2701940.50000000 2142810.50000000 
0.07400    61967640.00000000 39040812.00000000 98369992.00000000 28740.84570312  2637761.50000000 2091995.00000000 
0.07500    60664128.00000000 38224320.00000000 96305776.00000000 27998.75781250  2575096.50000000 2042390.62500000 
0.07600    59387316.00000000 37424188.00000000 94284728.00000000 27277.11718750  2513930.25000000 1993975.50000000 
0.07700    58138024.00000000 36641420.00000000 92306816.00000000 26575.73632812  2454326.25000000 1946778.00000000 
0.07800    56915780.00000000 35875468.00000000 90371224.00000000 25893.77148438  2396185.50000000 1900736.12500000 
0.07900    55720564.00000000 35126300.00000000 88479704.00000000 25231.30664062  2339541.25000000 1855865.25000000 
0.08000    54552988.00000000 34394232.00000000 86630456.00000000 24587.83984375  2284341.00000000 1812145.12500000 
0.08100    53412296.00000000 33679044.00000000 84823040.00000000 23963.14257812  2230592.25000000 1769578.50000000 
0.08200    52298672.00000000 32980690.00000000 83058880.00000000 23356.43164062  2178246.50000000 1728119.62500000 
0.08300    51211416.00000000 32298746.00000000 81337064.00000000 22767.58203125  2127362.75000000 1687770.50000000 
0.08400    50150884.00000000 31633496.00000000 79657072.00000000 22196.12109375  2077804.62500000 1648507.12500000 
0.08500    49116676.00000000 30984588.00000000 78018360.00000000 21641.48828125  2029581.37500000 1610318.75000000 
0.08600    48107732.00000000 30351996.00000000 76420832.00000000 21103.34179688  1982699.87500000 1573156.87500000 
0.08700    47125040.00000000 29735468.00000000 74863720.00000000 20581.11132812  1937104.00000000 1537025.25000000 
0.08800    46167532.00000000 29134862.00000000 73347160.00000000 20074.35351562  1892772.12500000 1501890.12500000 
0.08900    45234900.00000000 28549818.00000000 71868536.00000000 19582.74804688  1849670.25000000 1467730.75000000 
0.09000    44326276.00000000 27980142.00000000 70430392.00000000 19105.61523438  1807764.50000000 1434511.87500000 
0.09100    43441976.00000000 27425562.00000000 69030208.00000000 18642.45703125  1767037.87500000 1402236.62500000 
0.09200    42581456.00000000 26886186.00000000 67667272.00000000 18193.08593750  1727434.00000000 1370851.62500000 
0.09300    41744136.00000000 26361324.00000000 66340880.00000000 17756.79687500  1688942.12500000 1340340.87500000 
0.09400    40929420.00000000 25850728.00000000 65050796.00000000 17333.09765625  1651520.62500000 1310682.75000000 
0.09500    40136996.00000000 25354178.00000000 63796380.00000000 16921.45898438  1615145.75000000 1281844.12500000 
0.09600    39366316.00000000 24871464.00000000 62576064.00000000 16521.79687500  1579779.12500000 1253816.37500000 
0.09700    38616652.00000000 24402282.00000000 61390148.00000000 16133.49511719  1545389.75000000 1226561.00000000 
0.09800    37888280.00000000 23946072.00000000 60236832.00000000 15755.92480469  1511936.50000000 1200049.00000000 
0.09900    37179808.00000000 23502900.00000000 59116100.00000000 15389.13085938  1479411.25000000 1174261.25000000 
0.10000    36490816.00000000 23072170.00000000 58026712.00000000 15032.09179688  1447752.50000000 1149185.37500000 
0.10100    35821288.00000000 22653602.00000000 56967740.00000000 14684.77343750  1416954.12500000 1124767.50000000 
0.10200    35170504.00000000 22247048.00000000 55938540.00000000 14346.77929688  1386969.87500000 1101004.00000000 
0.10300    34537684.00000000 21851712.00000000 54937980.00000000 14017.66601562  1357787.75000000 1077882.37500000 
0.10400    33922444.00000000 21467804.00000000 53966216.00000000 13697.23046875  1329359.50000000 1055359.75000000 
0.10500    33324602.00000000 21094760.00000000 53021172.00000000 13384.95605469  1301673.12500000 1033422.75000000 
0.10600    32742774.00000000 20732052.00000000 52102196.00000000 13080.49121094  1274679.87500000 1012042.93750000 
0.10700    32177434.00000000 20379736.00000000 51209180.00000000 12783.71777344  1248377.12500000 991205.75000000 
0.10800    31627322.00000000 20037322.00000000 50340928.00000000 12494.12890625  1222735.50000000 970890.06250000 
0.10900    31092130.00000000 19704246.00000000 49495896.00000000 12211.60742188  1197712.00000000 951066.75000000 
0.11000    30571666.00000000 19380714.00000000 48674876.00000000 11935.77246094  1173299.75000000 931723.37500000 
0.11100    30065030.00000000 19065674.00000000 47876028.00000000 11666.44433594  1149467.25000000 912837.25000000 
0.11200    29571812.00000000 18759578.00000000 47098596.00000000 11403.35546875  1126191.62500000 894400.87500000 
0.11300    29091640.00000000 18461562.00000000 46341800.00000000 11146.23046875  1103449.12500000 876389.12500000 
0.11400    28623908.00000000 18171530.00000000 45605148.00000000 10894.93359375  1081235.25000000 858786.81250000 
0.11500    28168414.00000000 17889360.00000000 44887612.00000000 10649.22753906  1059504.75000000 841581.00000000 
0.11600    27724294.00000000 17614450.00000000 44188432.00000000 10408.88281250  1038262.81250000 824754.00000000 
0.11700    27291666.00000000 17346732.00000000 43507704.00000000 10173.94433594  1017477.12500000 808288.62500000 
0.11800    26869612.00000000 17085650.00000000 42843308.00000000 9943.86035156   997125.18750000 792171.25000000 
0.11900    26457620.00000000 16831090.00000000 42195476.00000000 9718.71289062   977212.31250000 776386.00000000 
0.12000    26055786.00000000 16582887.00000000 41563548.00000000 9498.26171875   957703.12500000 760932.93750000 
0.12100    25663676.00000000 16340801.00000000 40946968.00000000 9282.64453125   938595.50000000 745795.68750000 
0.12200    25280312.00000000 16104386.00000000 40344688.00000000 9071.42382812   919867.06250000 730947.81250000 
0.12300    24905762.00000000 15873529.00000000 39756292.00000000 8864.63574219   901511.12500000 716404.31250000 
0.12400    24539690.00000000 15647893.00000000 39181012.00000000 8662.02539062   883502.75000000 702129.12500000 
0.12500    24181460.00000000 15427203.00000000 38618732.00000000 8463.67480469   865839.68750000 688133.75000000 
0.12600    23831068.00000000 15211457.00000000 38068372.00000000 8269.45019531   848524.56250000 674403.75000000 
0.12700    23487966.00000000 15000235.00000000 37530000.00000000 8079.17773438   831522.00000000 660923.37500000 
0.12800    23151888.00000000 14793488.00000000 37002196.00000000 7892.82177734   814830.56250000 647685.43750000 
0.12900    22822738.00000000 14590924.00000000 36485204.00000000 7710.28955078   798454.75000000 634694.62500000 
0.13000    22499924.00000000 14392349.00000000 35978508.00000000 7531.61718750   782368.75000000 621934.18750000 
0.13100    22183116.00000000 14197583.00000000 35481520.00000000 7356.55664062   766566.75000000 609394.81250000 
0.13200    21872368.00000000 14006427.00000000 34993864.00000000 7185.17822266   751048.75000000 597079.37500000 
0.13300    21567186.00000000 13818783.00000000 34514796.00000000 7017.42333984   735802.00000000 584979.68750000 
0.13400    21267474.00000000 13634380.00000000 34044236.00000000 6853.12597656   720831.18750000 573085.93750000 
0.13500    20972824.00000000 13453090.00000000 33581816.00000000 6692.36621094   706112.50000000 561391.37500000 
0.13600    20683240.00000000 13274951.00000000 33127160.00000000 6534.95898438   691644.62500000 549900.93750000 
0.13700    20398348.00000000 13099448.00000000 32679840.00000000 6380.92089844   677431.56250000 538608.00000000 
0.13800    20117900.00000000 12926785.00000000 32239496.00000000 6230.18798828   663459.12500000 527503.18750000 
0.13900    19841912.00000000 12756718.00000000 31805818.00000000 6082.74804688   649723.25000000 516582.62500000 
0.14000    19569804.00000000 12589050.00000000 31378574.00000000 5938.49511719   636227.62500000 505847.56250000 
0.14100    19301966.00000000 12423745.00000000 30957426.00000000 5797.43994141   622955.00000000 495288.87500000 
0.14200    19038070.00000000 12260704.00000000 30542278.00000000 5659.39501953   609911.12500000 484911.43750000 
0.14300    18777384.00000000 12099859.00000000 30132532.00000000 5524.51562500   597086.93750000 474706.00000000 
0.14400    18520316.00000000 11940858.00000000 29728074.00000000 5392.56884766   584477.93750000 464665.56250000 
0.14500    18266766.00000000 11783968.00000000 29328826.00000000 5263.63525391   572084.81250000 454796.68750000 
0.14600    18016440.00000000 11628945.00000000 28934426.00000000 5137.62011719   559899.75000000 445092.84375000 
0.14700    17769160.00000000 11475665.00000000 28544792.00000000 5014.44873047   547925.00000000 435552.96875000 
0.14800    17524586.00000000 11323924.00000000 28159796.00000000 4894.10351562   536149.68750000 426168.18750000 
0.14900    17283254.00000000 11173976.00000000 27778990.00000000 4776.43554688   524579.87500000 416942.71875000 
0.15000    17044562.00000000 11025526.00000000 27402216.00000000 4661.52539062   513205.18750000 407866.43750000 
0.15100    16808516.00000000 10878567.00000000 27029744.00000000 4549.24560547   502023.93750000 398947.87500000 
0.15200    16575109.00000000 10733131.00000000 26661226.00000000 4439.59375000   491034.78125000 390182.84375000 
0.15300    16344194.00000000 10589035.00000000 26296150.00000000 4332.49707031   480234.62500000 381560.90625000 
0.15400    16115739.00000000 10446162.00000000 25934736.00000000 4227.84277344   469613.62500000 373082.53125000 
0.15500    15889570.00000000 10304642.00000000 25576652.00000000 4125.68115234   459182.68750000 364753.75000000 
0.15600    15665691.00000000 10164354.00000000 25222212.00000000 4025.86181641   448926.50000000 356563.31250000 
0.15700    15444077.00000000 10025410.00000000 24871138.00000000 3928.41137695   438852.71875000 348515.84375000 
0.15800    15224489.00000000 9887481.00000000 24522972.00000000 3833.21582031   428947.87500000 340603.00000000 
0.15900    15007238.00000000 9750795.00000000 24178166.00000000 3740.22729492   419217.18750000 332828.84375000 
0.16000    14791786.00000000 9615109.00000000 23836242.00000000 3649.42944336   409657.09375000 325185.15625000 
0.16100    14578585.00000000 9480618.00000000 23497472.00000000 3560.77124023   400264.81250000 317678.65625000 
0.16200    14367186.00000000 9347213.00000000 23161696.00000000 3474.14721680   391032.75000000 310301.43750000 
0.16300    14157888.00000000 9214906.00000000 22828604.00000000 3389.57885742   381967.62500000 303050.37500000 
0.16400    13950397.00000000 9083471.00000000 22498454.00000000 3306.96289062   373059.31250000 295925.31250000 
0.16500    13744756.00000000 8953234.00000000 22170988.00000000 3226.29418945   364308.18750000 288926.37500000 
0.16600    13541079.00000000 8823872.00000000 21846286.00000000 3147.48950195   355713.81250000 282053.25000000 
0.16700    13339183.00000000 8695511.00000000 21524370.00000000 3070.50048828   347268.43750000 275298.37500000 
0.16800    13139081.00000000 8568219.00000000 21205166.00000000 2995.30395508   338976.28125000 268663.18750000 
0.16900    12940889.00000000 8441917.00000000 20888794.00000000 2921.86767578   330829.87500000 262148.93750000 
0.17000    12744436.00000000 8316606.50000000 20574972.00000000 2850.14453125   322833.06250000 255747.28125000 
