# SAXS profile: number of points = 501, q_min = 0, q_max = 0.5, delta_q = 0.001
#    q    intensity 
0.00000    162237328.00000000 101201992.00000000 256270928.00000000 110252.53906250 8458723.00000000 6680635.00000000 
0.00100    162196784.00000000 101175960.00000000 256208032.00000000 110218.20312500 8456252.00000000 6678758.50000000 
0.00200    162076960.00000000 101100872.00000000 256016656.00000000 110113.20312500 8449051.00000000 6673102.50000000 
0.00300    161876240.00000000 100976168.00000000 255697984.00000000 109939.09375000 8436951.00000000 6663557.50000000 
0.00400    161592496.00000000 100801448.00000000 255251776.00000000 109696.21093750 8420108.00000000 6650316.50000000 
0.00500    161228944.00000000 100577152.00000000 254680736.00000000 109384.72656250 8398485.00000000 6633355.50000000 
0.00600    160782464.00000000 100302832.00000000 253981952.00000000 109005.20312500 8372174.00000000 6612625.50000000 
0.00700    160259968.00000000 99980824.00000000 253162576.00000000 108558.38281250 8341174.00000000 6588276.00000000 
0.00800    159655824.00000000 99610912.00000000 252219632.00000000 108045.35937500 8305556.50000000 6560296.50000000 
0.00900    158978800.00000000 99193608.00000000 251156752.00000000 107467.62500000 8265421.00000000 6528745.00000000 
0.01000    158225168.00000000 98729896.00000000 249973824.00000000 106825.78125000 8220852.00000000 6493689.00000000 
0.01100    157400912.00000000 98219848.00000000 248673760.00000000 106121.20312500 8171850.00000000 6455199.00000000 
0.01200    156500416.00000000 97665040.00000000 247259776.00000000 105355.70312500 8118597.50000000 6413380.50000000 
0.01300    155527888.00000000 97065576.00000000 245734496.00000000 104530.42187500 8061229.50000000 6368195.00000000 
0.01400    154484528.00000000 96423112.00000000 244099968.00000000 103647.50781250 7999706.50000000 6319860.00000000 
0.01500    153376000.00000000 95738976.00000000 242356368.00000000 102709.52343750 7934271.50000000 6268423.50000000 
0.01600    152202432.00000000 95014680.00000000 240511312.00000000 101715.60156250 7864966.00000000 6213940.00000000 
0.01700    150963280.00000000 94251096.00000000 238564272.00000000 100671.46875000 7792003.50000000 6156581.50000000 
0.01800    149661056.00000000 93448136.00000000 236521536.00000000 99576.01562500  7715435.00000000 6096409.50000000 
0.01900    148301120.00000000 92608256.00000000 234383504.00000000 98432.46093750  7635490.50000000 6033494.00000000 
0.02000    146882688.00000000 91733496.00000000 232155280.00000000 97244.61718750  7552234.00000000 5968022.00000000 
0.02100    145408720.00000000 90825272.00000000 229840656.00000000 96012.47656250  7465908.00000000 5900124.50000000 
0.02200    143883920.00000000 89884008.00000000 227444448.00000000 94740.04687500  7376531.50000000 5829847.00000000 
0.02300    142307536.00000000 88911608.00000000 224969216.00000000 93429.30468750  7284382.50000000 5757395.50000000 
0.02400    140682672.00000000 87909328.00000000 222416464.00000000 92082.24218750  7189586.50000000 5682810.50000000 
0.02500    139014496.00000000 86879536.00000000 219794816.00000000 90701.46875000  7092309.00000000 5606287.00000000 
0.02600    137304320.00000000 85823600.00000000 217106032.00000000 89290.35937500  6992719.50000000 5527930.50000000 
0.02700    135553024.00000000 84742624.00000000 214356688.00000000 87851.08593750  6891011.50000000 5447916.50000000 
0.02800    133766736.00000000 83638944.00000000 211547728.00000000 86386.47656250  6787309.50000000 5366375.00000000 
0.02900    131945856.00000000 82513256.00000000 208684336.00000000 84898.23437500  6681798.50000000 5283333.50000000 
0.03000    130092800.00000000 81368928.00000000 205772432.00000000 83390.24218750  6574746.00000000 5199063.50000000 
0.03100    128211088.00000000 80206960.00000000 202814288.00000000 81864.14843750  6466168.50000000 5113619.00000000 
0.03200    126305296.00000000 79028848.00000000 199817040.00000000 80323.49218750  6356324.50000000 5027175.50000000 
0.03300    124375560.00000000 77835784.00000000 196783120.00000000 78769.50781250  6245394.00000000 4939849.50000000 
0.03400    122426000.00000000 76629808.00000000 193716752.00000000 77206.28906250  6133574.00000000 4851804.00000000 
0.03500    120459344.00000000 75413824.00000000 190622992.00000000 75635.16406250  6020968.00000000 4763141.50000000 
0.03600    118477760.00000000 74188392.00000000 187505216.00000000 74059.46875000  5907769.50000000 4674016.50000000 
0.03700    116484712.00000000 72955824.00000000 184372288.00000000 72481.43750000  5794163.00000000 4584596.50000000 
0.03800    114483216.00000000 71717656.00000000 181221952.00000000 70903.29687500  5680352.00000000 4494920.00000000 
0.03900    112473304.00000000 70474416.00000000 178060304.00000000 69327.64843750  5566397.00000000 4405193.00000000 
0.04000    110461560.00000000 69228304.00000000 174893328.00000000 67756.16406250  5452537.00000000 4315506.00000000 
0.04100    108448640.00000000 67980944.00000000 171724096.00000000 66191.08593750  5338873.50000000 4225980.50000000 
0.04200    106436248.00000000 66734732.00000000 168557888.00000000 64635.34765625  5225563.00000000 4136702.50000000 
0.04300    104427872.00000000 65490500.00000000 165395536.00000000 63090.06640625  5112806.50000000 4047844.00000000 
0.04400    102425552.00000000 64249844.00000000 162243536.00000000 61558.32421875  5000724.50000000 3959496.00000000 
0.04500    100432552.00000000 63013952.00000000 159104160.00000000 60041.19140625  4889402.00000000 3871754.75000000 
0.04600    98449984.00000000 61784760.00000000 155982496.00000000 58540.54687500  4778986.00000000 3784724.00000000 
0.04700    96480640.00000000 60563248.00000000 152880976.00000000 57058.69921875  4669675.00000000 3698524.75000000 
0.04800    94526552.00000000 59350612.00000000 149801344.00000000 55596.13671875  4561436.50000000 3613185.75000000 
0.04900    92588712.00000000 58148568.00000000 146748000.00000000 54155.04296875  4454534.00000000 3528869.25000000 
0.05000    90670944.00000000 56958072.00000000 143725696.00000000 52736.82031250  4348984.50000000 3445634.25000000 
0.05100    88773376.00000000 55779700.00000000 140735248.00000000 51342.81250000  4244957.00000000 3363552.75000000 
0.05200    86898440.00000000 54615544.00000000 137780032.00000000 49974.33593750  4142442.50000000 3282678.75000000 
0.05300    85048048.00000000 53466160.00000000 134863216.00000000 48632.01562500  4041609.00000000 3203133.75000000 
0.05400    83223416.00000000 52332116.00000000 131987464.00000000 47317.10937500  3942533.50000000 3124918.50000000 
0.05500    81426176.00000000 51214732.00000000 129153640.00000000 46030.17968750  3845249.75000000 3048152.75000000 
0.05600    79657752.00000000 50115056.00000000 126364072.00000000 44772.60546875  3749869.00000000 2972802.50000000 
0.05700    77919560.00000000 49033620.00000000 123621448.00000000 43544.76562500  3656421.25000000 2899024.75000000 
0.05800    76212096.00000000 47971252.00000000 120927808.00000000 42347.38281250  3564950.75000000 2826786.75000000 
0.05900    74536984.00000000 46928568.00000000 118284760.00000000 41180.78906250  3475514.00000000 2756169.50000000 
0.06000    72894088.00000000 45906092.00000000 115692456.00000000 40045.03906250  3388202.00000000 2687153.75000000 
0.06100    71285792.00000000 44904408.00000000 113154488.00000000 38940.80078125  3302986.25000000 2619838.00000000 
0.06200    69713200.00000000 43924432.00000000 110670912.00000000 37868.11328125  3219888.75000000 2554179.00000000 
0.06300    68174984.00000000 42965996.00000000 108241776.00000000 36827.72265625  3138973.75000000 2490193.00000000 
0.06400    66672320.00000000 42029448.00000000 105869584.00000000 35818.41406250  3060242.00000000 2427970.00000000 
0.06500    65206576.00000000 41115464.00000000 103554152.00000000 34841.04296875  2983679.25000000 2367446.75000000 
0.06600    63777132.00000000 40224140.00000000 101296488.00000000 33895.08203125  2909317.50000000 2308622.50000000 
0.06700    62384944.00000000 39355500.00000000 99097008.00000000 32980.27343750  2837156.50000000 2251545.00000000 
0.06800    61030376.00000000 38509884.00000000 96956080.00000000 32096.32421875  2767153.50000000 2196162.25000000 
0.06900    59712292.00000000 37687216.00000000 94873664.00000000 31243.29687500  2699341.75000000 2142510.75000000 
0.07000    58431288.00000000 36887508.00000000 92850104.00000000 30420.08007812  2633647.00000000 2090512.87500000 
0.07100    57188140.00000000 36111352.00000000 90884232.00000000 29626.08984375  2570109.25000000 2040219.00000000 
0.07200    55981644.00000000 35357084.00000000 88977088.00000000 28861.08593750  2508653.75000000 1991569.62500000 
0.07300    54812116.00000000 34625912.00000000 87127288.00000000 28124.77734375  2449284.00000000 1944555.12500000 
0.07400    53678768.00000000 33917716.00000000 85335352.00000000 27415.99609375  2391929.75000000 1899133.12500000 
0.07500    52581484.00000000 33231690.00000000 83599952.00000000 26733.81835938  2336556.75000000 1855275.25000000 
0.07600    51519888.00000000 32567882.00000000 81920920.00000000 26078.02148438  2283166.25000000 1812974.25000000 
0.07700    50493460.00000000 31925870.00000000 80296992.00000000 25447.53710938  2231681.50000000 1772175.00000000 
0.07800    49500992.00000000 31305296.00000000 78727320.00000000 24841.50585938  2182040.00000000 1732833.37500000 
0.07900    48543036.00000000 30705902.00000000 77211504.00000000 24258.96875000  2134198.25000000 1694917.12500000 
0.08000    47617540.00000000 30127030.00000000 75747256.00000000 23699.23437500  2088118.75000000 1658382.87500000 
0.08100    46724892.00000000 29568506.00000000 74335464.00000000 23161.57812500  2043725.62500000 1623196.62500000 
0.08200    45863824.00000000 29029432.00000000 72972640.00000000 22644.51757812  2000980.00000000 1589309.50000000 
0.08300    45033504.00000000 28509896.00000000 71658624.00000000 22147.55273438  1959818.87500000 1556661.37500000 
0.08400    44233492.00000000 28009008.00000000 70391592.00000000 21669.65820312  1920175.37500000 1525214.50000000 
0.08500    43461880.00000000 27526426.00000000 69171504.00000000 21209.93945312  1881994.62500000 1494937.37500000 
0.08600    42718600.00000000 27061302.00000000 67995832.00000000 20767.41015625  1845195.87500000 1465754.00000000 
0.08700    42002568.00000000 26613324.00000000 66863300.00000000 20341.22656250  1809767.12500000 1437632.37500000 
0.08800    41313232.00000000 26181888.00000000 65772352.00000000 19930.30468750  1775582.12500000 1410527.75000000 
0.08900    40648800.00000000 25766336.00000000 64720640.00000000 19533.89843750  1742612.25000000 1384366.87500000 
0.09000    40008712.00000000 25365992.00000000 63708616.00000000 19151.14453125  1710793.37500000 1359130.50000000 
0.09100    39391796.00000000 24980398.00000000 62732800.00000000 18780.94140625  1680076.75000000 1334759.50000000 
0.09200    38797256.00000000 24608816.00000000 61792676.00000000 18422.88476562  1650371.25000000 1311191.50000000 
0.09300    38223808.00000000 24250584.00000000 60885616.00000000 18075.84375000  1621652.87500000 1288400.50000000 
0.09400    37670572.00000000 23905440.00000000 60011200.00000000 17739.02734375  1593828.87500000 1266332.37500000 
0.09500    37136516.00000000 23572052.00000000 59167680.00000000 17411.55078125  1566860.37500000 1244932.87500000 
0.09600    36620988.00000000 23250420.00000000 58353188.00000000 17093.07421875  1540691.37500000 1224166.75000000 
0.09700    36122744.00000000 22939626.00000000 57565764.00000000 16782.75585938  1515252.50000000 1204008.00000000 
0.09800    35640812.00000000 22639366.00000000 56804204.00000000 16479.74218750  1490516.62500000 1184382.37500000 
0.09900    35173904.00000000 22348802.00000000 56067752.00000000 16183.56835938  1466416.87500000 1165258.75000000 
0.10000    34721768.00000000 22067168.00000000 55353524.00000000 15893.63964844  1442899.50000000 1146622.50000000 
0.10100    34282656.00000000 21794166.00000000 54661232.00000000 15609.40039062  1419924.87500000 1128411.37500000 
0.10200    33856624.00000000 21529276.00000000 53989036.00000000 15330.32812500  1397455.00000000 1110584.87500000 
0.10300    33441988.00000000 21271950.00000000 53335920.00000000 15055.79296875  1375440.12500000 1093128.00000000 
0.10400    33038446.00000000 21021326.00000000 52699364.00000000 14785.50488281  1353831.25000000 1076006.00000000 
0.10500    32645136.00000000 20777272.00000000 52079728.00000000 14519.12597656  1332612.00000000 1059184.00000000 
0.10600    32260684.00000000 20539046.00000000 51474212.00000000 14256.07617188  1311721.00000000 1042633.06250000 
0.10700    31884744.00000000 20306366.00000000 50882656.00000000 13996.34667969  1291156.00000000 1026323.87500000 
0.10800    31516838.00000000 20078576.00000000 50303128.00000000 13739.33789062  1270844.87500000 1010246.18750000 
0.10900    31155786.00000000 19855352.00000000 49735232.00000000 13484.82128906  1250795.50000000 994358.00000000 
0.11000    30801384.00000000 19636310.00000000 49177752.00000000 13232.73339844  1230971.62500000 978650.25000000 
0.11100    30452760.00000000 19420854.00000000 48629480.00000000 12982.63281250  1211347.37500000 963105.06250000 
0.11200    30109358.00000000 19208856.00000000 48089428.00000000 12734.59472656  1191892.75000000 947695.06250000 
0.11300    29770318.00000000 18999676.00000000 47556792.00000000 12488.45507812  1172613.37500000 932415.68750000 
0.11400    29435958.00000000 18793342.00000000 47031128.00000000 12244.02050781  1153468.37500000 917244.93750000 
0.11500    29105094.00000000 18588988.00000000 46511048.00000000 12001.29296875  1134448.62500000 902180.75000000 
0.11600    28777476.00000000 18387182.00000000 45996164.00000000 11760.24707031  1115539.75000000 887201.50000000 
0.11700    28452528.00000000 18186690.00000000 45485564.00000000 11520.74902344  1096750.37500000 872310.43750000 
0.11800    28129990.00000000 17987910.00000000 44979040.00000000 11282.82031250  1078041.75000000 857487.75000000 
0.11900    27809326.00000000 17790308.00000000 44475552.00000000 11046.55761719  1059426.50000000 842740.56250000 
0.12000    27490586.00000000 17593734.00000000 43974952.00000000 10812.04394531  1040897.18750000 828050.18750000 
0.12100    27173454.00000000 17398312.00000000 43476632.00000000 10579.27636719  1022451.18750000 813435.50000000 
0.12200    26857386.00000000 17203356.00000000 42980068.00000000 10348.21875000  1004086.87500000 798867.00000000 
0.12300    26542518.00000000 17008886.00000000 42484760.00000000 10119.12695312  985795.81250000 784375.37500000 
0.12400    26228272.00000000 16815044.00000000 41991132.00000000 9892.05664062   967594.87500000 769930.50000000 
0.12500    25914810.00000000 16621532.00000000 41498324.00000000 9667.10546875   949468.06250000 755552.12500000 
0.12600    25602070.00000000 16428241.00000000 41006372.00000000 9444.37792969   931435.37500000 741243.37500000 
0.12700    25289508.00000000 16234920.00000000 40514408.00000000 9224.02539062   913491.31250000 727007.37500000 
0.12800    24977304.00000000 16041860.00000000 40023140.00000000 9006.15136719   895644.93750000 712839.06250000 
0.12900    24665448.00000000 15848755.00000000 39532148.00000000 8790.95605469   877904.93750000 698751.12500000 
0.13000    24353804.00000000 15655766.00000000 39041472.00000000 8578.46386719   860273.87500000 684753.75000000 
0.13100    24042248.00000000 15462660.00000000 38550708.00000000 8368.88867188   842764.12500000 670837.81250000 
0.13200    23731032.00000000 15269531.00000000 38060580.00000000 8162.39062500   825381.12500000 657022.18750000 
0.13300    23420136.00000000 15076438.00000000 37570376.00000000 7959.09033203   808130.50000000 643318.81250000 
0.13400    23109440.00000000 14883392.00000000 37080420.00000000 7759.09277344   791032.37500000 629720.43750000 
0.13500    22799356.00000000 14690311.00000000 36590464.00000000 7562.45068359   774087.25000000 616244.06250000 
0.13600    22489376.00000000 14497288.00000000 36101552.00000000 7369.44384766   757303.56250000 602893.06250000 
0.13700    22180036.00000000 14304436.00000000 35612884.00000000 7180.04052734   740697.12500000 589672.75000000 
0.13800    21871284.00000000 14111672.00000000 35124832.00000000 6994.41748047   724272.06250000 576594.25000000 
0.13900    21563332.00000000 13919270.00000000 34637852.00000000 6812.66308594   708041.68750000 563671.81250000 
0.14000    21256064.00000000 13727140.00000000 34151728.00000000 6634.91064453   692017.87500000 550899.93750000 
0.14100    20949840.00000000 13535371.00000000 33666828.00000000 6461.19677734   676199.62500000 538297.50000000 
0.14200    20644558.00000000 13344013.00000000 33183512.00000000 6291.57080078   660608.00000000 525862.37500000 
0.14300    20340538.00000000 13153272.00000000 32701648.00000000 6126.06396484   645237.43750000 513606.78125000 
0.14400    20038054.00000000 12963060.00000000 32221818.00000000 5964.74853516   630105.25000000 501528.84375000 
0.14500    19736750.00000000 12773609.00000000 31743868.00000000 5807.66357422   615216.00000000 489648.84375000 
0.14600    19437020.00000000 12584902.00000000 31268248.00000000 5654.85107422   600576.75000000 477962.81250000 
0.14700    19139248.00000000 12397092.00000000 30795254.00000000 5506.36083984   586198.43750000 466474.68750000 
0.14800    18843300.00000000 12210254.00000000 30324818.00000000 5362.04296875   572073.37500000 455193.06250000 
0.14900    18549232.00000000 12024467.00000000 29857162.00000000 5221.98144531   558223.37500000 444120.18750000 
0.15000    18257384.00000000 11839731.00000000 29392950.00000000 5086.18896484   544642.75000000 433259.71875000 
0.15100    17967964.00000000 11656405.00000000 28932042.00000000 4954.58105469   531329.87500000 422617.00000000 
0.15200    17680636.00000000 11474332.00000000 28474658.00000000 4827.16113281   518306.53125000 412196.50000000 
0.15300    17396244.00000000 11293625.00000000 28021188.00000000 4703.81054688   505556.06250000 401992.62500000 
0.15400    17114276.00000000 11114362.00000000 27571318.00000000 4584.48681641   493088.40625000 392011.59375000 
0.15500    16834892.00000000 10936676.00000000 27125946.00000000 4469.12988281   480903.50000000 382254.87500000 
0.15600    16558674.00000000 10760585.00000000 26684832.00000000 4357.67431641   469001.75000000 372721.28125000 
0.15700    16285338.00000000 10586330.00000000 26248314.00000000 4249.99609375   457387.46875000 363412.71875000 
0.15800    16014902.00000000 10413633.00000000 25816076.00000000 4146.00146484   446048.53125000 354326.21875000 
0.15900    15747832.00000000 10242852.00000000 25388700.00000000 4045.64794922   434992.90625000 345463.40625000 
0.16000    15483779.00000000 10073964.00000000 24966252.00000000 3948.77709961   424215.75000000 336819.00000000 
0.16100    15223233.00000000 9907028.00000000 24549194.00000000 3855.29541016   413711.65625000 328397.31250000 
0.16200    14965841.00000000 9742068.00000000 24136908.00000000 3765.07983398   403483.21875000 320190.25000000 
0.16300    14711948.00000000 9579031.00000000 23730230.00000000 3678.01318359   393520.71875000 312195.25000000 
0.16400    14461588.00000000 9418102.00000000 23328736.00000000 3594.00610352   383823.18750000 304413.37500000 
0.16500    14214613.00000000 9259306.00000000 22932764.00000000 3512.86791992   374383.46875000 296836.46875000 
0.16600    13971341.00000000 9102653.00000000 22542246.00000000 3434.57348633   365196.59375000 289464.46875000 
0.16700    13731416.00000000 8948169.00000000 22157086.00000000 3358.85351562   356259.68750000 282288.03125000 
0.16800    13495162.00000000 8795736.00000000 21777644.00000000 3285.71655273   347560.40625000 275306.09375000 
0.16900    13262399.00000000 8645626.00000000 21403880.00000000 3214.99047852   339104.96875000 268516.71875000 
0.17000    13033379.00000000 8497665.00000000 21035914.00000000 3146.53002930   330876.43750000 261910.62500000 
