# SAXS profile: number of points = 501, q_min = 0, q_max = 0.5, delta_q = 0.001
#    q    intensity 
0.00000    162238048.00000000 101202208.00000000 256270864.00000000 108427.86718750 8388385.50000000 6625115.00000000 
0.00100    162208016.00000000 101182720.00000000 256223600.00000000 108401.73437500 8386560.00000000 6623685.00000000 
0.00200    162117904.00000000 101127008.00000000 256080112.00000000 108322.50781250 8381139.50000000 6619426.50000000 
0.00300    161966800.00000000 101032592.00000000 255840848.00000000 108191.33593750 8372053.00000000 6612316.00000000 
0.00400    161753568.00000000 100901648.00000000 255506800.00000000 108007.46093750 8359395.50000000 6602350.50000000 
0.00500    161479440.00000000 100732944.00000000 255076528.00000000 107772.35937500 8343147.00000000 6589589.00000000 
0.00600    161145120.00000000 100527168.00000000 254551936.00000000 107484.90625000 8323337.00000000 6574026.00000000 
0.00700    160750960.00000000 100283776.00000000 253933888.00000000 107145.98437500 8299952.00000000 6555664.50000000 
0.00800    160298112.00000000 100005232.00000000 253222208.00000000 106756.97656250 8273114.00000000 6534560.00000000 
0.00900    159782864.00000000 99689680.00000000 252420336.00000000 106317.57031250 8242742.50000000 6510734.50000000 
0.01000    159211632.00000000 99338864.00000000 251524736.00000000 105829.18750000 8208989.00000000 6484180.50000000 
0.01100    158584752.00000000 98952568.00000000 250539568.00000000 105291.10156250 8171786.50000000 6454962.00000000 
0.01200    157902064.00000000 98531384.00000000 249466608.00000000 104705.78125000 8131264.00000000 6423183.50000000 
0.01300    157162880.00000000 98075800.00000000 248304656.00000000 104072.67968750 8087493.00000000 6388773.00000000 
0.01400    156367136.00000000 97586216.00000000 247055680.00000000 103393.34375000 8040473.50000000 6351803.50000000 
0.01500    155516720.00000000 97063568.00000000 245722608.00000000 102669.35156250 7990281.50000000 6312406.00000000 
0.01600    154614112.00000000 96507656.00000000 244305680.00000000 101900.85156250 7936976.50000000 6270497.50000000 
0.01700    153659632.00000000 95919048.00000000 242807872.00000000 101088.95312500 7880637.00000000 6226230.00000000 
0.01800    152653664.00000000 95299784.00000000 241230032.00000000 100235.18750000 7821361.00000000 6179647.00000000 
0.01900    151598864.00000000 94649760.00000000 239572704.00000000 99340.58593750  7759157.00000000 6130801.00000000 
0.02000    150494912.00000000 93969768.00000000 237839984.00000000 98406.57031250  7694184.50000000 6079752.50000000 
0.02100    149343856.00000000 93261176.00000000 236032528.00000000 97434.86718750  7626490.00000000 6026523.50000000 
0.02200    148146656.00000000 92523528.00000000 234153216.00000000 96425.79687500  7556140.00000000 5971238.50000000 
0.02300    146904976.00000000 91758168.00000000 232205056.00000000 95381.07031250  7483261.00000000 5913977.50000000 
0.02400    145620336.00000000 90967112.00000000 230186832.00000000 94302.45312500  7407916.50000000 5854799.00000000 
0.02500    144293280.00000000 90149120.00000000 228105008.00000000 93191.72656250  7330212.00000000 5793698.50000000 
0.02600    142926864.00000000 89307000.00000000 225958880.00000000 92049.45312500  7250233.50000000 5730835.50000000 
0.02700    141521760.00000000 88441136.00000000 223752912.00000000 90878.02343750  7168107.50000000 5666269.50000000 
0.02800    140078880.00000000 87551400.00000000 221486960.00000000 89678.78906250  7083884.00000000 5600079.00000000 
0.02900    138601088.00000000 86640552.00000000 219165536.00000000 88452.78125000  6997714.50000000 5532335.00000000 
0.03000    137089056.00000000 85708640.00000000 216791296.00000000 87202.18750000  6909718.00000000 5463144.00000000 
0.03100    135544416.00000000 84756248.00000000 214366736.00000000 85928.56250000  6819894.00000000 5392539.50000000 
0.03200    133969776.00000000 83784856.00000000 211892464.00000000 84633.42968750  6728456.00000000 5320641.00000000 
0.03300    132365944.00000000 82796024.00000000 209374112.00000000 83318.42187500  6635504.50000000 5247547.50000000 
0.03400    130735280.00000000 81790104.00000000 206811536.00000000 81985.53906250  6541091.00000000 5173296.50000000 
0.03500    129078776.00000000 80767976.00000000 204209056.00000000 80635.88281250  6445350.50000000 5098018.50000000 
0.03600    127398056.00000000 79731464.00000000 201569984.00000000 79272.21875000  6348420.00000000 5021742.50000000 
0.03700    125695672.00000000 78681160.00000000 198895232.00000000 77894.62500000  6250332.00000000 4944597.00000000 
0.03800    123973832.00000000 77618312.00000000 196189024.00000000 76505.57031250  6151245.50000000 4866673.00000000 
0.03900    122232576.00000000 76543800.00000000 193454432.00000000 75107.09375000  6051335.00000000 4788078.00000000 
0.04000    120474816.00000000 75457616.00000000 190691088.00000000 73700.28125000  5950573.50000000 4708797.50000000 
0.04100    118702224.00000000 74363408.00000000 187905024.00000000 72286.67187500  5849150.00000000 4629043.50000000 
0.04200    116916304.00000000 73260816.00000000 185098400.00000000 70868.56250000  5747204.50000000 4548786.50000000 
0.04300    115118200.00000000 72150560.00000000 182273424.00000000 69446.86718750  5644784.00000000 4468191.50000000 
0.04400    113311272.00000000 71034192.00000000 179431008.00000000 68023.07812500  5541975.00000000 4387312.00000000 
0.04500    111495280.00000000 69912984.00000000 176576784.00000000 66599.35156250  5438967.50000000 4306209.00000000 
0.04600    109672960.00000000 68786832.00000000 173711728.00000000 65176.69921875  5335777.50000000 4224993.00000000 
0.04700    107845480.00000000 67657312.00000000 170838208.00000000 63756.90234375  5232548.50000000 4143709.00000000 
0.04800    106016248.00000000 66525812.00000000 167960976.00000000 62340.95703125  5129375.50000000 4062484.75000000 
0.04900    104184136.00000000 65393536.00000000 165080400.00000000 60930.92968750  5026342.50000000 3981347.50000000 
0.05000    102352960.00000000 64260536.00000000 162199360.00000000 59527.73046875  4923561.00000000 3900415.50000000 
0.05100    100522784.00000000 63128652.00000000 159321584.00000000 58132.71875000  4821118.50000000 3819720.00000000 
0.05200    98696192.00000000 61998588.00000000 156447392.00000000 56747.14062500  4719093.50000000 3739385.00000000 
0.05300    96873808.00000000 60871344.00000000 153581120.00000000 55372.67968750  4617613.00000000 3659421.25000000 
0.05400    95058776.00000000 59747496.00000000 150723360.00000000 54009.67578125  4516699.00000000 3579922.50000000 
0.05500    93250448.00000000 58628032.00000000 147879136.00000000 52660.10546875  4416487.00000000 3500961.75000000 
0.05600    91451016.00000000 57513676.00000000 145046560.00000000 51324.89453125  4317040.50000000 3422581.25000000 
0.05700    89662128.00000000 56405960.00000000 142230752.00000000 50004.64062500  4218426.50000000 3344871.75000000 
0.05800    87885608.00000000 55305104.00000000 139432640.00000000 48700.96484375  4120759.25000000 3267866.00000000 
0.05900    86121376.00000000 54211480.00000000 136654288.00000000 47414.30859375  4024050.25000000 3191608.75000000 
0.06000    84370856.00000000 53127084.00000000 133899968.00000000 46145.73046875  3928416.50000000 3116200.75000000 
0.06100    82636920.00000000 52051576.00000000 131168648.00000000 44896.14843750  3833883.75000000 3041667.75000000 
0.06200    80918448.00000000 50986080.00000000 128462544.00000000 43666.24609375  3740538.00000000 2968042.75000000 
0.06300    79218744.00000000 49931488.00000000 125784120.00000000 42457.33984375  3648447.00000000 2895383.25000000 
0.06400    77536856.00000000 48887808.00000000 123133992.00000000 41268.71484375  3557624.00000000 2823730.25000000 
0.06500    75874496.00000000 47856328.00000000 120515248.00000000 40102.51171875  3468193.75000000 2753155.00000000 
0.06600    74233120.00000000 46837044.00000000 117928528.00000000 38958.64062500  3380125.00000000 2683649.00000000 
0.06700    72613432.00000000 45831308.00000000 115375304.00000000 37837.29296875  3293522.50000000 2615274.25000000 
0.06800    71015680.00000000 44838912.00000000 112856512.00000000 36739.37500000  3208371.50000000 2548040.25000000 
0.06900    69441664.00000000 43860436.00000000 110374616.00000000 35665.51171875  3124746.50000000 2482012.25000000 
0.07000    67890576.00000000 42896672.00000000 107929416.00000000 34615.46875000  3042695.75000000 2417197.00000000 
0.07100    66364956.00000000 41947940.00000000 105522896.00000000 33589.78906250  2962211.75000000 2353617.75000000 
0.07200    64864412.00000000 41014412.00000000 103155800.00000000 32588.79296875  2883353.00000000 2291304.75000000 
0.07300    63389540.00000000 40096880.00000000 100829256.00000000 31612.67968750  2806127.75000000 2230264.75000000 
0.07400    61941532.00000000 39195284.00000000 98543592.00000000 30661.59960938  2730581.75000000 2170559.50000000 
0.07500    60520004.00000000 38310168.00000000 96300328.00000000 29735.70117188  2656705.75000000 2112135.50000000 
0.07600    59125888.00000000 37441884.00000000 94099632.00000000 28834.74804688  2584497.75000000 2055054.25000000 
0.07700    57759528.00000000 36590552.00000000 91942192.00000000 27959.11328125  2514019.00000000 1999308.75000000 
0.07800    56420832.00000000 35756184.00000000 89828336.00000000 27108.50195312  2445246.25000000 1944888.50000000 
0.07900    55110808.00000000 34939224.00000000 87759104.00000000 26282.77929688  2378180.50000000 1891828.75000000 
0.08000    53829068.00000000 34139688.00000000 85734216.00000000 25482.14257812  2312849.50000000 1840123.12500000 
0.08100    52576308.00000000 33357794.00000000 83754976.00000000 24706.27148438  2249266.00000000 1789758.62500000 
0.08200    51352384.00000000 32593598.00000000 81820448.00000000 23954.83007812  2187361.00000000 1740733.00000000 
0.08300    50157140.00000000 31847144.00000000 79931520.00000000 23227.62890625  2127180.25000000 1693062.50000000 
0.08400    48991496.00000000 31118664.00000000 78087912.00000000 22524.44531250  2068709.25000000 1646732.00000000 
0.08500    47854392.00000000 30407976.00000000 76290096.00000000 21844.98046875  2011907.12500000 1601725.87500000 
0.08600    46746476.00000000 29714972.00000000 74537472.00000000 21188.89062500  1956812.00000000 1558038.62500000 
0.08700    45667500.00000000 29039950.00000000 72830544.00000000 20555.71679688  1903375.50000000 1515658.00000000 
0.08800    44617180.00000000 28382478.00000000 71168424.00000000 19945.08398438  1851577.25000000 1474561.87500000 
0.08900    43595680.00000000 27742742.00000000 69551352.00000000 19356.67968750  1801386.37500000 1434758.12500000 
0.09000    42602308.00000000 27120524.00000000 67978840.00000000 18789.83984375  1752824.87500000 1396209.37500000 
0.09100    41637192.00000000 26515672.00000000 66450436.00000000 18244.31445312  1705840.25000000 1358889.50000000 
0.09200    40700172.00000000 25927976.00000000 64966024.00000000 17719.53125000  1660391.37500000 1322802.00000000 
0.09300    39790556.00000000 25357488.00000000 63525452.00000000 17214.75195312  1616474.62500000 1287909.37500000 
0.09400    38908592.00000000 24803742.00000000 62127344.00000000 16729.77539062  1574061.25000000 1254200.50000000 
0.09500    38053524.00000000 24266646.00000000 60771724.00000000 16263.94531250  1533100.25000000 1221636.62500000 
0.09600    37224868.00000000 23745956.00000000 59457640.00000000 15816.63671875  1493574.12500000 1190211.75000000 
0.09700    36422300.00000000 23241352.00000000 58184860.00000000 15387.26171875  1455454.62500000 1159887.50000000 
0.09800    35645300.00000000 22752802.00000000 56952456.00000000 14975.36132812  1418694.37500000 1130631.00000000 
0.09900    34893792.00000000 22279780.00000000 55760016.00000000 14580.27246094  1383268.00000000 1102432.25000000 
0.10000    34166676.00000000 21822116.00000000 54606136.00000000 14201.39355469  1349134.12500000 1075253.50000000 
0.10100    33463884.00000000 21379444.00000000 53490184.00000000 13838.16113281  1316254.12500000 1049054.87500000 
0.10200    32784784.00000000 20951370.00000000 52411732.00000000 13489.99023438  1284607.50000000 1023829.93750000 
0.10300    32128656.00000000 20537762.00000000 51369680.00000000 13156.22851562  1254129.75000000 999533.56250000 
0.10400    31495274.00000000 20138018.00000000 50363576.00000000 12836.27246094  1224799.25000000 976137.93750000 
0.10500    30883898.00000000 19752116.00000000 49391680.00000000 12529.62890625  1196575.50000000 953626.68750000 
0.10600    30293536.00000000 19379346.00000000 48453376.00000000 12235.58789062  1169405.25000000 931946.31250000 
0.10700    29724330.00000000 19019662.00000000 47548036.00000000 11953.62597656  1143276.75000000 911075.12500000 
0.10800    29174998.00000000 18672460.00000000 46674804.00000000 11683.14453125  1118118.75000000 890988.50000000 
0.10900    28645396.00000000 18337500.00000000 45831732.00000000 11423.60742188  1093923.37500000 871652.56250000 
0.11000    28134742.00000000 18014292.00000000 45019068.00000000 11174.40039062  1070621.87500000 853029.68750000 
0.11100    27642232.00000000 17702440.00000000 44235316.00000000 10935.08203125  1048189.25000000 835100.37500000 
0.11200    27167500.00000000 17401694.00000000 43479356.00000000 10705.01074219  1026594.50000000 817831.12500000 
0.11300    26709624.00000000 17111642.00000000 42750120.00000000 10483.68652344  1005787.93750000 801181.43750000 
0.11400    26268354.00000000 16831794.00000000 42047100.00000000 10270.66503906  985737.12500000 785141.56250000 
0.11500    25842652.00000000 16561865.00000000 41369192.00000000 10065.29785156  966407.87500000 769668.68750000 
0.11600    25432106.00000000 16301363.00000000 40714808.00000000 9867.22070312   947755.43750000 754732.25000000 
0.11700    25036064.00000000 16050066.00000000 40083532.00000000 9675.95703125   929755.62500000 740311.68750000 
0.11800    24653754.00000000 15807294.00000000 39474104.00000000 9491.01660156   912355.87500000 726379.18750000 
0.11900    24284678.00000000 15572905.00000000 38885792.00000000 9311.93164062   895540.06250000 712897.00000000 
0.12000    23928244.00000000 15346493.00000000 38317628.00000000 9138.33300781   879262.56250000 699854.56250000 
0.12100    23583980.00000000 15127696.00000000 37768236.00000000 8969.92871094   863501.06250000 687220.56250000 
0.12200    23250992.00000000 14916057.00000000 37237488.00000000 8806.13476562   848215.56250000 674964.68750000 
0.12300    22928950.00000000 14711281.00000000 36723400.00000000 8646.73437500   833375.50000000 663072.31250000 
0.12400    22616832.00000000 14513003.00000000 36225912.00000000 8491.37011719   818959.87500000 651510.37500000 
0.12500    22314602.00000000 14320849.00000000 35743824.00000000 8339.60058594   804928.68750000 640259.56250000 
0.12600    22021814.00000000 14134622.00000000 35276448.00000000 8191.27539062   791271.31250000 629307.50000000 
0.12700    21737230.00000000 13953763.00000000 34822728.00000000 8046.04687500   777943.18750000 618624.37500000 
0.12800    21460908.00000000 13778027.00000000 34381872.00000000 7903.54980469   764929.56250000 608184.56250000 
0.12900    21192086.00000000 13607263.00000000 33953096.00000000 7763.67578125   752206.18750000 597984.31250000 
0.13000    20930400.00000000 13440940.00000000 33535780.00000000 7626.09667969   739746.56250000 587996.25000000 
0.13100    20675254.00000000 13278795.00000000 33128660.00000000 7490.65136719   727536.93750000 578203.62500000 
0.13200    20426302.00000000 13120528.00000000 32731526.00000000 7357.03417969   715546.31250000 568593.75000000 
0.13300    20183006.00000000 12966067.00000000 32343762.00000000 7225.26855469   703756.75000000 559147.12500000 
0.13400    19945118.00000000 12814947.00000000 31964356.00000000 7095.03906250   692156.37500000 549857.93750000 
0.13500    19711690.00000000 12667059.00000000 31592512.00000000 6966.18066406   680730.12500000 540703.87500000 
0.13600    19483120.00000000 12521888.00000000 31228330.00000000 6838.64111328   669455.43750000 531672.00000000 
0.13700    19258592.00000000 12379410.00000000 30870464.00000000 6712.26757812   658321.18750000 522756.93750000 
0.13800    19037764.00000000 12239404.00000000 30518622.00000000 6586.90136719   647307.62500000 513942.71875000 
0.13900    18820190.00000000 12101566.00000000 30172248.00000000 6462.60009766   636416.06250000 505224.25000000 
0.14000    18605776.00000000 11965787.00000000 29830834.00000000 6339.15380859   625618.87500000 496590.53125000 
0.14100    18394074.00000000 11831820.00000000 29493812.00000000 6216.55615234   614922.56250000 488030.96875000 
0.14200    18184940.00000000 11699446.00000000 29160958.00000000 6094.79785156   604304.68750000 479544.84375000 
0.14300    17978056.00000000 11568502.00000000 28831698.00000000 5973.75781250   593765.81250000 471116.62500000 
0.14400    17772950.00000000 11438925.00000000 28505398.00000000 5853.44775391   583288.68750000 462744.68750000 
0.14500    17569568.00000000 11310458.00000000 28182102.00000000 5733.86425781   572872.93750000 454424.09375000 
0.14600    17367798.00000000 11182977.00000000 27861214.00000000 5615.05517578   562520.81250000 446154.31250000 
0.14700    17167302.00000000 11056469.00000000 27542534.00000000 5496.92919922   552216.68750000 437923.65625000 
0.14800    16967774.00000000 10930642.00000000 27225548.00000000 5379.52587891   541959.31250000 429736.81250000 
0.14900    16769271.00000000 10805443.00000000 26910208.00000000 5262.84667969   531745.12500000 421586.12500000 
0.15000    16571593.00000000 10680778.00000000 26596138.00000000 5146.94531250   521579.78125000 413471.93750000 
0.15100    16374607.00000000 10556663.00000000 26283114.00000000 5031.87597656   511452.93750000 405393.40625000 
0.15200    16178178.00000000 10432867.00000000 25971258.00000000 4917.70312500   501373.78125000 397348.78125000 
0.15300    15982113.00000000 10309363.00000000 25659932.00000000 4804.41162109   491329.15625000 389340.68750000 
0.15400    15786296.00000000 10186055.00000000 25349204.00000000 4692.00732422   481325.62500000 381364.50000000 
0.15500    15590846.00000000 10063042.00000000 25038854.00000000 4580.65625000   471369.46875000 373426.78125000 
0.15600    15395624.00000000 9940026.00000000 24728862.00000000 4470.32763672   461455.40625000 365521.03125000 
0.15700    15200562.00000000 9817264.00000000 24419222.00000000 4361.10742188   451590.18750000 357657.15625000 
0.15800    15005380.00000000 9694478.00000000 24109636.00000000 4253.06103516   441771.78125000 349832.15625000 
0.15900    14810383.00000000 9571703.00000000 23800036.00000000 4146.25292969   432006.87500000 342048.96875000 
0.16000    14615444.00000000 9449002.00000000 23490826.00000000 4040.71777344   422298.65625000 334312.43750000 
0.16100    14420630.00000000 9326400.00000000 23181476.00000000 3936.55419922   412649.15625000 326624.25000000 
0.16200    14225758.00000000 9203723.00000000 22872264.00000000 3833.81958008   403063.56250000 318985.59375000 
0.16300    14030929.00000000 9081066.00000000 22563042.00000000 3732.56445312   393545.03125000 311399.37500000 
0.16400    13836202.00000000 8958500.00000000 22254062.00000000 3632.84790039   384100.09375000 303874.87500000 
0.16500    13641614.00000000 8835968.00000000 21945202.00000000 3534.74633789   374729.28125000 296407.50000000 
0.16600    13447246.00000000 8713454.00000000 21636314.00000000 3438.28076172   365440.53125000 289006.96875000 
0.16700    13252809.00000000 8590961.00000000 21327770.00000000 3343.52783203   356236.09375000 281669.93750000 
0.16800    13058805.00000000 8468686.00000000 21019574.00000000 3250.52856445   347119.96875000 274406.71875000 
0.16900    12865054.00000000 8346540.00000000 20711842.00000000 3159.38549805   338103.25000000 267222.06250000 
0.17000    12671601.00000000 8224530.50000000 20404580.00000000 3070.07177734   329187.40625000 260114.17187500 
