# SAXS profile: number of points = 501, q_min = 0, q_max = 0.5, delta_q = 0.001
#    q    intensity 
0.00000    162236560.00000000 101201912.00000000 256272000.00000000 115032.56250000 8640069.00000000 6823897.50000000 
0.00100    162196192.00000000 101175880.00000000 256204928.00000000 114994.76562500 8637569.00000000 6821880.50000000 
0.00200    162074176.00000000 101098072.00000000 256007744.00000000 114881.66406250 8629913.00000000 6815947.00000000 
0.00300    161866176.00000000 100969000.00000000 255679840.00000000 114694.46875000 8617192.00000000 6805897.00000000 
0.00400    161572528.00000000 100788992.00000000 255219648.00000000 114431.42187500 8599529.00000000 6791990.00000000 
0.00500    161197776.00000000 100556984.00000000 254631712.00000000 114094.63281250 8576659.00000000 6774090.00000000 
0.00600    160738192.00000000 100273928.00000000 253908656.00000000 113684.99218750 8548958.00000000 6752355.00000000 
0.00700    160197280.00000000 99941736.00000000 253063840.00000000 113203.24218750 8516401.00000000 6726670.00000000 
0.00800    159572832.00000000 99560632.00000000 252091600.00000000 112649.51562500 8478867.00000000 6697215.00000000 
0.00900    158874128.00000000 99130952.00000000 250994992.00000000 112026.63281250 8436614.00000000 6664036.50000000 
0.01000    158099920.00000000 98652800.00000000 249775536.00000000 111333.60156250 8389655.00000000 6627136.50000000 
0.01100    157249152.00000000 98126896.00000000 248435984.00000000 110574.95312500 8338174.50000000 6586623.00000000 
0.01200    156321072.00000000 97554520.00000000 246977664.00000000 109749.46093750 8282129.00000000 6542639.00000000 
0.01300    155318816.00000000 96936616.00000000 245406096.00000000 108860.57031250 8221659.00000000 6495127.00000000 
0.01400    154244736.00000000 96274552.00000000 243720384.00000000 107909.20312500 8157029.00000000 6444279.00000000 
0.01500    153101280.00000000 95569824.00000000 241925552.00000000 106898.58593750 8088227.00000000 6390191.50000000 
0.01600    151891952.00000000 94823976.00000000 240024016.00000000 105829.85937500 8015381.50000000 6332972.50000000 
0.01700    150615472.00000000 94037320.00000000 238020000.00000000 104705.39062500 7938668.00000000 6272709.00000000 
0.01800    149274912.00000000 93211064.00000000 235915936.00000000 103527.91406250 7858277.00000000 6209460.50000000 
0.01900    147875408.00000000 92346832.00000000 233716144.00000000 102299.07031250 7774272.50000000 6143460.50000000 
0.02000    146414736.00000000 91446512.00000000 231423392.00000000 101022.21875000 7686871.50000000 6074722.00000000 
0.02100    144899808.00000000 90511928.00000000 229042480.00000000 99699.45312500  7596247.50000000 6003417.50000000 
0.02200    143329696.00000000 89543728.00000000 226576912.00000000 98334.52343750  7502499.50000000 5929728.00000000 
0.02300    141710080.00000000 88544096.00000000 224030608.00000000 96928.05468750  7405825.50000000 5853699.50000000 
0.02400    140039856.00000000 87513424.00000000 221407680.00000000 95484.31250000  7306434.50000000 5775504.50000000 
0.02500    138326320.00000000 86455720.00000000 218714944.00000000 94005.60937500  7204494.00000000 5695314.50000000 
0.02600    136570256.00000000 85370456.00000000 215953024.00000000 92495.26562500  7100158.00000000 5613263.00000000 
0.02700    134772224.00000000 84261032.00000000 213129328.00000000 90955.78906250  6993603.00000000 5529458.00000000 
0.02800    132938072.00000000 83127672.00000000 210247264.00000000 89389.45312500  6885069.50000000 5444019.50000000 
0.02900    131070176.00000000 81973496.00000000 207309520.00000000 87800.19531250  6774701.50000000 5357202.00000000 
0.03000    129169904.00000000 80800088.00000000 204322720.00000000 86190.08593750  6662640.50000000 5269033.50000000 
0.03100    127242680.00000000 79608528.00000000 201290832.00000000 84562.18750000  6549188.00000000 5179731.50000000 
0.03200    125288488.00000000 78400456.00000000 198219408.00000000 82919.96875000  6434439.50000000 5089386.50000000 
0.03300    123313216.00000000 77178960.00000000 195112704.00000000 81265.29687500  6318615.00000000 4998224.50000000 
0.03400    121317752.00000000 75945424.00000000 191973056.00000000 79601.48437500  6201895.00000000 4906328.00000000 
0.03500    119305992.00000000 74701352.00000000 188809280.00000000 77930.75781250  6084470.50000000 4813858.50000000 
0.03600    117279992.00000000 73448520.00000000 185623600.00000000 76256.96093750  5966471.00000000 4720936.50000000 
0.03700    115243400.00000000 72188576.00000000 182418896.00000000 74581.83593750  5848139.50000000 4627761.00000000 
0.03800    113198480.00000000 70923416.00000000 179201264.00000000 72907.90625000  5729590.50000000 4534394.50000000 
0.03900    111148496.00000000 69654160.00000000 175975728.00000000 71238.04687500  5611057.00000000 4441003.00000000 
0.04000    109096464.00000000 68382960.00000000 172744640.00000000 69574.32031250  5492648.00000000 4347695.00000000 
0.04100    107044328.00000000 67111616.00000000 169513296.00000000 67919.60156250  5374527.50000000 4254604.50000000 
0.04200    104994840.00000000 65841396.00000000 166287488.00000000 66275.25000000  5256852.50000000 4161880.75000000 
0.04300    102951528.00000000 64574444.00000000 163069072.00000000 64644.37890625  5139850.00000000 4069643.50000000 
0.04400    100914352.00000000 63312020.00000000 159861456.00000000 63028.73828125  5023578.50000000 3977993.00000000 
0.04500    98888528.00000000 62055676.00000000 156670784.00000000 61429.78125000  4908225.00000000 3887048.50000000 
0.04600    96875280.00000000 60806972.00000000 153499136.00000000 59850.42578125  4793898.50000000 3796880.00000000 
0.04700    94877200.00000000 59567064.00000000 150350384.00000000 58291.41406250  4680734.00000000 3707646.00000000 
0.04800    92894888.00000000 58337228.00000000 147228064.00000000 56754.83203125  4568864.00000000 3619391.50000000 
0.04900    90932840.00000000 57119060.00000000 144135392.00000000 55242.56640625  4458427.50000000 3532252.75000000 
0.05000    88991752.00000000 55913588.00000000 141075632.00000000 53755.32421875  4349517.00000000 3446275.00000000 
0.05100    87073192.00000000 54721676.00000000 138050800.00000000 52295.05078125  4242201.00000000 3361576.00000000 
0.05200    85179224.00000000 53544884.00000000 135066464.00000000 50862.60546875  4136569.50000000 3278213.50000000 
0.05300    83312136.00000000 52384120.00000000 132123072.00000000 49459.28906250  4032755.75000000 3196255.00000000 
0.05400    81472976.00000000 51240788.00000000 129222752.00000000 48085.81640625  3930824.75000000 3115772.25000000 
0.05500    79663448.00000000 50115184.00000000 126367880.00000000 46743.26171875  3830856.50000000 3036816.75000000 
0.05600    77884256.00000000 49008760.00000000 123561536.00000000 45432.33203125  3732909.50000000 2959445.50000000 
0.05700    76136944.00000000 47921540.00000000 120805296.00000000 44153.76562500  3637056.25000000 2883720.75000000 
0.05800    74423656.00000000 46854968.00000000 118100984.00000000 42907.83593750  3543346.75000000 2809668.00000000 
0.05900    72744720.00000000 45809040.00000000 115450936.00000000 41695.33984375  3451815.25000000 2737317.50000000 
0.06000    71101192.00000000 44785508.00000000 112856168.00000000 40516.21875000  3362505.75000000 2666730.50000000 
0.06100    69493768.00000000 43784044.00000000 110318344.00000000 39370.61718750  3275439.25000000 2597905.00000000 
0.06200    67922744.00000000 42805028.00000000 107838160.00000000 38259.08203125  3190670.25000000 2530884.50000000 
0.06300    66389568.00000000 41849252.00000000 105417272.00000000 37181.49218750  3108206.75000000 2465661.25000000 
0.06400    64894744.00000000 40916940.00000000 103055608.00000000 36137.30078125  3028046.00000000 2402230.50000000 
0.06500    63437852.00000000 40008016.00000000 100754520.00000000 35127.31250000  2950209.00000000 2340675.50000000 
0.06600    62020324.00000000 39123372.00000000 98513744.00000000 34150.68750000  2874702.00000000 2280932.00000000 
0.06700    60640964.00000000 38262744.00000000 96334776.00000000 33206.70703125  2801502.25000000 2222974.25000000 
0.06800    59301156.00000000 37426360.00000000 94217928.00000000 32295.46289062  2730607.25000000 2166864.25000000 
0.06900    58000692.00000000 36614000.00000000 92161864.00000000 31416.65625000  2661988.25000000 2112555.00000000 
0.07000    56738748.00000000 35825768.00000000 90167336.00000000 30569.57031250  2595649.75000000 2060014.87500000 
0.07100    55516260.00000000 35062024.00000000 88234560.00000000 29753.13867188  2531520.75000000 2009250.62500000 
0.07200    54332364.00000000 34322212.00000000 86362800.00000000 28967.58593750  2469630.00000000 1960231.25000000 
0.07300    53186932.00000000 33606324.00000000 84551064.00000000 28211.39062500  2409907.25000000 1912917.62500000 
0.07400    52079320.00000000 32913968.00000000 82800184.00000000 27484.31054688  2352311.50000000 1867289.62500000 
0.07500    51009676.00000000 32245298.00000000 81108272.00000000 26785.25976562  2296806.25000000 1823321.00000000 
0.07600    49976660.00000000 31599582.00000000 79474088.00000000 26113.47656250  2243353.75000000 1780964.37500000 
0.07700    48980612.00000000 30976540.00000000 77899424.00000000 25468.32031250  2191891.50000000 1740175.12500000 
0.07800    48019912.00000000 30375776.00000000 76379168.00000000 24848.55468750  2142375.00000000 1700927.00000000 
0.07900    47094436.00000000 29797002.00000000 74915576.00000000 24253.38671875  2094730.00000000 1663167.25000000 
0.08000    46203540.00000000 29239596.00000000 73505992.00000000 23681.85937500  2048923.87500000 1626871.87500000 
0.08100    45345528.00000000 28703360.00000000 72149248.00000000 23133.16796875  2004885.00000000 1591969.37500000 
0.08200    44521000.00000000 28187600.00000000 70844656.00000000 22606.20898438  1962552.87500000 1558401.50000000 
0.08300    43727612.00000000 27691540.00000000 69589976.00000000 22100.03125000  1921864.50000000 1526156.75000000 
0.08400    42965052.00000000 27214964.00000000 68384192.00000000 21613.72265625  1882754.00000000 1495158.75000000 
0.08500    42232308.00000000 26757306.00000000 67226568.00000000 21146.31640625  1845168.62500000 1465349.25000000 
0.08600    41529160.00000000 26317494.00000000 66113236.00000000 20696.77734375  1809024.75000000 1436711.50000000 
0.08700    40853188.00000000 25895174.00000000 65044460.00000000 20264.21679688  1774273.25000000 1409174.75000000 
0.08800    40204136.00000000 25489850.00000000 64018788.00000000 19847.47070312  1740846.25000000 1382673.62500000 
0.08900    39580704.00000000 25100658.00000000 63033536.00000000 19446.17578125  1708652.12500000 1357177.12500000 
0.09000    38981760.00000000 24727228.00000000 62087400.00000000 19059.00781250  1677676.25000000 1332618.75000000 
0.09100    38406488.00000000 24368622.00000000 61179084.00000000 18684.96875000  1647817.25000000 1308959.37500000 
0.09200    37853776.00000000 24024194.00000000 60305952.00000000 18323.57226562  1619000.12500000 1286144.25000000 
0.09300    37322528.00000000 23693218.00000000 59467632.00000000 17973.73632812  1591201.37500000 1264114.37500000 
0.09400    36811692.00000000 23375258.00000000 58661292.00000000 17635.02148438  1564331.87500000 1242841.62500000 
0.09500    36319472.00000000 23069150.00000000 57885432.00000000 17305.94921875  1538325.00000000 1222263.00000000 
0.09600    35846000.00000000 22774900.00000000 57138360.00000000 16986.60742188  1513149.25000000 1202329.12500000 
0.09700    35389612.00000000 22491558.00000000 56418996.00000000 16675.87109375  1488733.25000000 1183005.12500000 
0.09800    34949192.00000000 22218482.00000000 55725176.00000000 16373.12695312  1465014.50000000 1164246.62500000 
0.09900    34523744.00000000 21954862.00000000 55055256.00000000 16077.51953125  1441965.00000000 1146011.12500000 
0.10000    34112504.00000000 21700118.00000000 54407976.00000000 15788.84765625  1419497.75000000 1128237.62500000 
0.10100    33714276.00000000 21453900.00000000 53781388.00000000 15506.29199219  1397576.25000000 1110903.12500000 
0.10200    33328046.00000000 21215376.00000000 53174072.00000000 15229.38964844  1376173.50000000 1093988.37500000 
0.10300    32953198.00000000 20983904.00000000 52585008.00000000 14957.72460938  1355225.25000000 1077439.00000000 
0.10400    32588418.00000000 20759004.00000000 52011860.00000000 14690.73632812  1334685.25000000 1061204.50000000 
0.10500    32233170.00000000 20540150.00000000 51454020.00000000 14428.12597656  1314533.62500000 1045285.93750000 
0.10600    31886168.00000000 20326764.00000000 50909676.00000000 14169.32910156  1294714.50000000 1029626.93750000 
0.10700    31547300.00000000 20118174.00000000 50377808.00000000 13914.13671875  1275197.62500000 1014207.93750000 
0.10800    31215198.00000000 19914180.00000000 49857172.00000000 13662.17675781  1255950.00000000 999014.12500000 
0.10900    30889138.00000000 19714490.00000000 49346344.00000000 13413.21093750  1236941.37500000 983997.06250000 
0.11000    30568916.00000000 19517948.00000000 48844468.00000000 13167.04980469  1218151.87500000 969153.75000000 
0.11100    30253292.00000000 19324622.00000000 48350772.00000000 12923.22656250  1199541.50000000 954462.00000000 
0.11200    29942186.00000000 19133960.00000000 47863032.00000000 12681.87402344  1181101.62500000 939897.62500000 
0.11300    29634538.00000000 18945484.00000000 47381732.00000000 12442.61816406  1162783.87500000 925441.37500000 
0.11400    29329942.00000000 18759252.00000000 46904740.00000000 12205.42968750  1144601.50000000 911080.31250000 
0.11500    29027936.00000000 18574444.00000000 46432316.00000000 11970.18750000  1126534.50000000 896804.43750000 
0.11600    28728098.00000000 18391000.00000000 45962800.00000000 11736.72753906  1108545.12500000 882600.37500000 
0.11700    28429980.00000000 18208734.00000000 45496488.00000000 11505.08300781  1090648.87500000 868462.62500000 
0.11800    28132876.00000000 18027002.00000000 45031844.00000000 11275.16113281  1072815.75000000 854362.87500000 
0.11900    27836668.00000000 17845780.00000000 44568172.00000000 11046.97460938  1055042.00000000 840318.50000000 
0.12000    27541048.00000000 17664802.00000000 44105644.00000000 10820.49707031  1037324.12500000 826308.81250000 
0.12100    27245990.00000000 17484114.00000000 43643100.00000000 10595.81542969  1019653.50000000 812335.31250000 
0.12200    26950632.00000000 17303260.00000000 43180964.00000000 10372.84277344  1002036.18750000 798395.68750000 
0.12300    26655080.00000000 17122024.00000000 42718148.00000000 10151.76953125  984452.50000000 784488.18750000 
0.12400    26359138.00000000 16940542.00000000 42254408.00000000 9932.58593750   966927.25000000 770611.06250000 
0.12500    26062592.00000000 16758464.00000000 41789476.00000000 9715.20117188   949434.87500000 756759.25000000 
0.12600    25765270.00000000 16575862.00000000 41323432.00000000 9499.99707031   931996.75000000 742956.87500000 
0.12700    25467230.00000000 16392600.00000000 40855584.00000000 9286.78222656   914608.81250000 729177.62500000 
0.12800    25168218.00000000 16208488.00000000 40386008.00000000 9075.63183594   897275.50000000 715434.56250000 
0.12900    24868184.00000000 16023603.00000000 39915200.00000000 8866.94531250   880010.75000000 701742.62500000 
0.13000    24567234.00000000 15837980.00000000 39442336.00000000 8660.62890625   862809.31250000 688100.31250000 
0.13100    24265136.00000000 15651580.00000000 38967072.00000000 8456.64941406   845688.87500000 674507.56250000 
0.13200    23962328.00000000 15464137.00000000 38490888.00000000 8255.28222656   828640.81250000 660974.31250000 
0.13300    23658472.00000000 15276129.00000000 38012648.00000000 8056.58203125   811694.81250000 647516.37500000 
0.13400    23353834.00000000 15087250.00000000 37532516.00000000 7860.60449219   794843.00000000 634125.37500000 
0.13500    23048468.00000000 14897704.00000000 37051260.00000000 7667.50292969   778104.37500000 620813.37500000 
0.13600    22742350.00000000 14707356.00000000 36568608.00000000 7477.34423828   761474.75000000 607591.31250000 
0.13700    22435636.00000000 14516513.00000000 36084520.00000000 7290.25488281   744981.56250000 594467.31250000 
0.13800    22128498.00000000 14325139.00000000 35599380.00000000 7106.18554688   728624.18750000 581447.68750000 
0.13900    21820918.00000000 14133300.00000000 35113324.00000000 6925.37597656   712412.37500000 568534.43750000 
0.14000    21513274.00000000 13940987.00000000 34627176.00000000 6747.80224609   696364.00000000 555743.62500000 
0.14100    21205618.00000000 13748643.00000000 34140376.00000000 6573.53027344   680475.87500000 543084.93750000 
0.14200    20898064.00000000 13555887.00000000 33653136.00000000 6402.70947266   664763.50000000 530551.25000000 
0.14300    20590970.00000000 13363145.00000000 33166616.00000000 6235.27929688   649235.31250000 518167.62500000 
0.14400    20284052.00000000 13170412.00000000 32680200.00000000 6071.33056641   633899.87500000 505920.78125000 
0.14500    19978050.00000000 12977997.00000000 32194724.00000000 5910.94384766   618761.87500000 493841.90625000 
0.14600    19672824.00000000 12785647.00000000 31710132.00000000 5754.14208984   603842.68750000 481919.53125000 
0.14700    19368844.00000000 12593771.00000000 31226878.00000000 5600.93896484   589138.12500000 470168.87500000 
0.14800    19065774.00000000 12402381.00000000 30745188.00000000 5451.32226562   574662.75000000 458593.96875000 
0.14900    18764226.00000000 12211686.00000000 30265406.00000000 5305.26269531   560409.50000000 447195.50000000 
0.15000    18464268.00000000 12021609.00000000 29787662.00000000 5162.91064453   546401.68750000 435986.15625000 
0.15100    18166078.00000000 11832410.00000000 29312526.00000000 5024.12939453   532633.00000000 424964.87500000 
0.15200    17869800.00000000 11644256.00000000 28840352.00000000 4888.99511719   519110.06250000 414141.34375000 
0.15300    17575622.00000000 11457187.00000000 28371168.00000000 4757.40722656   505840.50000000 403512.00000000 
0.15400    17283614.00000000 11271226.00000000 27905026.00000000 4629.39208984   492832.78125000 393084.68750000 
0.15500    16994088.00000000 11086724.00000000 27442828.00000000 4504.91894531   480079.50000000 382865.90625000 
0.15600    16707255.00000000 10903466.00000000 26984112.00000000 4383.92089844   467588.28125000 372849.40625000 
0.15700    16423124.00000000 10721873.00000000 26529602.00000000 4266.41064453   455369.62500000 363044.78125000 
0.15800    16141749.00000000 10541765.00000000 26079382.00000000 4152.30126953   443404.31250000 353446.93750000 
0.15900    15863553.00000000 10363411.00000000 25633644.00000000 4041.57495117   431716.81250000 344064.12500000 
0.16000    15588183.00000000 10186811.00000000 25192774.00000000 3934.14013672   420290.31250000 334889.31250000 
0.16100    15316304.00000000 10012049.00000000 24756948.00000000 3829.96777344   409136.56250000 325932.34375000 
0.16200    15047773.00000000 9839322.00000000 24325906.00000000 3728.98876953   398248.06250000 317187.78125000 
0.16300    14782615.00000000 9668635.00000000 23900360.00000000 3631.11010742   387624.93750000 308652.25000000 
0.16400    14521045.00000000 9500020.00000000 23480262.00000000 3536.27099609   377264.59375000 300328.40625000 
0.16500    14263067.00000000 9333515.00000000 23065868.00000000 3444.42358398   367167.06250000 292212.37500000 
0.16600    14008868.00000000 9169256.00000000 22657244.00000000 3355.48706055   357330.50000000 284303.93750000 
0.16700    13758362.00000000 9007275.00000000 22254174.00000000 3269.38964844   347749.84375000 276598.43750000 
0.16800    13511693.00000000 8847574.00000000 21857256.00000000 3186.01660156   338418.71875000 269093.81250000 
0.16900    13268874.00000000 8690191.00000000 21466280.00000000 3105.33593750   329340.31250000 261795.62500000 
0.17000    13030003.00000000 8535227.00000000 21081618.00000000 3027.26782227   320506.78125000 254689.12500000 
