# SAXS profile: number of points = 501, q_min = 0, q_max = 0.5, delta_q = 0.001
#    q    intensity 
0.00000    162236544.00000000 101202096.00000000 256271424.00000000 108110.90625000 8376155.00000000 6615390.50000000 
0.00100    162199856.00000000 101177456.00000000 256209264.00000000 108079.28906250 8373893.00000000 6613685.00000000 
0.00200    162084048.00000000 101105208.00000000 256024800.00000000 107985.46875000 8367210.50000000 6608403.00000000 
0.00300    161890016.00000000 100983368.00000000 255715952.00000000 107829.12500000 8356018.50000000 6599635.00000000 
0.00400    161615712.00000000 100813672.00000000 255285568.00000000 107610.04687500 8340463.50000000 6587354.00000000 
0.00500    161264320.00000000 100596032.00000000 254734160.00000000 107330.12500000 8320497.50000000 6571592.50000000 
0.00600    160835904.00000000 100329392.00000000 254057616.00000000 106988.71875000 8296106.50000000 6552432.50000000 
0.00700    160331456.00000000 100017704.00000000 253263952.00000000 106586.85156250 8267479.00000000 6529826.50000000 
0.00800    159749408.00000000 99657624.00000000 252353168.00000000 106124.96093750 8234539.50000000 6503864.50000000 
0.00900    159096544.00000000 99253024.00000000 251324880.00000000 105604.29687500 8197403.50000000 6474629.50000000 
0.01000    158369424.00000000 98802296.00000000 250180400.00000000 105025.81250000 8156122.50000000 6442087.50000000 
0.01100    157572464.00000000 98307336.00000000 248922400.00000000 104390.78125000 8110699.50000000 6406347.50000000 
0.01200    156704480.00000000 97767856.00000000 247552848.00000000 103699.82812500 8061400.00000000 6367433.50000000 
0.01300    155765104.00000000 97186456.00000000 246074176.00000000 102954.85937500 8008140.00000000 6325516.50000000 
0.01400    154759136.00000000 96561304.00000000 244488704.00000000 102157.21093750 7951083.50000000 6280573.50000000 
0.01500    153686576.00000000 95896192.00000000 242800208.00000000 101308.60156250 7890347.00000000 6232682.50000000 
0.01600    152550944.00000000 95191848.00000000 241010160.00000000 100409.87500000 7825974.00000000 6181973.50000000 
0.01700    151352000.00000000 94448576.00000000 239123376.00000000 99463.03906250  7758153.00000000 6128494.50000000 
0.01800    150092768.00000000 93667568.00000000 237140720.00000000 98470.36718750  7686931.50000000 6072385.00000000 
0.01900    148776352.00000000 92849648.00000000 235065072.00000000 97433.21875000  7612441.50000000 6013699.00000000 
0.02000    147402992.00000000 91997616.00000000 232901744.00000000 96353.42968750  7534886.50000000 5952560.00000000 
0.02100    145974208.00000000 91111688.00000000 230651008.00000000 95233.42187500  7454310.00000000 5889069.50000000 
0.02200    144495136.00000000 90193640.00000000 228320128.00000000 94074.65625000  7370907.50000000 5823322.00000000 
0.02300    142966400.00000000 89245104.00000000 225912896.00000000 92879.10156250  7284752.50000000 5755449.50000000 
0.02400    141389616.00000000 88266560.00000000 223427552.00000000 91648.68750000  7196081.50000000 5685542.50000000 
0.02500    139769424.00000000 87261016.00000000 220875376.00000000 90387.42968750  7104959.00000000 5613748.00000000 
0.02600    138106432.00000000 86228424.00000000 218254032.00000000 89095.66406250  7011587.00000000 5540137.50000000 
0.02700    136403184.00000000 85171448.00000000 215570480.00000000 87776.06250000  6916080.50000000 5464835.00000000 
0.02800    134663328.00000000 84091728.00000000 212829968.00000000 86430.82031250  6818602.00000000 5388007.50000000 
0.02900    132889392.00000000 82990248.00000000 210032880.00000000 85062.48437500  6719295.50000000 5309744.50000000 
0.03000    131082848.00000000 81869008.00000000 207187760.00000000 83673.04687500  6618333.00000000 5230145.50000000 
0.03100    129246680.00000000 80729264.00000000 204294304.00000000 82264.45312500  6515873.00000000 5149382.00000000 
0.03200    127385208.00000000 79573312.00000000 201359616.00000000 80838.88281250  6412078.00000000 5067509.50000000 
0.03300    125498296.00000000 78402056.00000000 198386800.00000000 79399.32031250  6307049.00000000 4984742.50000000 
0.03400    123591088.00000000 77217176.00000000 195378896.00000000 77947.66406250  6200988.50000000 4901089.00000000 
0.03500    121664304.00000000 76020576.00000000 192343424.00000000 76485.97656250  6094017.50000000 4816794.00000000 
0.03600    119721736.00000000 74814224.00000000 189281728.00000000 75017.06250000  5986340.00000000 4731878.00000000 
0.03700    117765536.00000000 73599584.00000000 186198064.00000000 73542.19531250  5878077.00000000 4646536.50000000 
0.03800    115798504.00000000 72378080.00000000 183098784.00000000 72063.91406250  5769377.50000000 4560795.50000000 
0.03900    113822728.00000000 71151016.00000000 179984240.00000000 70584.08593750  5660374.00000000 4474846.00000000 
0.04000    111841608.00000000 69920504.00000000 176861136.00000000 69104.54687500  5551220.00000000 4388794.50000000 
0.04100    109856096.00000000 68687072.00000000 173730608.00000000 67628.25000000  5442055.50000000 4302688.00000000 
0.04200    107870928.00000000 67453176.00000000 170600480.00000000 66156.26562500  5333041.00000000 4216717.50000000 
0.04300    105886544.00000000 66220416.00000000 167472064.00000000 64690.25000000  5224305.00000000 4130943.75000000 
0.04400    103905496.00000000 64989688.00000000 164349248.00000000 63232.37890625  5115910.50000000 4045473.25000000 
0.04500    101931024.00000000 63762464.00000000 161235760.00000000 61784.27343750  5008081.00000000 3960415.50000000 
0.04600    99964896.00000000 62540420.00000000 158137392.00000000 60348.01562500  4900934.00000000 3875857.25000000 
0.04700    98008568.00000000 61324180.00000000 155050512.00000000 58924.57421875  4794477.00000000 3791906.25000000 
0.04800    96064608.00000000 60116360.00000000 151986080.00000000 57515.60546875  4688914.00000000 3708636.75000000 
0.04900    94134712.00000000 58917128.00000000 148943696.00000000 56122.92578125  4584332.00000000 3626138.50000000 
0.05000    92221656.00000000 57727792.00000000 145926448.00000000 54747.52343750  4480850.50000000 3544484.50000000 
0.05100    90326664.00000000 56549784.00000000 142937552.00000000 53390.62890625  4378530.50000000 3463768.25000000 
0.05200    88451648.00000000 55383804.00000000 139980448.00000000 52053.11328125  4277503.00000000 3384060.75000000 
0.05300    86598160.00000000 54230960.00000000 137057136.00000000 50737.14843750  4177839.50000000 3305415.25000000 
0.05400    84767352.00000000 53092920.00000000 134170384.00000000 49443.01953125  4079614.25000000 3227879.75000000 
0.05500    82961672.00000000 51969684.00000000 131322384.00000000 48171.53515625  3982903.75000000 3151570.00000000 
0.05600    81181024.00000000 50862636.00000000 128514248.00000000 46923.33593750  3887792.00000000 3076487.75000000 
0.05700    79428000.00000000 49772536.00000000 125749560.00000000 45700.57421875  3794317.00000000 3002736.50000000 
0.05800    77703952.00000000 48700284.00000000 123029416.00000000 44502.14062500  3702543.00000000 2930312.75000000 
0.05900    76009368.00000000 47646204.00000000 120356128.00000000 43329.65625000  3612555.25000000 2859279.25000000 
0.06000    74345224.00000000 46611064.00000000 117732016.00000000 42183.48437500  3524379.00000000 2789684.50000000 
0.06100    72712496.00000000 45595560.00000000 115157120.00000000 41063.73437500  3438054.25000000 2721566.50000000 
0.06200    71112336.00000000 44600404.00000000 112633048.00000000 39971.44921875  3353631.00000000 2654882.75000000 
0.06300    69545680.00000000 43625976.00000000 110161360.00000000 38906.18750000  3271105.50000000 2589760.25000000 
0.06400    68012920.00000000 42672176.00000000 107743008.00000000 37868.50390625  3190556.25000000 2526158.25000000 
0.06500    66514432.00000000 41740032.00000000 105379472.00000000 36858.24218750  3111963.75000000 2464104.50000000 
0.06600    65051368.00000000 40829332.00000000 103070152.00000000 35875.64062500  3035345.75000000 2403631.50000000 
0.06700    63622724.00000000 39940556.00000000 100817136.00000000 34920.59375000  2960721.50000000 2344709.00000000 
0.06800    62229916.00000000 39074348.00000000 98619592.00000000 33993.14843750  2888080.50000000 2287356.00000000 
0.06900    60873000.00000000 38230120.00000000 96479336.00000000 33093.15625000  2817453.25000000 2231599.50000000 
0.07000    59552172.00000000 37408244.00000000 94395016.00000000 32220.57617188  2748840.00000000 2177402.25000000 
0.07100    58267072.00000000 36609044.00000000 92368240.00000000 31374.54101562  2682175.00000000 2124782.75000000 
0.07200    57018092.00000000 35831960.00000000 90397480.00000000 30554.97656250  2617486.00000000 2073701.37500000 
0.07300    55805212.00000000 35077180.00000000 88483712.00000000 29761.73828125  2554760.25000000 2024176.12500000 
0.07400    54627560.00000000 34344996.00000000 86626408.00000000 28994.32421875  2493987.75000000 1976161.87500000 
0.07500    53485700.00000000 33634704.00000000 84825176.00000000 28252.25390625  2435104.25000000 1929652.62500000 
0.07600    52378828.00000000 32946268.00000000 83079288.00000000 27534.82226562  2378082.50000000 1884646.75000000 
0.07700    51307028.00000000 32279692.00000000 81388944.00000000 26841.44921875  2322911.25000000 1841089.37500000 
0.07800    50269084.00000000 31634296.00000000 79751928.00000000 26171.97460938  2269569.75000000 1798962.50000000 
0.07900    49265292.00000000 31010194.00000000 78168328.00000000 25525.48242188  2218002.25000000 1758243.37500000 
0.08000    48294568.00000000 30407058.00000000 76638168.00000000 24901.36132812  2168159.00000000 1718889.50000000 
0.08100    47356620.00000000 29824188.00000000 75159104.00000000 24299.07031250  2120032.75000000 1680883.62500000 
0.08200    46450820.00000000 29261284.00000000 73731552.00000000 23717.76367188  2073539.75000000 1644174.75000000 
0.08300    45576260.00000000 28718206.00000000 72352880.00000000 23156.62304688  2028657.50000000 1608734.50000000 
0.08400    44732740.00000000 28194190.00000000 71022384.00000000 22615.34375000  1985332.62500000 1574530.25000000 
0.08500    43918816.00000000 27688744.00000000 69739144.00000000 22092.67382812  1943506.62500000 1541513.37500000 
0.08600    43133632.00000000 27201596.00000000 68503016.00000000 21588.38085938  1903144.12500000 1509648.12500000 
0.08700    42377048.00000000 26732030.00000000 67310656.00000000 21101.44921875  1864182.12500000 1478901.25000000 
0.08800    41647568.00000000 26279854.00000000 66161672.00000000 20631.04882812  1826585.37500000 1449212.37500000 
0.08900    40944784.00000000 25843928.00000000 65054704.00000000 20176.77734375  1790274.50000000 1420555.00000000 
0.09000    40267836.00000000 25424260.00000000 63988096.00000000 19737.82031250  1755219.00000000 1392880.37500000 
0.09100    39615216.00000000 25019964.00000000 62961096.00000000 19313.20117188  1721351.00000000 1366160.50000000 
0.09200    38986236.00000000 24630768.00000000 61971228.00000000 18902.39843750  1688629.25000000 1340345.00000000 
0.09300    38380376.00000000 24255726.00000000 61018016.00000000 18504.73632812  1656997.62500000 1315379.50000000 
0.09400    37796164.00000000 23894482.00000000 60099120.00000000 18119.25781250  1626387.75000000 1291235.37500000 
0.09500    37232492.00000000 23546374.00000000 59213388.00000000 17745.68164062  1596771.62500000 1267870.00000000 
0.09600    36689228.00000000 23210868.00000000 58359240.00000000 17383.03515625  1568086.37500000 1245233.50000000 
0.09700    36165216.00000000 22887368.00000000 57535596.00000000 17030.98632812  1540273.87500000 1223304.87500000 
0.09800    35659236.00000000 22574986.00000000 56740228.00000000 16688.73242188  1513301.50000000 1202030.62500000 
0.09900    35170332.00000000 22273684.00000000 55972248.00000000 16355.59863281  1487114.50000000 1181373.00000000 
0.10000    34697712.00000000 21982408.00000000 55230100.00000000 16031.16015625  1461655.00000000 1161300.25000000 
0.10100    34240344.00000000 21700792.00000000 54512112.00000000 15714.87500000  1436884.00000000 1141772.12500000 
0.10200    33797644.00000000 21428246.00000000 53816916.00000000 15406.19921875  1412764.25000000 1122749.50000000 
0.10300    33368130.00000000 21164302.00000000 53143532.00000000 15104.50976562  1389239.00000000 1104198.00000000 
0.10400    32951594.00000000 20908250.00000000 52490420.00000000 14809.61132812  1366273.75000000 1086092.00000000 
0.10500    32546932.00000000 20659764.00000000 51856448.00000000 14520.91699219  1343832.00000000 1068397.12500000 
0.10600    32153356.00000000 20418180.00000000 51239204.00000000 14237.89550781  1321871.37500000 1051080.00000000 
0.10700    31769774.00000000 20183070.00000000 50638484.00000000 13960.32812500  1300354.75000000 1034119.68750000 
0.10800    31396060.00000000 19953896.00000000 50053344.00000000 13687.80468750  1279254.50000000 1017480.56250000 
0.10900    31030934.00000000 19730438.00000000 49481704.00000000 13420.03320312  1258527.75000000 1001132.75000000 
0.11000    30674066.00000000 19511900.00000000 48922632.00000000 13156.62597656  1238141.50000000 985067.81250000 
0.11100    30324454.00000000 19297912.00000000 48375508.00000000 12897.45507812  1218092.37500000 969246.81250000 
0.11200    29981512.00000000 19088370.00000000 47839216.00000000 12642.07031250  1198320.75000000 953656.43750000 
0.11300    29644846.00000000 18882284.00000000 47312376.00000000 12390.40136719  1178831.00000000 938270.12500000 
0.11400    29313716.00000000 18679962.00000000 46794352.00000000 12142.19140625  1159570.37500000 923081.75000000 
0.11500    28987490.00000000 18480684.00000000 46284284.00000000 11897.33007812  1140536.75000000 908061.87500000 
0.11600    28665884.00000000 18284160.00000000 45781048.00000000 11655.49609375  1121707.62500000 893208.62500000 
0.11700    28348162.00000000 18089954.00000000 45284232.00000000 11416.79687500  1103073.00000000 878494.37500000 
0.11800    28033814.00000000 17897960.00000000 44792536.00000000 11180.81152344  1084603.25000000 863906.81250000 
0.11900    27722646.00000000 17707736.00000000 44305884.00000000 10947.70312500  1066280.75000000 849437.37500000 
0.12000    27414088.00000000 17519206.00000000 43823072.00000000 10717.32617188  1048109.62500000 835080.81250000 
0.12100    27107764.00000000 17332008.00000000 43344224.00000000 10489.55273438  1030077.12500000 820820.75000000 
0.12200    26803610.00000000 17145930.00000000 42868312.00000000 10264.48242188  1012160.62500000 806664.37500000 
0.12300    26500808.00000000 16960904.00000000 42394864.00000000 10041.96777344  994365.87500000 792587.18750000 
0.12400    26199520.00000000 16776527.00000000 41923108.00000000 9822.02539062   976681.18750000 778598.87500000 
0.12500    25899482.00000000 16592668.00000000 41453100.00000000 9604.66308594   959093.93750000 764678.56250000 
0.12600    25600264.00000000 16409402.00000000 40984460.00000000 9389.94335938   941620.43750000 750846.37500000 
0.12700    25301580.00000000 16226270.00000000 40516928.00000000 9177.80664062   924242.68750000 737082.68750000 
0.12800    25003604.00000000 16043634.00000000 40049728.00000000 8968.29980469   906959.00000000 723386.50000000 
0.12900    24706138.00000000 15860862.00000000 39583316.00000000 8761.48925781   889778.43750000 709765.50000000 
0.13000    24408626.00000000 15678105.00000000 39116988.00000000 8557.32617188   872691.75000000 696217.37500000 
0.13100    24111718.00000000 15495284.00000000 38650824.00000000 8355.99121094   855708.81250000 682742.06250000 
0.13200    23814480.00000000 15312518.00000000 38184484.00000000 8157.50537109   838827.37500000 669343.37500000 
0.13300    23517624.00000000 15129591.00000000 37717976.00000000 7961.86718750   822059.81250000 656019.62500000 
0.13400    23220544.00000000 14946448.00000000 37251292.00000000 7769.15771484   805396.31250000 642784.00000000 
0.13500    22923404.00000000 14763091.00000000 36784632.00000000 7579.42187500   788846.06250000 629630.12500000 
0.13600    22626572.00000000 14579668.00000000 36317340.00000000 7392.78759766   772422.18750000 616569.75000000 
0.13700    22329630.00000000 14395933.00000000 35850232.00000000 7209.21630859   756120.68750000 603597.68750000 
0.13800    22032568.00000000 14212081.00000000 35382740.00000000 7028.82421875   739945.12500000 590728.81250000 
0.13900    21736060.00000000 14028074.00000000 34915076.00000000 6851.64990234   723918.68750000 577958.62500000 
0.14000    21439402.00000000 13844087.00000000 34447824.00000000 6677.71630859   708032.75000000 565306.37500000 
0.14100    21143022.00000000 13659978.00000000 33980644.00000000 6507.10009766   692299.00000000 552753.06250000 
0.14200    20847106.00000000 13475849.00000000 33513150.00000000 6339.87060547   676719.12500000 540329.31250000 
0.14300    20551564.00000000 13291845.00000000 33046858.00000000 6175.93066406   661298.18750000 528030.56250000 
0.14400    20256444.00000000 13107801.00000000 32580828.00000000 6015.47021484   646053.25000000 515858.68750000 
0.14500    19962234.00000000 12924110.00000000 32115442.00000000 5858.45507812   630986.81250000 503824.25000000 
0.14600    19668496.00000000 12740626.00000000 31651062.00000000 5704.88671875   616104.56250000 491931.62500000 
0.14700    19375944.00000000 12557531.00000000 31188010.00000000 5554.84619141   601411.12500000 480184.53125000 
0.14800    19084216.00000000 12374772.00000000 30725892.00000000 5408.23388672   586912.93750000 468588.46875000 
0.14900    18793514.00000000 12192437.00000000 30265534.00000000 5265.14453125   572616.43750000 457148.53125000 
0.15000    18504068.00000000 12010850.00000000 29806720.00000000 5125.57080078   558527.31250000 445865.31250000 
0.15100    18216092.00000000 11829762.00000000 29349876.00000000 4989.42822266   544649.68750000 434751.09375000 
0.15200    17929754.00000000 11649497.00000000 28895424.00000000 4856.77099609   530993.62500000 423805.50000000 
0.15300    17645016.00000000 11469946.00000000 28443072.00000000 4727.53027344   517557.50000000 413034.56250000 
0.15400    17362010.00000000 11291422.00000000 27993294.00000000 4601.71289062   504347.62500000 402439.21875000 
0.15500    17080790.00000000 11113885.00000000 27546268.00000000 4479.25781250   491366.18750000 392020.56250000 
0.15600    16801702.00000000 10937340.00000000 27102106.00000000 4360.11132812   478614.84375000 381783.75000000 
0.15700    16524807.00000000 10762054.00000000 26661510.00000000 4244.31347656   466105.53125000 371739.00000000 
0.15800    16250204.00000000 10587878.00000000 26223812.00000000 4131.65039062   453830.90625000 361876.06250000 
0.15900    15977935.00000000 10415137.00000000 25789980.00000000 4022.22509766   441799.28125000 352205.15625000 
0.16000    15708108.00000000 10243663.00000000 25359864.00000000 3915.88818359   430004.25000000 342722.87500000 
0.16100    15440974.00000000 10073757.00000000 24933496.00000000 3812.65917969   418458.06250000 333433.37500000 
0.16200    15176549.00000000 9905355.00000000 24511290.00000000 3712.39965820   407152.43750000 324336.75000000 
0.16300    14914823.00000000 9738464.00000000 24093290.00000000 3615.05590820   396092.43750000 315432.81250000 
0.16400    14656078.00000000 9573390.00000000 23679534.00000000 3520.57495117   385276.06250000 306724.78125000 
0.16500    14400315.00000000 9409900.00000000 23270668.00000000 3428.87792969   374702.18750000 298209.78125000 
0.16600    14147519.00000000 9248158.00000000 22866132.00000000 3339.84155273   364370.40625000 289887.18750000 
0.16700    13897790.00000000 9088283.00000000 22466534.00000000 3253.41552734   354277.56250000 281753.43750000 
0.16800    13651332.00000000 8930128.00000000 22071712.00000000 3169.52807617   344425.78125000 273812.93750000 
0.16900    13408173.00000000 8774121.00000000 21681762.00000000 3088.15625000   334813.46875000 266063.90625000 
0.17000    13168298.00000000 8619902.00000000 21297096.00000000 3009.12036133   325432.03125000 258501.32812500 
