# SAXS profile: number of points = 501, q_min = 0, q_max = 0.5, delta_q = 0.001
#    q    intensity 
0.00000    162238336.00000000 101202048.00000000 256271952.00000000 103102.35156250 8179781.50000000 6460359.00000000 
0.00100    162209136.00000000 101183344.00000000 256225152.00000000 103080.46875000 8178157.00000000 6459091.50000000 
0.00200    162120496.00000000 101127728.00000000 256084368.00000000 103015.60156250 8173342.50000000 6455297.50000000 
0.00300    161972656.00000000 101035688.00000000 255850608.00000000 102908.58593750 8165333.50000000 6448992.00000000 
0.00400    161764768.00000000 100906008.00000000 255522800.00000000 102758.42187500 8154091.50000000 6440132.00000000 
0.00500    161497920.00000000 100740592.00000000 255101632.00000000 102565.85156250 8139647.00000000 6428788.50000000 
0.00600    161171280.00000000 100538248.00000000 254588208.00000000 102330.32031250 8122057.50000000 6414907.00000000 
0.00700    160785968.00000000 100299728.00000000 253981760.00000000 102052.94531250 8101317.00000000 6398585.50000000 
0.00800    160344384.00000000 100025224.00000000 253284592.00000000 101733.60937500 8077477.50000000 6379778.00000000 
0.00900    159843360.00000000 99714992.00000000 252497904.00000000 101373.68750000 8050539.50000000 6358557.00000000 
0.01000    159285616.00000000 99369960.00000000 251621696.00000000 100972.30468750 8020499.50000000 6334898.50000000 
0.01100    158672384.00000000 98989592.00000000 250655184.00000000 100530.62500000 7987436.50000000 6308859.50000000 
0.01200    158003280.00000000 98575288.00000000 249602544.00000000 100049.16406250 7951393.00000000 6280498.00000000 
0.01300    157281696.00000000 98127048.00000000 248464496.00000000 99528.12500000  7912418.00000000 6249785.00000000 
0.01400    156505680.00000000 97644744.00000000 247239552.00000000 98968.52343750  7870518.50000000 6216783.00000000 
0.01500    155675184.00000000 97129832.00000000 245930704.00000000 98370.94531250  7825781.50000000 6181529.00000000 
0.01600    154791104.00000000 96582496.00000000 244541040.00000000 97736.07031250  7778221.00000000 6144090.00000000 
0.01700    153859344.00000000 96002992.00000000 243070880.00000000 97065.04687500  7727905.00000000 6104450.50000000 
0.01800    152874208.00000000 95392512.00000000 241520960.00000000 96357.89843750  7674925.50000000 6062705.00000000 
0.01900    151840896.00000000 94751680.00000000 239893504.00000000 95616.08593750  7619306.50000000 6018894.00000000 
0.02000    150761168.00000000 94081384.00000000 238191104.00000000 94840.12500000  7561133.50000000 5973059.00000000 
0.02100    149633040.00000000 93382144.00000000 236414800.00000000 94030.56250000  7500433.50000000 5925267.50000000 
0.02200    148459600.00000000 92654064.00000000 234567728.00000000 93189.59375000  7437329.00000000 5875541.00000000 
0.02300    147243248.00000000 91899000.00000000 232649920.00000000 92317.33593750  7371827.50000000 5823944.50000000 
0.02400    145983904.00000000 91117168.00000000 230665344.00000000 91415.09375000  7304086.00000000 5770558.50000000 
0.02500    144681744.00000000 90309832.00000000 228615664.00000000 90483.29687500  7234137.00000000 5715435.00000000 
0.02600    143339936.00000000 89477600.00000000 226501072.00000000 89523.78125000  7161999.50000000 5658650.00000000 
0.02700    141960368.00000000 88621272.00000000 224327504.00000000 88537.08593750  7087841.00000000 5600212.50000000 
0.02800    140542688.00000000 87742056.00000000 222094624.00000000 87524.78125000  7011678.50000000 5540232.50000000 
0.02900    139089184.00000000 86840680.00000000 219805328.00000000 86487.94531250  6933662.00000000 5478758.00000000 
0.03000    137602272.00000000 85917808.00000000 217461600.00000000 85427.33593750  6853844.00000000 5415853.50000000 
0.03100    136082016.00000000 84974632.00000000 215068016.00000000 84343.97656250  6772279.00000000 5351597.00000000 
0.03200    134531712.00000000 84012856.00000000 212625072.00000000 83239.91406250  6689069.50000000 5286074.50000000 
0.03300    132951712.00000000 83032096.00000000 210135456.00000000 82115.71093750  6604355.50000000 5219312.50000000 
0.03400    131343992.00000000 82034392.00000000 207602256.00000000 80973.36718750  6518148.50000000 5151390.50000000 
0.03500    129709488.00000000 81020200.00000000 205026960.00000000 79812.86718750  6430580.50000000 5082407.00000000 
0.03600    128050400.00000000 79991240.00000000 202414528.00000000 78636.50000000  6341750.00000000 5012395.50000000 
0.03700    126368968.00000000 78947328.00000000 199764992.00000000 77444.84375000  6251716.50000000 4941464.50000000 
0.03800    124666368.00000000 77890880.00000000 197081824.00000000 76239.76562500  6160584.50000000 4869667.00000000 
0.03900    122944016.00000000 76821952.00000000 194369040.00000000 75021.54687500  6068469.00000000 4797057.50000000 
0.04000    121203960.00000000 75742336.00000000 191627024.00000000 73792.55468750  5975434.50000000 4723765.50000000 
0.04100    119447880.00000000 74652264.00000000 188860352.00000000 72553.05468750  5881584.00000000 4649773.50000000 
0.04200    117676576.00000000 73552800.00000000 186069936.00000000 71304.96093750  5786963.00000000 4575239.00000000 
0.04300    115893464.00000000 72445656.00000000 183261008.00000000 70048.80468750  5691726.00000000 4500164.00000000 
0.04400    114098800.00000000 71332520.00000000 180431904.00000000 68786.66406250  5595920.50000000 4424686.00000000 
0.04500    112294280.00000000 70212256.00000000 177588944.00000000 67519.71875000  5499681.00000000 4348819.00000000 
0.04600    110482408.00000000 69088088.00000000 174733344.00000000 66247.96875000  5403054.50000000 4272694.50000000 
0.04700    108663648.00000000 67959456.00000000 171868656.00000000 64973.69921875  5306167.50000000 4196313.50000000 
0.04800    106840136.00000000 66827744.00000000 168996128.00000000 63698.09375000  5209069.50000000 4119774.75000000 
0.04900    105014824.00000000 65694292.00000000 166117952.00000000 62421.54687500  5111828.50000000 4043142.00000000 
0.05000    103187184.00000000 64559724.00000000 163238016.00000000 61145.72265625  5014574.50000000 3966493.50000000 
0.05100    101359320.00000000 63425132.00000000 160358128.00000000 59871.55078125  4917388.00000000 3889860.75000000 
0.05200    99533336.00000000 62291752.00000000 157480064.00000000 58600.20703125  4820345.50000000 3813332.25000000 
0.05300    97710456.00000000 61159920.00000000 154608544.00000000 57332.86328125  4723473.00000000 3737003.25000000 
0.05400    95891600.00000000 60031104.00000000 151742816.00000000 56070.25781250  4626898.50000000 3660876.00000000 
0.05500    94079312.00000000 58905748.00000000 148885936.00000000 54813.82421875  4530723.00000000 3585057.00000000 
0.05600    92273952.00000000 57785156.00000000 146041024.00000000 53563.94921875  4434968.00000000 3509560.50000000 
0.05700    90477336.00000000 56669800.00000000 143210304.00000000 52322.14062500  4339712.50000000 3434472.25000000 
0.05800    88691136.00000000 55560720.00000000 140395504.00000000 51088.92187500  4245080.00000000 3359845.25000000 
0.05900    86916176.00000000 54458464.00000000 137597408.00000000 49865.35156250  4151080.25000000 3285737.00000000 
0.06000    85153936.00000000 53364380.00000000 134819264.00000000 48652.28906250  4057802.50000000 3212179.75000000 
0.06100    83404752.00000000 52278604.00000000 132064064.00000000 47450.64453125  3965296.75000000 3139242.50000000 
0.06200    81671184.00000000 51202168.00000000 129331576.00000000 46261.41015625  3873652.50000000 3066965.25000000 
0.06300    79953456.00000000 50135752.00000000 126624592.00000000 45084.89453125  3782909.25000000 2995403.75000000 
0.06400    78253344.00000000 49079808.00000000 123944496.00000000 43921.67968750  3693093.50000000 2924589.25000000 
0.06500    76570824.00000000 48035268.00000000 121293280.00000000 42772.75390625  3604312.75000000 2854556.75000000 
0.06600    74907304.00000000 47002488.00000000 118672120.00000000 41639.29296875  3516593.00000000 2785384.00000000 
0.06700    73264464.00000000 45982396.00000000 116082480.00000000 40521.30078125  3429992.00000000 2717060.75000000 
0.06800    71642256.00000000 44975304.00000000 113526336.00000000 39419.10937500  3344532.50000000 2649655.50000000 
0.06900    70042392.00000000 43981832.00000000 111005096.00000000 38333.77734375  3260283.25000000 2583207.75000000 
0.07000    68465696.00000000 43002352.00000000 108518888.00000000 37265.79687500  3177277.75000000 2517721.75000000 
0.07100    66911484.00000000 42037632.00000000 106069936.00000000 36215.59375000  3095537.75000000 2453252.75000000 
0.07200    65381800.00000000 41087784.00000000 103659640.00000000 35183.07421875  3015122.75000000 2389791.50000000 
0.07300    63877060.00000000 40153244.00000000 101287856.00000000 34169.58593750  2936071.50000000 2327422.75000000 
0.07400    62398240.00000000 39234712.00000000 98956464.00000000 33174.76562500  2858380.75000000 2266134.50000000 
0.07500    60944692.00000000 38332416.00000000 96666160.00000000 32199.29296875  2782115.25000000 2205927.25000000 
0.07600    59518276.00000000 37446588.00000000 94417472.00000000 31242.85742188  2707244.25000000 2146868.50000000 
0.07700    58118584.00000000 36577264.00000000 92211736.00000000 30306.65820312  2633848.00000000 2088943.25000000 
0.07800    56746452.00000000 35725448.00000000 90049200.00000000 29390.31445312  2561940.50000000 2032177.87500000 
0.07900    55401896.00000000 34890424.00000000 87930176.00000000 28494.00000000  2491520.25000000 1976588.62500000 
0.08000    54085800.00000000 34073260.00000000 85855352.00000000 27618.24023438  2422566.25000000 1922175.62500000 
0.08100    52798156.00000000 33273486.00000000 83826120.00000000 26762.89453125  2355162.00000000 1868972.25000000 
0.08200    51538988.00000000 32491514.00000000 81841080.00000000 25927.99609375  2289267.75000000 1816951.62500000 
0.08300    50308532.00000000 31727600.00000000 79901408.00000000 25113.81640625  2224910.50000000 1766136.00000000 
0.08400    49107088.00000000 30981654.00000000 78008008.00000000 24319.98046875  2162096.50000000 1716540.62500000 
0.08500    47934912.00000000 30253732.00000000 76160976.00000000 23546.89257812  2100815.00000000 1668156.12500000 
0.08600    46791700.00000000 29543910.00000000 74359128.00000000 22794.45703125  2041071.87500000 1620978.50000000 
0.08700    45677896.00000000 28852104.00000000 72602944.00000000 22062.52929688  1982881.37500000 1575018.25000000 
0.08800    44592672.00000000 28178448.00000000 70892800.00000000 21350.89843750  1926206.75000000 1530264.12500000 
0.08900    43536504.00000000 27522894.00000000 69228296.00000000 20659.46679688  1871069.75000000 1486711.00000000 
0.09000    42509488.00000000 26885180.00000000 67609928.00000000 19988.49023438  1817453.37500000 1444357.37500000 
0.09100    41511048.00000000 26265392.00000000 66036636.00000000 19337.13476562  1765343.25000000 1403176.25000000 
0.09200    40541268.00000000 25663320.00000000 64507900.00000000 18705.76953125  1714727.75000000 1363190.75000000 
0.09300    39599944.00000000 25078884.00000000 63024476.00000000 18093.94921875  1665596.25000000 1324372.75000000 
0.09400    38686656.00000000 24511922.00000000 61585024.00000000 17501.46875000  1617938.00000000 1286704.25000000 
0.09500    37800872.00000000 23962112.00000000 60189560.00000000 16927.99804688  1571727.25000000 1250186.87500000 
0.09600    36942868.00000000 23429574.00000000 58837380.00000000 16373.33886719  1526950.37500000 1214784.37500000 
0.09700    36112036.00000000 22913980.00000000 57528180.00000000 15837.24511719  1483575.75000000 1180508.37500000 
0.09800    35307812.00000000 22414768.00000000 56260728.00000000 15319.30371094  1441612.87500000 1147323.62500000 
0.09900    34529860.00000000 21931940.00000000 55035324.00000000 14819.24609375  1401010.75000000 1115217.00000000 
0.10000    33778100.00000000 21465524.00000000 53850040.00000000 14336.74609375  1361740.25000000 1084170.75000000 
0.10100    33051486.00000000 21014802.00000000 52705148.00000000 13871.44628906  1323796.50000000 1054150.75000000 
0.10200    32349790.00000000 20579396.00000000 51600072.00000000 13422.91113281  1287146.12500000 1025162.00000000 
0.10300    31672862.00000000 20159336.00000000 50533332.00000000 12990.89843750  1251765.00000000 997161.62500000 
0.10400    31019858.00000000 19754256.00000000 49504140.00000000 12574.87695312  1217616.62500000 970139.56250000 
0.10500    30390418.00000000 19363572.00000000 48512492.00000000 12174.57128906  1184686.62500000 944074.12500000 
0.10600    29783536.00000000 18987246.00000000 47556396.00000000 11789.49609375  1152924.25000000 918933.87500000 
0.10700    29199046.00000000 18624736.00000000 46635620.00000000 11419.32714844  1122309.00000000 894701.18750000 
0.10800    28636164.00000000 18275560.00000000 45749240.00000000 11063.63964844  1092826.62500000 871344.81250000 
0.10900    28094546.00000000 17939720.00000000 44895828.00000000 10721.77539062  1064420.75000000 848845.68750000 
0.11000    27573470.00000000 17616568.00000000 44075000.00000000 10393.74316406  1037071.62500000 827180.93750000 
0.11100    27072278.00000000 17305768.00000000 43285484.00000000 10078.78808594  1010756.06250000 806321.87500000 
0.11200    26590452.00000000 17006890.00000000 42525968.00000000 9776.65527344   985421.12500000 786248.18750000 
0.11300    26126902.00000000 16719698.00000000 41796308.00000000 9486.81347656   961047.75000000 766926.12500000 
0.11400    25681936.00000000 16443590.00000000 41095232.00000000 9208.98828125   937614.81250000 748335.12500000 
0.11500    25254072.00000000 16178442.00000000 40421276.00000000 8942.54785156   915064.00000000 730451.62500000 
0.11600    24842788.00000000 15923544.00000000 39773540.00000000 8687.28027344   893380.75000000 713248.12500000 
0.11700    24448098.00000000 15678746.00000000 39151396.00000000 8442.70117188   872534.37500000 696701.56250000 
0.11800    24068544.00000000 15443287.00000000 38553492.00000000 8208.32519531   852477.68750000 680778.06250000 
0.11900    23703898.00000000 15217276.00000000 37978976.00000000 7983.74414062   833192.43750000 665464.00000000 
0.12000    23353340.00000000 14999967.00000000 37426960.00000000 7768.64648438   814645.12500000 650724.31250000 
0.12100    23016530.00000000 14791040.00000000 36896312.00000000 7562.60205078   796804.18750000 636545.81250000 
0.12200    22692666.00000000 14590205.00000000 36385724.00000000 7365.20947266   779634.25000000 622891.00000000 
0.12300    22381130.00000000 14396972.00000000 35894964.00000000 7176.15039062   763106.25000000 609753.62500000 
0.12400    22081258.00000000 14210948.00000000 35422428.00000000 6994.92187500   747199.18750000 597091.06250000 
0.12500    21792484.00000000 14031827.00000000 34967320.00000000 6821.27490234   731867.87500000 584889.31250000 
0.12600    21514390.00000000 13859255.00000000 34529132.00000000 6654.84228516   717101.68750000 573131.18750000 
0.12700    21246180.00000000 13692741.00000000 34106380.00000000 6495.18261719   702865.37500000 561785.18750000 
0.12800    20987404.00000000 13532037.00000000 33698168.00000000 6342.02197266   689126.62500000 550838.87500000 
0.12900    20737452.00000000 13376814.00000000 33304002.00000000 6195.03173828   675864.50000000 540262.68750000 
0.13000    20495782.00000000 13226638.00000000 32922940.00000000 6053.88232422   663055.43750000 530043.93750000 
0.13100    20261826.00000000 13081153.00000000 32553742.00000000 5918.28320312   650664.12500000 520152.50000000 
0.13200    20035118.00000000 12940211.00000000 32196232.00000000 5787.87158203   638674.68750000 510578.84375000 
0.13300    19815212.00000000 12803431.00000000 31848916.00000000 5662.51269531   627063.25000000 501303.59375000 
0.13400    19601462.00000000 12670287.00000000 31511492.00000000 5541.74169922   615808.37500000 492304.34375000 
0.13500    19393782.00000000 12540762.00000000 31183258.00000000 5425.43261719   604879.43750000 483564.65625000 
0.13600    19191132.00000000 12414429.00000000 30863240.00000000 5313.21582031   594264.00000000 475071.93750000 
0.13700    18993384.00000000 12290995.00000000 30550698.00000000 5204.94677734   583941.81250000 466806.87500000 
0.13800    18800148.00000000 12170336.00000000 30245070.00000000 5100.33691406   573888.00000000 458753.62500000 
0.13900    18610830.00000000 12052111.00000000 29945868.00000000 4999.22705078   564089.93750000 450901.40625000 
0.14000    18425412.00000000 11936043.00000000 29652106.00000000 4901.32470703   554531.00000000 443233.78125000 
0.14100    18243184.00000000 11821891.00000000 29363488.00000000 4806.47167969   545186.68750000 435741.96875000 
0.14200    18063722.00000000 11709531.00000000 29079414.00000000 4714.45800781   536046.75000000 428404.53125000 
0.14300    17887112.00000000 11598713.00000000 28799296.00000000 4625.15234375   527098.93750000 421218.15625000 
0.14400    17712734.00000000 11489031.00000000 28522672.00000000 4538.30224609   518321.84375000 414167.87500000 
0.14500    17540238.00000000 11380586.00000000 28249072.00000000 4453.82421875   509709.93750000 407242.71875000 
0.14600    17369544.00000000 11273115.00000000 27977932.00000000 4371.57763672   501244.34375000 400435.53125000 
0.14700    17200244.00000000 11166419.00000000 27709190.00000000 4291.38134766   492919.34375000 393740.03125000 
0.14800    17032040.00000000 11060340.00000000 27441818.00000000 4213.07421875   484720.84375000 387137.93750000 
0.14900    16864898.00000000 10954686.00000000 27175924.00000000 4136.57617188   476637.71875000 380627.81250000 
0.15000    16698396.00000000 10849405.00000000 26910964.00000000 4061.81884766   468663.40625000 374204.84375000 
0.15100    16532487.00000000 10744391.00000000 26646984.00000000 3988.63867188   460787.46875000 367860.84375000 
0.15200    16366941.00000000 10639446.00000000 26383240.00000000 3917.01416016   453009.53125000 361588.65625000 
0.15300    16201606.00000000 10534541.00000000 26119596.00000000 3846.77465820   445310.81250000 355380.12500000 
0.15400    16036251.00000000 10429495.00000000 25855876.00000000 3777.83471680   437691.46875000 349237.03125000 
0.15500    15870750.00000000 10324274.00000000 25591914.00000000 3710.20019531   430146.43750000 343149.84375000 
0.15600    15705125.00000000 10218795.00000000 25327428.00000000 3643.77490234   422667.28125000 337114.18750000 
0.15700    15539185.00000000 10113037.00000000 25062422.00000000 3578.48242188   415258.12500000 331129.78125000 
0.15800    15372716.00000000 10006850.00000000 24796438.00000000 3514.24755859   407904.87500000 325192.56250000 
0.15900    15205798.00000000 9900333.00000000 24529536.00000000 3451.13305664   400610.84375000 319301.25000000 
0.16000    15038417.00000000 9793215.00000000 24261812.00000000 3388.99511719   393368.18750000 313450.06250000 
0.16100    14870376.00000000 9685725.00000000 23992780.00000000 3327.84912109   386182.43750000 307645.34375000 
0.16200    14701699.00000000 9577694.00000000 23722746.00000000 3267.62817383   379046.71875000 301878.18750000 
0.16300    14532300.00000000 9469144.00000000 23451500.00000000 3208.33032227   371959.06250000 296149.25000000 
0.16400    14362253.00000000 9360043.00000000 23178926.00000000 3149.94531250   364921.37500000 290461.28125000 
0.16500    14191542.00000000 9250430.00000000 22905258.00000000 3092.41943359   357933.06250000 284808.37500000 
0.16600    14020185.00000000 9140288.00000000 22630516.00000000 3035.79614258   350994.06250000 279199.59375000 
0.16700    13848038.00000000 9029541.00000000 22354082.00000000 2979.97119141   344100.25000000 273626.68750000 
0.16800    13675260.00000000 8918331.00000000 22076904.00000000 2925.01513672   337258.06250000 268091.46875000 
0.16900    13501908.00000000 8806663.00000000 21798642.00000000 2870.90917969   330468.87500000 262600.28125000 
0.17000    13328075.00000000 8694549.00000000 21519128.00000000 2817.62231445   323730.59375000 257148.64062500 
