# SAXS profile: number of points = 501, q_min = 0, q_max = 0.5, delta_q = 0.001
#    q    intensity 
0.00000    162238208.00000000 101202240.00000000 256270720.00000000 107953.94531250 8370024.50000000 6610646.50000000 
0.00100    162202176.00000000 101178992.00000000 256213280.00000000 107924.31250000 8367938.50000000 6608981.50000000 
0.00200    162093728.00000000 101111056.00000000 256040864.00000000 107835.74218750 8361625.50000000 6604060.00000000 
0.00300    161912064.00000000 100997928.00000000 255753328.00000000 107687.95312500 8351142.00000000 6595803.00000000 
0.00400    161655792.00000000 100840744.00000000 255351888.00000000 107482.03906250 8336454.50000000 6584292.50000000 
0.00500    161326816.00000000 100638416.00000000 254835376.00000000 107217.48437500 8317653.50000000 6569522.00000000 
0.00600    160924272.00000000 100391344.00000000 254206080.00000000 106894.87500000 8294724.50000000 6551478.00000000 
0.00700    160451520.00000000 100100008.00000000 253464352.00000000 106515.29687500 8267710.00000000 6530273.00000000 
0.00800    159907408.00000000 99765312.00000000 252612112.00000000 106078.67187500 8236643.00000000 6505891.00000000 
0.00900    159291344.00000000 99388112.00000000 251650048.00000000 105586.42968750 8201627.50000000 6478353.00000000 
0.01000    158608720.00000000 98968056.00000000 250579008.00000000 105039.21875000 8162643.50000000 6447745.50000000 
0.01100    157858736.00000000 98506296.00000000 249400288.00000000 104437.17968750 8119787.50000000 6414086.00000000 
0.01200    157043184.00000000 98003096.00000000 248117488.00000000 103782.71875000 8073137.00000000 6377435.50000000 
0.01300    156160896.00000000 97459440.00000000 246732144.00000000 103076.10937500 8022751.50000000 6337853.50000000 
0.01400    155211072.00000000 96875568.00000000 245243792.00000000 102318.33593750 7968673.50000000 6295426.00000000 
0.01500    154199968.00000000 96253040.00000000 243656560.00000000 101511.39843750 7911103.00000000 6250190.50000000 
0.01600    153127008.00000000 95592312.00000000 241973104.00000000 100655.90625000 7849979.50000000 6202183.00000000 
0.01700    151995568.00000000 94894632.00000000 240196288.00000000 99753.69531250  7785516.50000000 6151501.00000000 
0.01800    150804384.00000000 94161064.00000000 238326448.00000000 98806.01562500  7717772.00000000 6098310.00000000 
0.01900    149556224.00000000 93392496.00000000 236366976.00000000 97814.91406250  7646878.50000000 6042559.00000000 
0.02000    148253600.00000000 92590016.00000000 234322688.00000000 96781.68750000  7572832.50000000 5984409.50000000 
0.02100    146897024.00000000 91754584.00000000 232193168.00000000 95707.79687500  7495881.50000000 5923942.50000000 
0.02200    145490240.00000000 90886952.00000000 229983184.00000000 94594.75000000  7416038.00000000 5861250.00000000 
0.02300    144034432.00000000 89989288.00000000 227696736.00000000 93445.14843750  7333540.00000000 5796374.50000000 
0.02400    142528992.00000000 89062896.00000000 225335504.00000000 92260.17968750  7248405.00000000 5729445.50000000 
0.02500    140981040.00000000 88108200.00000000 222903840.00000000 91042.57031250  7160816.50000000 5660618.50000000 
0.02600    139389696.00000000 87126808.00000000 220402928.00000000 89792.64843750  7070863.50000000 5589914.50000000 
0.02700    137756768.00000000 86119760.00000000 217839552.00000000 88514.38281250  6978712.00000000 5517464.50000000 
0.02800    136085120.00000000 85089640.00000000 215214528.00000000 87207.78125000  6884447.50000000 5443381.00000000 
0.02900    134378256.00000000 84036048.00000000 212532736.00000000 85876.09375000  6788265.00000000 5367742.00000000 
0.03000    132636560.00000000 82961656.00000000 209797584.00000000 84520.63281250  6690261.00000000 5290707.50000000 
0.03100    130863128.00000000 81867904.00000000 207011024.00000000 83144.10156250  6590574.00000000 5212325.50000000 
0.03200    129060416.00000000 80754736.00000000 204178768.00000000 81747.68750000  6489386.50000000 5132735.00000000 
0.03300    127231160.00000000 79625192.00000000 201303856.00000000 80333.77343750  6386781.00000000 5051989.50000000 
0.03400    125376392.00000000 78480984.00000000 198388544.00000000 78904.50781250  6282932.50000000 4970317.00000000 
0.03500    123499552.00000000 77321872.00000000 195438912.00000000 77462.32812500  6177971.50000000 4887764.00000000 
0.03600    121602528.00000000 76150312.00000000 192457376.00000000 76008.31250000  6072006.00000000 4804391.50000000 
0.03700    119687720.00000000 74967624.00000000 189447648.00000000 74545.22656250  5965246.50000000 4720393.00000000 
0.03800    117757744.00000000 73774760.00000000 186413440.00000000 73074.16406250  5857768.50000000 4635790.50000000 
0.03900    115814816.00000000 72573952.00000000 183357488.00000000 71597.82812500  5749695.00000000 4550752.50000000 
0.04000    113861552.00000000 71366584.00000000 180287248.00000000 70118.35937500  5641231.50000000 4465361.50000000 
0.04100    111899248.00000000 70154200.00000000 177201024.00000000 68637.52343750  5532460.00000000 4379757.50000000 
0.04200    109931032.00000000 68937600.00000000 174106032.00000000 67156.03906250  5423534.00000000 4293989.50000000 
0.04300    107959704.00000000 67717808.00000000 171004272.00000000 65677.12500000  5314544.00000000 4208199.50000000 
0.04400    105986168.00000000 66496292.00000000 167898704.00000000 64201.58203125  5205682.50000000 4122424.25000000 
0.04500    104013728.00000000 65275064.00000000 164794048.00000000 62732.19531250  5097005.50000000 4036839.75000000 
0.04600    102043208.00000000 64055524.00000000 161693472.00000000 61269.51562500  4988685.00000000 3951511.25000000 
0.04700    100077824.00000000 62838488.00000000 158600128.00000000 59815.86328125  4880811.50000000 3866525.00000000 
0.04800    98119304.00000000 61625324.00000000 155517728.00000000 58372.78515625  4773491.00000000 3781954.50000000 
0.04900    96168784.00000000 60417184.00000000 152447600.00000000 56941.58984375  4666893.00000000 3697928.50000000 
0.05000    94230312.00000000 59215076.00000000 149394240.00000000 55523.75781250  4561041.00000000 3614501.75000000 
0.05100    92303608.00000000 58021060.00000000 146359920.00000000 54120.50390625  4456083.50000000 3531788.25000000 
0.05200    90391360.00000000 56835188.00000000 143348928.00000000 52733.76953125  4352133.00000000 3449820.00000000 
0.05300    88495256.00000000 55659136.00000000 140362016.00000000 51364.37890625  4249307.50000000 3368691.00000000 
0.05400    86617208.00000000 54493908.00000000 137403184.00000000 50013.64062500  4147586.25000000 3288500.25000000 
0.05500    84758952.00000000 53339996.00000000 134473840.00000000 48682.68750000  4047171.00000000 3209279.50000000 
0.05600    82921616.00000000 52199100.00000000 131578320.00000000 47372.28515625  3948091.50000000 3131092.25000000 
0.05700    81106104.00000000 51071648.00000000 128717944.00000000 46083.87500000  3850454.50000000 3054030.50000000 
0.05800    79315024.00000000 49958952.00000000 125893928.00000000 44818.29296875  3754301.00000000 2978134.25000000 
0.05900    77549224.00000000 48861256.00000000 123108968.00000000 43575.83984375  3659711.50000000 2903470.75000000 
0.06000    75810456.00000000 47779708.00000000 120365224.00000000 42358.34375000  3566751.25000000 2830068.25000000 
0.06100    74098256.00000000 46714968.00000000 117665032.00000000 41165.68750000  3475496.75000000 2757983.25000000 
0.06200    72414880.00000000 45667636.00000000 115009896.00000000 39998.17187500  3385974.25000000 2687246.50000000 
0.06300    70762616.00000000 44638540.00000000 112400888.00000000 38857.56640625  3298229.00000000 2617939.00000000 
0.06400    69139784.00000000 43628220.00000000 109840152.00000000 37743.31640625  3212319.25000000 2550045.75000000 
0.06500    67549184.00000000 42637288.00000000 107328992.00000000 36656.19531250  3128301.75000000 2483613.75000000 
0.06600    65990588.00000000 41665848.00000000 104867904.00000000 35596.46484375  3046180.25000000 2418696.75000000 
0.06700    64465204.00000000 40714896.00000000 102459208.00000000 34565.05468750  2965999.25000000 2355280.00000000 
0.06800    62973996.00000000 39784408.00000000 100102904.00000000 33560.94140625  2887776.50000000 2293402.25000000 
0.06900    61516288.00000000 38875188.00000000 97800920.00000000 32585.03515625  2811537.00000000 2233093.75000000 
0.07000    60093488.00000000 37987172.00000000 95552512.00000000 31637.34960938  2737296.50000000 2174343.75000000 
0.07100    58706300.00000000 37120568.00000000 93359192.00000000 30718.04492188  2665051.75000000 2117172.75000000 
0.07200    57354108.00000000 36276036.00000000 91221736.00000000 29826.71289062  2594840.75000000 2061560.12500000 
0.07300    56037956.00000000 35452976.00000000 89139624.00000000 28963.46484375  2526639.25000000 2007551.00000000 
0.07400    54757072.00000000 34652264.00000000 87114544.00000000 28128.03515625  2460473.25000000 1955136.25000000 
0.07500    53512384.00000000 33873540.00000000 85144720.00000000 27320.21093750  2396310.25000000 1904284.50000000 
0.07600    52303588.00000000 33116796.00000000 83231984.00000000 26539.73632812  2334114.25000000 1855016.00000000 
0.07700    51130712.00000000 32382576.00000000 81376240.00000000 25786.33789062  2273940.25000000 1807305.37500000 
0.07800    49993552.00000000 31670126.00000000 79576400.00000000 25059.75781250  2215734.50000000 1761145.00000000 
0.07900    48892060.00000000 30979696.00000000 77831216.00000000 24359.30468750  2159455.50000000 1716519.25000000 
0.08000    47825912.00000000 30311236.00000000 76142592.00000000 23684.70507812  2105110.00000000 1673405.75000000 
0.08100    46794568.00000000 29664428.00000000 74509192.00000000 23035.52929688  2052685.00000000 1631796.00000000 
0.08200    45798108.00000000 29039134.00000000 72930256.00000000 22410.94531250  2002099.87500000 1591644.00000000 
0.08300    44835520.00000000 28434920.00000000 71405288.00000000 21810.69726562  1953346.12500000 1552935.75000000 
0.08400    43907244.00000000 27851778.00000000 69933096.00000000 21234.03710938  1906418.12500000 1515651.87500000 
0.08500    43011976.00000000 27289114.00000000 68513936.00000000 20680.45312500  1861234.12500000 1479761.12500000 
0.08600    42149192.00000000 26747062.00000000 67145656.00000000 20149.05273438  1817755.62500000 1445233.12500000 
0.08700    41318932.00000000 26224720.00000000 65828644.00000000 19639.46289062  1775970.87500000 1412011.37500000 
0.08800    40519696.00000000 25722114.00000000 64560664.00000000 19150.80273438  1735803.62500000 1380090.87500000 
0.08900    39751516.00000000 25238532.00000000 63341408.00000000 18682.35937500  1697228.50000000 1349417.12500000 
0.09000    39013464.00000000 24773628.00000000 62169776.00000000 18233.74609375  1660191.50000000 1319958.12500000 
0.09100    38304148.00000000 24327020.00000000 61043892.00000000 17803.70898438  1624642.00000000 1291678.50000000 
0.09200    37622932.00000000 23898082.00000000 59963040.00000000 17391.66992188  1590535.00000000 1264538.37500000 
0.09300    36969980.00000000 23486648.00000000 58925600.00000000 16997.22265625  1557807.50000000 1238493.37500000 
0.09400    36343548.00000000 23091760.00000000 57931100.00000000 16619.17968750  1526411.62500000 1213503.12500000 
0.09500    35742832.00000000 22713112.00000000 56977220.00000000 16256.93652344  1496285.50000000 1189531.62500000 
0.09600    35167144.00000000 22350064.00000000 56063248.00000000 15909.69335938  1467411.62500000 1166532.87500000 
0.09700    34615724.00000000 22002222.00000000 55186448.00000000 15576.91992188  1439703.37500000 1144458.12500000 
0.09800    34087176.00000000 21668950.00000000 54347184.00000000 15257.63085938  1413100.12500000 1123286.87500000 
0.09900    33581096.00000000 21349610.00000000 53543196.00000000 14951.22753906  1387576.37500000 1102953.12500000 
0.10000    33095604.00000000 21043718.00000000 52772600.00000000 14656.92773438  1363055.37500000 1083427.00000000 
0.10100    32630892.00000000 20750650.00000000 52034264.00000000 14374.00390625  1339494.25000000 1064657.12500000 
0.10200    32185408.00000000 20469776.00000000 51326836.00000000 14101.74609375  1316832.00000000 1046605.56250000 
0.10300    31758492.00000000 20200558.00000000 50648548.00000000 13839.59082031  1295037.87500000 1029239.81250000 
0.10400    31348942.00000000 19942564.00000000 49998384.00000000 13586.58300781  1274023.00000000 1012507.12500000 
0.10500    30956062.00000000 19695034.00000000 49374380.00000000 13342.44921875  1253772.87500000 996380.87500000 
0.10600    30578590.00000000 19457338.00000000 48774924.00000000 13106.36035156  1234213.87500000 980809.62500000 
0.10700    30215752.00000000 19228992.00000000 48199340.00000000 12877.75488281  1215317.12500000 965759.43750000 
0.10800    29866536.00000000 19009378.00000000 47645744.00000000 12655.93457031  1197010.12500000 951192.06250000 
0.10900    29530308.00000000 18797968.00000000 47112396.00000000 12440.43554688  1179259.87500000 937069.56250000 
0.11000    29206036.00000000 18594316.00000000 46598328.00000000 12230.69433594  1162032.25000000 923368.18750000 
0.11100    28892734.00000000 18397788.00000000 46101684.00000000 12026.23046875  1145269.87500000 910031.81250000 
0.11200    28589644.00000000 18207890.00000000 45621548.00000000 11826.58984375  1128928.87500000 897040.12500000 
0.11300    28295876.00000000 18024000.00000000 45156752.00000000 11631.16406250  1112977.75000000 884358.00000000 
0.11400    28010896.00000000 17845558.00000000 44705940.00000000 11439.69824219  1097382.37500000 871966.12500000 
0.11500    27733604.00000000 17672264.00000000 44267416.00000000 11251.62695312  1082093.12500000 859822.81250000 
0.11600    27463254.00000000 17503680.00000000 43840028.00000000 11066.55371094  1067082.37500000 847903.12500000 
0.11700    27199464.00000000 17339168.00000000 43423584.00000000 10884.35546875  1052312.62500000 836187.81250000 
0.11800    26940938.00000000 17178258.00000000 43015768.00000000 10704.48046875  1037758.93750000 824628.50000000 
0.11900    26687450.00000000 17020606.00000000 42615896.00000000 10526.55566406  1023378.37500000 813232.68750000 
0.12000    26438136.00000000 16865944.00000000 42222664.00000000 10350.56347656  1009155.50000000 801954.68750000 
0.12100    26192602.00000000 16713667.00000000 41835860.00000000 10176.11328125  995070.37500000 790788.56250000 
0.12200    25950154.00000000 16563484.00000000 41454168.00000000 10002.97363281  981084.43750000 779707.93750000 
0.12300    25710154.00000000 16414968.00000000 41076716.00000000 9830.97753906   967184.43750000 768696.50000000 
0.12400    25472066.00000000 16267917.00000000 40702080.00000000 9659.91308594   953341.31250000 757736.62500000 
0.12500    25235524.00000000 16121762.00000000 40330360.00000000 9489.68359375   939548.75000000 746817.75000000 
0.12600    25000186.00000000 15976603.00000000 39960416.00000000 9320.14648438   925787.50000000 735925.37500000 
0.12700    24765274.00000000 15831808.00000000 39591560.00000000 9151.06445312   912039.00000000 725043.81250000 
0.12800    24530492.00000000 15687256.00000000 39223244.00000000 8982.55468750   898288.87500000 714170.68750000 
0.12900    24295484.00000000 15542721.00000000 38854516.00000000 8814.41210938   884534.62500000 703283.50000000 
0.13000    24060200.00000000 15397917.00000000 38485216.00000000 8646.69433594   870759.56250000 692390.75000000 
0.13100    23823994.00000000 15252658.00000000 38114700.00000000 8479.25878906   856955.62500000 681472.93750000 
0.13200    23586680.00000000 15106827.00000000 37742576.00000000 8312.12988281   843126.75000000 670533.43750000 
0.13300    23348106.00000000 14960177.00000000 37368324.00000000 8145.45703125   829255.68750000 659558.87500000 
0.13400    23107982.00000000 14812659.00000000 36991904.00000000 7978.99316406   815345.43750000 648561.00000000 
0.13500    22866100.00000000 14663972.00000000 36612552.00000000 7813.01611328   801396.93750000 637524.87500000 
0.13600    22622310.00000000 14514179.00000000 36230316.00000000 7647.47021484   787406.18750000 626454.25000000 
0.13700    22376690.00000000 14363150.00000000 35844872.00000000 7482.45214844   773373.75000000 615352.12500000 
0.13800    22128796.00000000 14210794.00000000 35456160.00000000 7317.99023438   759301.50000000 604213.75000000 
0.13900    21878892.00000000 14057045.00000000 35063840.00000000 7154.24902344   745192.62500000 593048.68750000 
0.14000    21626720.00000000 13901772.00000000 34668128.00000000 6991.24023438   731054.12500000 581856.68750000 
0.14100    21372144.00000000 13745198.00000000 34268996.00000000 6829.09472656   716896.31250000 570644.31250000 
0.14200    21115604.00000000 13587072.00000000 33865740.00000000 6667.90185547   702714.31250000 559410.56250000 
0.14300    20856834.00000000 13427482.00000000 33459066.00000000 6507.83007812   688525.00000000 548162.18750000 
0.14400    20595634.00000000 13266353.00000000 33048824.00000000 6348.88476562   674328.43750000 536913.50000000 
0.14500    20332452.00000000 13103910.00000000 32635200.00000000 6191.28466797   660142.37500000 525666.75000000 
0.14600    20067244.00000000 12940044.00000000 32218106.00000000 6035.12939453   645962.93750000 514421.90625000 
0.14700    19800158.00000000 12774802.00000000 31798082.00000000 5880.56542969   631814.68750000 503194.90625000 
0.14800    19531234.00000000 12608370.00000000 31374780.00000000 5727.62402344   617697.50000000 491988.09375000 
0.14900    19260680.00000000 12440712.00000000 30948520.00000000 5576.53173828   603618.00000000 480812.25000000 
0.15000    18988486.00000000 12271880.00000000 30519674.00000000 5427.30419922   589599.62500000 469676.71875000 
0.15100    18714916.00000000 12102034.00000000 30088540.00000000 5280.16113281   575651.62500000 458589.81250000 
0.15200    18440126.00000000 11931247.00000000 29655208.00000000 5135.22167969   561778.31250000 447563.59375000 
0.15300    18164564.00000000 11759694.00000000 29220098.00000000 4992.54980469   547997.75000000 436596.68750000 
0.15400    17887898.00000000 11587297.00000000 28783294.00000000 4852.22656250   534311.87500000 425705.71875000 
0.15500    17610724.00000000 11414417.00000000 28345270.00000000 4714.40771484   520739.37500000 414904.59375000 
0.15600    17332918.00000000 11240993.00000000 27906228.00000000 4579.21093750   507290.93750000 404188.46875000 
0.15700    17055032.00000000 11067252.00000000 27466734.00000000 4446.72607422   493981.40625000 393579.81250000 
0.15800    16777066.00000000 10893194.00000000 27026626.00000000 4316.94628906   480809.21875000 383077.68750000 
0.15900    16499307.00000000 10719160.00000000 26586832.00000000 4190.07617188   467797.15625000 372697.25000000 
0.16000    16221923.00000000 10545064.00000000 26147322.00000000 4066.11010742   454950.65625000 362441.53125000 
0.16100    15945264.00000000 10371176.00000000 25708412.00000000 3945.21313477   442284.37500000 352323.40625000 
0.16200    15669387.00000000 10197571.00000000 25270742.00000000 3827.32983398   429801.15625000 342345.56250000 
0.16300    15394563.00000000 10024439.00000000 24834342.00000000 3712.56250000   417513.78125000 332521.46875000 
0.16400    15121052.00000000 9851847.00000000 24399734.00000000 3600.95581055   405431.09375000 322853.56250000 
0.16500    14849019.00000000 9680070.00000000 23967102.00000000 3492.54174805   393562.43750000 313350.25000000 
0.16600    14578747.00000000 9508972.00000000 23537238.00000000 3387.36791992   381912.50000000 304015.87500000 
0.16700    14310257.00000000 9339005.00000000 23109640.00000000 3285.40966797   370487.50000000 294859.15625000 
0.16800    14043967.00000000 9170026.00000000 22685426.00000000 3186.72607422   359294.78125000 285882.81250000 
0.16900    13780128.00000000 9002375.00000000 22264740.00000000 3091.30200195   348348.31250000 277097.62500000 
0.17000    13518596.00000000 8836049.00000000 21847288.00000000 2999.12207031   337645.87500000 268500.43750000 
