# SAXS profile: number of points = 501, q_min = 0, q_max = 0.5, delta_q = 0.001
#    q    intensity 
0.00000    162234832.00000000 101202384.00000000 256270640.00000000 95878.89843750  7888009.50000000 6229930.00000000 
0.00100    162206336.00000000 101182920.00000000 256221856.00000000 95854.18750000  7886240.00000000 6228537.00000000 
0.00200    162116688.00000000 101126208.00000000 256078224.00000000 95780.78906250  7880983.50000000 6224387.00000000 
0.00300    161965120.00000000 101031088.00000000 255836800.00000000 95658.72656250  7872148.50000000 6217462.50000000 
0.00400    161750608.00000000 100899088.00000000 255499616.00000000 95488.95312500  7859806.00000000 6207739.00000000 
0.00500    161474112.00000000 100728936.00000000 255066912.00000000 95270.33593750  7843908.00000000 6195330.00000000 
0.00600    161133984.00000000 100521280.00000000 254536992.00000000 95003.85156250  7824624.50000000 6180123.00000000 
0.00700    160738400.00000000 100277224.00000000 253916112.00000000 94690.03906250  7801850.00000000 6162274.00000000 
0.00800    160279216.00000000 99995736.00000000 253198272.00000000 94329.52343750  7775703.50000000 6141734.00000000 
0.00900    159759984.00000000 99678856.00000000 252388960.00000000 93922.48437500  7746172.00000000 6118526.50000000 
0.01000    159186720.00000000 99325848.00000000 251487184.00000000 93469.91406250  7713313.00000000 6092706.50000000 
0.01100    158554736.00000000 98938384.00000000 250496368.00000000 92973.64843750  7677192.00000000 6064346.50000000 
0.01200    157867312.00000000 98514216.00000000 249416464.00000000 92431.76562500  7637809.50000000 6033458.00000000 
0.01300    157123808.00000000 98056024.00000000 248247136.00000000 91847.41406250  7595334.50000000 6000006.00000000 
0.01400    156322096.00000000 97564016.00000000 246991824.00000000 91220.97656250  7549674.50000000 5964188.50000000 
0.01500    155467168.00000000 97038120.00000000 245652608.00000000 90553.10156250  7501022.00000000 5925970.50000000 
0.01600    154560560.00000000 96480064.00000000 244229824.00000000 89845.40625000  7449359.00000000 5885406.50000000 
0.01700    153602400.00000000 95890736.00000000 242726304.00000000 89098.96093750  7394864.00000000 5842578.00000000 
0.01800    152593360.00000000 95270104.00000000 241141888.00000000 88314.61718750  7337556.00000000 5797528.00000000 
0.01900    151534176.00000000 94619288.00000000 239483552.00000000 87493.59375000  7277469.50000000 5750353.00000000 
0.02000    150427616.00000000 93938200.00000000 237745728.00000000 86637.97656250  7214776.00000000 5701077.50000000 
0.02100    149274448.00000000 93228688.00000000 235938112.00000000 85748.23437500  7149525.50000000 5649800.50000000 
0.02200    148076560.00000000 92491216.00000000 234057936.00000000 84825.82812500  7081801.00000000 5596599.00000000 
0.02300    146835296.00000000 91727128.00000000 232111328.00000000 83872.42187500  7011714.50000000 5541488.00000000 
0.02400    145551968.00000000 90937520.00000000 230095920.00000000 82889.65625000  6939338.50000000 5484621.00000000 
0.02500    144227168.00000000 90121872.00000000 228018000.00000000 81879.17968750  6864806.00000000 5426063.00000000 
0.02600    142864592.00000000 89282304.00000000 225877136.00000000 80841.37500000  6788215.50000000 5365873.50000000 
0.02700    141463696.00000000 88419808.00000000 223681152.00000000 79778.88281250  6709638.50000000 5304081.50000000 
0.02800    140027328.00000000 87534976.00000000 221425536.00000000 78693.55468750  6629226.50000000 5240831.50000000 
0.02900    138557936.00000000 86629336.00000000 219117040.00000000 77586.16406250  6547009.50000000 5176251.00000000 
0.03000    137055760.00000000 85703576.00000000 216759728.00000000 76458.39062500  6463205.50000000 5110337.00000000 
0.03100    135522832.00000000 84759112.00000000 214352864.00000000 75312.18750000  6377837.00000000 5043193.00000000 
0.03200    133961072.00000000 83796344.00000000 211900224.00000000 74148.22656250  6291018.50000000 4974984.50000000 
0.03300    132373088.00000000 82817224.00000000 209405344.00000000 72970.06250000  6202913.00000000 4905636.00000000 
0.03400    130759416.00000000 81821584.00000000 206871120.00000000 71777.08593750  6113617.50000000 4835374.00000000 
0.03500    129122472.00000000 80812720.00000000 204300448.00000000 70572.41406250  6023166.50000000 4764266.50000000 
0.03600    127464312.00000000 79789112.00000000 201695952.00000000 69357.29687500  5931763.50000000 4692383.50000000 
0.03700    125785992.00000000 78753216.00000000 199058176.00000000 68133.23437500  5839493.00000000 4619775.50000000 
0.03800    124089664.00000000 77706464.00000000 196392256.00000000 66901.49218750  5746427.00000000 4546546.50000000 
0.03900    122376824.00000000 76649576.00000000 193701408.00000000 65664.28125000  5652706.50000000 4472807.50000000 
0.04000    120650112.00000000 75583728.00000000 190987936.00000000 64422.79296875  5558430.00000000 4398638.00000000 
0.04100    118910976.00000000 74509752.00000000 188253600.00000000 63178.34765625  5463762.00000000 4324084.00000000 
0.04200    117160080.00000000 73428328.00000000 185503216.00000000 61932.63281250  5368700.00000000 4249325.50000000 
0.04300    115400920.00000000 72341256.00000000 182736000.00000000 60687.06250000  5273401.00000000 4174290.75000000 
0.04400    113633904.00000000 71248560.00000000 179956784.00000000 59442.63671875  5178008.00000000 4099148.25000000 
0.04500    111860912.00000000 70152624.00000000 177169600.00000000 58201.62500000  5082565.00000000 4023985.50000000 
0.04600    110084224.00000000 69053536.00000000 174374816.00000000 56964.70312500  4987132.50000000 3948856.75000000 
0.04700    108305608.00000000 67952856.00000000 171576016.00000000 55733.21484375  4891888.00000000 3873860.75000000 
0.04800    106525264.00000000 66851400.00000000 168775584.00000000 54508.47265625  4796907.00000000 3799020.00000000 
0.04900    104746312.00000000 65750292.00000000 165976144.00000000 53291.78906250  4702236.50000000 3724465.75000000 
0.05000    102968864.00000000 64649928.00000000 163179264.00000000 52084.29687500  4608017.50000000 3650206.75000000 
0.05100    101196200.00000000 63552180.00000000 160388176.00000000 50887.09375000  4514289.00000000 3576374.25000000 
0.05200    99427704.00000000 62456732.00000000 157605152.00000000 49700.99218750  4421170.50000000 3502959.25000000 
0.05300    97666720.00000000 61365484.00000000 154831616.00000000 48527.68750000  4328706.50000000 3430083.75000000 
0.05400    95914032.00000000 60279048.00000000 152071248.00000000 47367.39062500  4236992.00000000 3357779.75000000 
0.05500    94170336.00000000 59197912.00000000 149325296.00000000 46221.59375000  4146076.75000000 3286113.50000000 
0.05600    92437424.00000000 58123088.00000000 146596288.00000000 45090.51953125  4056076.50000000 3215109.25000000 
0.05700    90716376.00000000 57055520.00000000 143883776.00000000 43975.46875000  3966983.75000000 3144871.00000000 
0.05800    89008560.00000000 55995628.00000000 141193456.00000000 42876.98046875  3878937.75000000 3075411.75000000 
0.05900    87315728.00000000 54944124.00000000 138525552.00000000 41795.57031250  3791929.25000000 3006791.00000000 
0.06000    85636808.00000000 53901780.00000000 135880272.00000000 40732.29296875  3706074.75000000 2939046.25000000 
0.06100    83975728.00000000 52869940.00000000 133261624.00000000 39687.36328125  3621368.25000000 2872210.00000000 
0.06200    82331144.00000000 51848112.00000000 130669512.00000000 38661.66015625  3537915.00000000 2806329.50000000 
0.06300    80705600.00000000 50837436.00000000 128105656.00000000 37655.44921875  3455707.00000000 2741430.50000000 
0.06400    79099128.00000000 49838544.00000000 125572064.00000000 36668.66015625  3374816.50000000 2677567.25000000 
0.06500    77512384.00000000 48851748.00000000 123069472.00000000 35702.67968750  3295263.25000000 2614741.25000000 
0.06600    75947344.00000000 47877468.00000000 120599984.00000000 34756.86328125  3217095.25000000 2553005.75000000 
0.06700    74403392.00000000 46916556.00000000 118163520.00000000 33831.85156250  3140324.50000000 2492387.25000000 
0.06800    72881968.00000000 45969124.00000000 115762376.00000000 32927.80078125  3064982.00000000 2432853.00000000 
0.06900    71383456.00000000 45035964.00000000 113397080.00000000 32045.12109375  2991097.25000000 2374485.00000000 
0.07000    69908120.00000000 44116632.00000000 111067272.00000000 31183.55273438  2918700.00000000 2317257.00000000 
0.07100    68456960.00000000 43212036.00000000 108776304.00000000 30343.34765625  2847790.00000000 2261214.00000000 
0.07200    67030400.00000000 42322304.00000000 106522944.00000000 29524.41601562  2778370.75000000 2206338.75000000 
0.07300    65628728.00000000 41448216.00000000 104308632.00000000 28726.91992188  2710491.75000000 2152657.50000000 
0.07400    64252084.00000000 40589284.00000000 102134496.00000000 27950.60937500  2644117.50000000 2100162.00000000 
0.07500    62901252.00000000 39746004.00000000 99999136.00000000 27195.32226562  2579272.25000000 2048880.00000000 
0.07600    61575628.00000000 38918516.00000000 97904144.00000000 26461.04882812  2515982.25000000 1998786.25000000 
0.07700    60276528.00000000 38107168.00000000 95851480.00000000 25747.73828125  2454165.50000000 1949901.37500000 
0.07800    59003808.00000000 37311672.00000000 93838936.00000000 25054.82617188  2393914.50000000 1902206.37500000 
0.07900    57756848.00000000 36532536.00000000 91867024.00000000 24382.20703125  2335141.25000000 1855704.62500000 
0.08000    56536932.00000000 35769560.00000000 89937872.00000000 23729.62695312  2277905.75000000 1810389.12500000 
0.08100    55343300.00000000 35022812.00000000 88049752.00000000 23096.98046875  2222172.00000000 1766236.00000000 
0.08200    54175592.00000000 34292308.00000000 86202488.00000000 22483.37500000  2167910.75000000 1723262.37500000 
0.08300    53034604.00000000 33578388.00000000 84397648.00000000 21889.16210938  2115077.75000000 1681433.50000000 
0.08400    51919848.00000000 32880660.00000000 82633096.00000000 21313.41601562  2063723.00000000 1640738.37500000 
0.08500    50830972.00000000 32199102.00000000 80910120.00000000 20755.92382812  2013790.62500000 1601175.62500000 
0.08600    49768652.00000000 31533392.00000000 79228040.00000000 20216.20703125  1965267.00000000 1562716.62500000 
0.08700    48732112.00000000 30883790.00000000 77586504.00000000 19694.05859375  1918106.87500000 1525349.75000000 
0.08800    47720508.00000000 30250074.00000000 75985560.00000000 19188.68164062  1872316.12500000 1489048.62500000 
0.08900    46734828.00000000 29632306.00000000 74423968.00000000 18699.97656250  1827854.50000000 1453793.25000000 
0.09000    45773652.00000000 29029684.00000000 72902624.00000000 18227.25976562  1784701.50000000 1419569.87500000 
0.09100    44838056.00000000 28442640.00000000 71419432.00000000 17769.93164062  1742811.37500000 1386360.00000000 
0.09200    43925984.00000000 27870632.00000000 69975248.00000000 17327.63671875  1702184.00000000 1354123.62500000 
0.09300    43038368.00000000 27313690.00000000 68568536.00000000 16900.14453125  1662772.12500000 1322850.12500000 
0.09400    42174308.00000000 26771324.00000000 67199280.00000000 16486.56640625  1624531.12500000 1292507.87500000 
0.09500    41333496.00000000 26243634.00000000 65867004.00000000 16086.58984375  1587441.87500000 1263075.00000000 
0.09600    40515476.00000000 25729924.00000000 64570800.00000000 15699.64453125  1551485.50000000 1234537.25000000 
0.09700    39720280.00000000 25230426.00000000 63309632.00000000 15325.31347656  1516612.12500000 1206851.75000000 
0.09800    38946432.00000000 24744528.00000000 62083008.00000000 14963.14941406  1482801.12500000 1180016.62500000 
0.09900    38194100.00000000 24272144.00000000 60890660.00000000 14612.59179688  1450008.37500000 1153974.75000000 
0.10000    37462860.00000000 23812804.00000000 59731356.00000000 14273.16406250  1418201.62500000 1128721.37500000 
0.10100    36751896.00000000 23366174.00000000 58604324.00000000 13944.34375000  1387338.87500000 1104218.00000000 
0.10200    36060948.00000000 22932054.00000000 57509196.00000000 13625.80761719  1357419.12500000 1080447.50000000 
0.10300    35389308.00000000 22510314.00000000 56444540.00000000 13317.04589844  1328387.75000000 1057386.75000000 
0.10400    34737052.00000000 22100406.00000000 55410196.00000000 13017.49609375  1300197.12500000 1034995.87500000 
0.10500    34103164.00000000 21702026.00000000 54405208.00000000 12726.92675781  1272853.37500000 1013268.06250000 
0.10600    33486812.00000000 21314826.00000000 53427804.00000000 12444.71093750  1246287.37500000 992164.37500000 
0.10700    32888216.00000000 20938688.00000000 52478836.00000000 12170.70605469  1220481.87500000 971663.18750000 
0.10800    32306360.00000000 20572900.00000000 51555848.00000000 11904.28320312  1195419.12500000 951734.37500000 
0.10900    31740890.00000000 20217648.00000000 50658964.00000000 11645.12500000  1171044.50000000 932365.56250000 
0.11000    31190802.00000000 19872306.00000000 49787208.00000000 11392.86523438  1147347.75000000 913530.87500000 
0.11100    30656242.00000000 19536620.00000000 48940032.00000000 11147.22460938  1124278.37500000 895203.50000000 
0.11200    30136560.00000000 19209984.00000000 48115892.00000000 10907.86328125  1101837.62500000 877357.18750000 
0.11300    29630858.00000000 18892598.00000000 47314524.00000000 10674.35937500  1079975.75000000 859976.62500000 
0.11400    29139226.00000000 18583656.00000000 46534432.00000000 10446.52050781  1058679.62500000 843042.31250000 
0.11500    28660604.00000000 18283358.00000000 45776388.00000000 10223.99511719  1037907.00000000 826530.50000000 
0.11600    28194740.00000000 17990782.00000000 45037876.00000000 10006.50195312  1017635.75000000 810423.37500000 
0.11700    27741014.00000000 17706100.00000000 44318924.00000000 9793.89355469   997862.31250000 794697.75000000 
0.11800    27298984.00000000 17428980.00000000 43618648.00000000 9585.72265625   978541.87500000 779334.18750000 
0.11900    26868486.00000000 17158832.00000000 42936680.00000000 9381.93945312   959655.50000000 764320.00000000 
0.12000    26448744.00000000 16895456.00000000 42271432.00000000 9182.21484375   941190.00000000 749636.31250000 
0.12100    26039434.00000000 16638916.00000000 41622924.00000000 8986.42089844   923122.87500000 735269.37500000 
0.12200    25640104.00000000 16388463.00000000 40990240.00000000 8794.41894531   905433.31250000 721202.25000000 
0.12300    25250168.00000000 16144073.00000000 40372724.00000000 8605.88671875   888108.18750000 707418.81250000 
0.12400    24869398.00000000 15905529.00000000 39769584.00000000 8420.85839844   871117.37500000 693908.93750000 
0.12500    24497326.00000000 15672348.00000000 39180612.00000000 8239.02343750   854455.00000000 680651.31250000 
0.12600    24133602.00000000 15444571.00000000 38604648.00000000 8060.38623047   838100.18750000 667642.00000000 
0.12700    23777718.00000000 15221846.00000000 38041352.00000000 7884.73974609   822042.00000000 654874.12500000 
0.12800    23429480.00000000 15003736.00000000 37490036.00000000 7712.01757812   806268.06250000 642320.25000000 
0.12900    23088620.00000000 14790415.00000000 36950340.00000000 7542.12402344   790755.75000000 629977.81250000 
0.13000    22754636.00000000 14581280.00000000 36421824.00000000 7374.95458984   775511.43750000 617842.37500000 
0.13100    22427160.00000000 14376375.00000000 35903716.00000000 7210.40332031   760505.50000000 605904.62500000 
0.13200    22105934.00000000 14175435.00000000 35395068.00000000 7048.43798828   745734.93750000 594146.87500000 
0.13300    21790652.00000000 13978236.00000000 34896568.00000000 6889.11181641   731195.81250000 582576.06250000 
0.13400    21481130.00000000 13784628.00000000 34406580.00000000 6732.22558594   716872.87500000 571173.81250000 
0.13500    21177108.00000000 13594407.00000000 33925588.00000000 6577.73876953   702758.68750000 559936.37500000 
0.13600    20878158.00000000 13407475.00000000 33452690.00000000 6425.73876953   688848.06250000 548854.81250000 
0.13700    20584216.00000000 13223547.00000000 32987064.00000000 6276.08251953   675126.87500000 537936.56250000 
0.13800    20294740.00000000 13042592.00000000 32529342.00000000 6128.80029297   661604.12500000 527162.31250000 
0.13900    20010118.00000000 12864348.00000000 32078608.00000000 5983.85156250   648263.75000000 516537.28125000 
0.14000    19729380.00000000 12688871.00000000 31634634.00000000 5841.30517578   635104.18750000 506050.84375000 
0.14100    19452984.00000000 12515835.00000000 31197002.00000000 5701.02343750   622123.81250000 495708.31250000 
0.14200    19180314.00000000 12345244.00000000 30765452.00000000 5563.09960938   609310.43750000 485494.75000000 
0.14300    18911442.00000000 12176952.00000000 30339946.00000000 5427.47802734   596672.18750000 475417.00000000 
0.14400    18646046.00000000 12010741.00000000 29919788.00000000 5294.22363281   584192.75000000 465469.65625000 
0.14500    18384080.00000000 11846778.00000000 29505156.00000000 5163.25390625   571886.06250000 455651.93750000 
0.14600    18125606.00000000 11684741.00000000 29095426.00000000 5034.66015625   559738.06250000 445964.18750000 
0.14700    17869928.00000000 11524648.00000000 28690896.00000000 4908.41308594   547758.75000000 436402.50000000 
0.14800    17617500.00000000 11366245.00000000 28290854.00000000 4784.46972656   535925.31250000 426968.06250000 
0.14900    17367810.00000000 11209708.00000000 27895232.00000000 4662.90673828   524258.59375000 417650.56250000 
0.15000    17121142.00000000 11054767.00000000 27503972.00000000 4543.72802734   512746.50000000 408464.00000000 
0.15100    16876968.00000000 10901576.00000000 27116986.00000000 4426.87548828   501398.25000000 399396.46875000 
0.15200    16635476.00000000 10749893.00000000 26734320.00000000 4312.47802734   490205.03125000 390456.93750000 
0.15300    16396432.00000000 10599663.00000000 26355344.00000000 4200.39990234   479167.71875000 381640.53125000 
0.15400    16160024.00000000 10450956.00000000 25979982.00000000 4090.70117188   468289.06250000 372944.65625000 
0.15500    15925883.00000000 10303630.00000000 25608342.00000000 3983.42138672   457566.09375000 364374.50000000 
0.15600    15694031.00000000 10157670.00000000 25240544.00000000 3878.49633789   447000.43750000 355925.90625000 
0.15700    15464622.00000000 10013144.00000000 24876134.00000000 3775.99536133   436594.93750000 347602.28125000 
0.15800    15237341.00000000 9869797.00000000 24515022.00000000 3675.85668945   426344.37500000 339400.65625000 
0.15900    15012375.00000000 9727778.00000000 24157356.00000000 3578.09399414   416252.34375000 331329.03125000 
0.16000    14789388.00000000 9587055.00000000 23802952.00000000 3482.70214844   406322.59375000 323377.09375000 
0.16100    14568653.00000000 9447619.00000000 23451912.00000000 3389.70507812   396548.65625000 315554.25000000 
0.16200    14349995.00000000 9309342.00000000 23104154.00000000 3299.04907227   386934.93750000 307856.87500000 
0.16300    14133407.00000000 9172181.00000000 22759470.00000000 3210.71972656   377481.21875000 300282.81250000 
0.16400    13918864.00000000 9036363.00000000 22417888.00000000 3124.73510742   368187.34375000 292835.68750000 
0.16500    13706275.00000000 8901629.00000000 22079384.00000000 3041.05615234   359053.18750000 285517.71875000 
0.16600    13495895.00000000 8768148.00000000 21743948.00000000 2959.64233398   350081.68750000 278323.90625000 
0.16700    13287399.00000000 8635765.00000000 21411772.00000000 2880.49487305   341267.34375000 271254.40625000 
0.16800    13080909.00000000 8504485.00000000 21082580.00000000 2803.57958984   332611.40625000 264312.62500000 
0.16900    12876433.00000000 8374507.50000000 20756308.00000000 2728.89184570   324117.31250000 257499.78125000 
0.17000    12673983.00000000 8245632.00000000 20433104.00000000 2656.37768555   315785.15625000 250812.40625000 
