# SAXS profile: number of points = 501, q_min = 0, q_max = 0.5, delta_q = 0.001
#    q    intensity 
0.00000    162233312.00000000 101202152.00000000 256269600.00000000 107056.80468750 8335201.50000000 6583115.00000000 
0.00100    162195696.00000000 101176768.00000000 256207040.00000000 107022.43750000 8332844.00000000 6581224.00000000 
0.00200    162081520.00000000 101102432.00000000 256018672.00000000 106920.83593750 8325679.00000000 6575656.00000000 
0.00300    161882880.00000000 100978656.00000000 255704208.00000000 106750.57812500 8313855.00000000 6566327.50000000 
0.00400    161602720.00000000 100805488.00000000 255263072.00000000 106513.53125000 8297323.50000000 6553311.50000000 
0.00500    161240880.00000000 100583856.00000000 254696496.00000000 106208.83593750 8276094.00000000 6536647.50000000 
0.00600    160800976.00000000 100311112.00000000 254005264.00000000 105838.12500000 8250313.00000000 6516315.50000000 
0.00700    160281184.00000000 99992208.00000000 253195760.00000000 105402.92187500 8219868.00000000 6492415.50000000 
0.00800    159683056.00000000 99626392.00000000 252262784.00000000 104902.38281250 8184967.00000000 6464966.50000000 
0.00900    159013504.00000000 99214960.00000000 251210864.00000000 104338.62500000 8145612.50000000 6433965.50000000 
0.01000    158270832.00000000 98756024.00000000 250040208.00000000 103713.32031250 8101869.00000000 6399600.00000000 
0.01100    157456896.00000000 98250560.00000000 248755312.00000000 103027.67968750 8053914.50000000 6361858.00000000 
0.01200    156565520.00000000 97700768.00000000 247357680.00000000 102282.25781250 8001768.50000000 6320799.00000000 
0.01300    155603024.00000000 97107480.00000000 245849808.00000000 101479.99218750 7945487.00000000 6276577.00000000 
0.01400    154573248.00000000 96472680.00000000 244231104.00000000 100621.48437500 7885323.50000000 6229213.50000000 
0.01500    153479888.00000000 95796000.00000000 242509600.00000000 99710.05468750  7821297.50000000 6178844.50000000 
0.01600    152318400.00000000 95080208.00000000 240684704.00000000 98745.01562500  7753548.00000000 6125551.50000000 
0.01700    151094672.00000000 94324256.00000000 238761408.00000000 97732.95312500  7682259.00000000 6069440.00000000 
0.01800    149809952.00000000 93530800.00000000 236742368.00000000 96671.31250000  7607508.00000000 6010589.00000000 
0.01900    148466816.00000000 92701304.00000000 234630832.00000000 95564.79687500  7529429.00000000 5949174.00000000 
0.02000    147066736.00000000 91836200.00000000 232431312.00000000 94415.41406250  7448225.50000000 5885243.50000000 
0.02100    145612240.00000000 90938664.00000000 230145296.00000000 93225.20312500  7364010.50000000 5818964.00000000 
0.02200    144107072.00000000 90008256.00000000 227778448.00000000 91997.00000000  7276943.00000000 5750448.00000000 
0.02300    142551168.00000000 89047728.00000000 225334560.00000000 90733.54687500  7187232.50000000 5679832.00000000 
0.02400    140951936.00000000 88057280.00000000 222817264.00000000 89435.71093750  7094966.50000000 5607196.50000000 
0.02500    139306160.00000000 87040712.00000000 220228880.00000000 88108.48437500  7000398.00000000 5532706.50000000 
0.02600    137621216.00000000 85997120.00000000 217575952.00000000 86752.17968750  6903617.00000000 5456537.50000000 
0.02700    135895952.00000000 84929968.00000000 214863040.00000000 85371.36718750  6804879.50000000 5378765.00000000 
0.02800    134134048.00000000 83840136.00000000 212092032.00000000 83967.35156250  6704196.00000000 5299500.50000000 
0.02900    132340216.00000000 82729600.00000000 209269504.00000000 82543.58593750  6601962.00000000 5218904.50000000 
0.03000    130515384.00000000 81600464.00000000 206397920.00000000 81101.14062500  6498168.50000000 5137168.00000000 
0.03100    128662960.00000000 80453032.00000000 203482352.00000000 79644.09375000  6393082.00000000 5054363.50000000 
0.03200    126785504.00000000 79289824.00000000 200526784.00000000 78175.50000000  6286803.00000000 4970649.50000000 
0.03300    124886568.00000000 78113424.00000000 197536784.00000000 76695.61718750  6179549.50000000 4886193.50000000 
0.03400    122967032.00000000 76924440.00000000 194514800.00000000 75208.85156250  6071531.50000000 4801064.50000000 
0.03500    121031112.00000000 75725504.00000000 191467648.00000000 73717.07812500  5962836.50000000 4715394.00000000 
0.03600    119081472.00000000 74516760.00000000 188396352.00000000 72222.03906250  5853702.50000000 4629369.50000000 
0.03700    117119672.00000000 73299792.00000000 185305360.00000000 70726.64062500  5744210.50000000 4543026.50000000 
0.03800    115149968.00000000 72077296.00000000 182202928.00000000 69233.76562500  5634543.50000000 4456593.50000000 
0.03900    113174064.00000000 70850952.00000000 179089552.00000000 67744.33593750  5524937.00000000 4370131.50000000 
0.04000    111193560.00000000 69621544.00000000 175968912.00000000 66261.50781250  5415343.00000000 4283726.50000000 
0.04100    109212720.00000000 68390872.00000000 172847200.00000000 64786.40234375  5306105.50000000 4197556.00000000 
0.04200    107232424.00000000 67162176.00000000 169726416.00000000 63320.95312500  5197305.00000000 4111715.00000000 
0.04300    105256728.00000000 65933684.00000000 166610368.00000000 61868.00000000  5088988.50000000 4026301.50000000 
0.04400    103286376.00000000 64709232.00000000 163503344.00000000 60428.56250000  4981412.00000000 3941412.75000000 
0.04500    101324480.00000000 63489032.00000000 160408560.00000000 59004.34375000  4874629.50000000 3857169.50000000 
0.04600    99372368.00000000 62275528.00000000 157329552.00000000 57597.21093750  4768761.00000000 3773621.00000000 
0.04700    97433304.00000000 61068848.00000000 154269552.00000000 56208.43359375  4663948.00000000 3690903.75000000 
0.04800    95507880.00000000 59870764.00000000 151232464.00000000 54839.12109375  4560280.50000000 3609058.50000000 
0.04900    93598872.00000000 58682436.00000000 148219488.00000000 53490.45312500  4457836.00000000 3528192.75000000 
0.05000    91707992.00000000 57504832.00000000 145236224.00000000 52164.44140625  4356759.50000000 3448370.25000000 
0.05100    89837496.00000000 56339392.00000000 142283408.00000000 50860.89062500  4257096.00000000 3369655.75000000 
0.05200    87987912.00000000 55186740.00000000 139364144.00000000 49581.70703125  4158927.25000000 3292140.25000000 
0.05300    86160600.00000000 54048228.00000000 136478400.00000000 48327.87109375  4062339.50000000 3215849.25000000 
0.05400    84358096.00000000 52924612.00000000 133633216.00000000 47099.04687500  3967405.75000000 3140834.25000000 
0.05500    82581376.00000000 51816528.00000000 130827040.00000000 45896.60937500  3874183.75000000 3067211.00000000 
0.05600    80832016.00000000 50724860.00000000 128063600.00000000 44720.54687500  3782699.50000000 2994930.50000000 
0.05700    79110712.00000000 49650816.00000000 125343624.00000000 43572.27343750  3693021.75000000 2924069.00000000 
0.05800    77417152.00000000 48594756.00000000 122669616.00000000 42451.55859375  3605246.00000000 2854682.75000000 
0.05900    75756704.00000000 47557168.00000000 120042768.00000000 41358.28906250  3519327.25000000 2786775.75000000 
0.06000    74126032.00000000 46538296.00000000 117464984.00000000 40292.83593750  3435325.25000000 2720345.75000000 
0.06100    72525272.00000000 45539724.00000000 114937088.00000000 39255.54687500  3353250.50000000 2655486.75000000 
0.06200    70959288.00000000 44560596.00000000 112460848.00000000 38246.48437500  3273135.75000000 2592152.25000000 
0.06300    69426272.00000000 43602388.00000000 110035440.00000000 37265.37890625  3195003.50000000 2530372.00000000 
0.06400    67925600.00000000 42664416.00000000 107663776.00000000 36311.81250000  3118823.00000000 2470160.75000000 
0.06500    66459316.00000000 41748324.00000000 105344856.00000000 35385.89453125  3044658.25000000 2411493.75000000 
0.06600    65027700.00000000 40852556.00000000 103080800.00000000 34487.29296875  2972457.50000000 2354371.75000000 
0.06700    63630052.00000000 39978396.00000000 100870552.00000000 33615.25781250  2902196.00000000 2298826.75000000 
0.06800    62267312.00000000 39126116.00000000 98715304.00000000 32770.17187500  2833891.75000000 2244795.75000000 
0.06900    60939472.00000000 38295784.00000000 96613872.00000000 31950.73828125  2767535.00000000 2192328.00000000 
0.07000    59645972.00000000 37486092.00000000 94568104.00000000 31156.88281250  2703093.75000000 2141332.75000000 
0.07100    58387376.00000000 36698956.00000000 92577368.00000000 30387.73046875  2640542.25000000 2091881.75000000 
0.07200    57162992.00000000 35933148.00000000 90640904.00000000 29643.09960938  2579846.75000000 2043857.37500000 
0.07300    55973056.00000000 35188924.00000000 88758200.00000000 28921.98632812  2520982.25000000 1997306.25000000 
0.07400    54817272.00000000 34466004.00000000 86929520.00000000 28224.43359375  2463914.25000000 1952175.62500000 
0.07500    53694760.00000000 33763988.00000000 85154888.00000000 27549.11718750  2408582.50000000 1908420.12500000 
0.07600    52605380.00000000 33082838.00000000 83432120.00000000 26895.30468750  2354968.25000000 1866016.87500000 
0.07700    51549408.00000000 32422430.00000000 81761248.00000000 26262.66992188  2303054.50000000 1824961.62500000 
0.07800    50525020.00000000 31782298.00000000 80141256.00000000 25649.99023438  2252756.25000000 1785180.00000000 
0.07900    49532856.00000000 31161950.00000000 78572104.00000000 25057.02148438  2204056.00000000 1746668.00000000 
0.08000    48571612.00000000 30561294.00000000 77053176.00000000 24482.58398438  2156866.50000000 1709368.37500000 
0.08100    47640708.00000000 29979936.00000000 75581920.00000000 23926.51367188  2111160.00000000 1673248.75000000 
0.08200    46739820.00000000 29417576.00000000 74157520.00000000 23387.65820312  2066927.00000000 1638265.75000000 
0.08300    45867784.00000000 28873670.00000000 72779776.00000000 22865.22070312  2024059.50000000 1604388.25000000 
0.08400    45024600.00000000 28347536.00000000 71447256.00000000 22358.60156250  1982526.00000000 1571575.62500000 
0.08500    44208528.00000000 27838972.00000000 70158536.00000000 21867.07031250  1942292.87500000 1539774.50000000 
0.08600    43419620.00000000 27347434.00000000 68913464.00000000 21390.03906250  1903297.75000000 1508977.62500000 
0.08700    42656540.00000000 26872512.00000000 67709312.00000000 20926.87695312  1865484.50000000 1479106.25000000 
0.08800    41918400.00000000 26413508.00000000 66545564.00000000 20476.51367188  1828799.87500000 1450142.37500000 
0.08900    41204916.00000000 25970226.00000000 65420332.00000000 20038.64648438  1793210.37500000 1422043.25000000 
0.09000    40515008.00000000 25541476.00000000 64333152.00000000 19612.77929688  1758661.12500000 1394761.25000000 
0.09100    39847844.00000000 25127788.00000000 63282128.00000000 19197.92578125  1725103.12500000 1368268.37500000 
0.09200    39202612.00000000 24727888.00000000 62265592.00000000 18793.70117188  1692472.75000000 1342529.37500000 
0.09300    38577996.00000000 24341192.00000000 61282960.00000000 18399.72656250  1660746.75000000 1317482.25000000 
0.09400    37974320.00000000 23967540.00000000 60332484.00000000 18015.07421875  1629854.62500000 1293131.00000000 
0.09500    37389612.00000000 23606030.00000000 59412968.00000000 17639.84570312  1599797.00000000 1269414.37500000 
0.09600    36823416.00000000 23256614.00000000 58522952.00000000 17272.98828125  1570488.12500000 1246299.87500000 
0.09700    36274832.00000000 22918320.00000000 57661440.00000000 16914.21093750  1541907.37500000 1223762.87500000 
0.09800    35743096.00000000 22591020.00000000 56826820.00000000 16563.42578125  1514017.87500000 1201765.87500000 
0.09900    35227308.00000000 22273844.00000000 56018056.00000000 16220.16894531  1486766.12500000 1180291.62500000 
0.10000    34727124.00000000 21966614.00000000 55233348.00000000 15883.79589844  1460137.50000000 1159299.87500000 
0.10100    34241344.00000000 21668274.00000000 54471440.00000000 15554.03027344  1434073.25000000 1138767.00000000 
0.10200    33769260.00000000 21379178.00000000 53732572.00000000 15230.76367188  1408562.75000000 1118654.62500000 
0.10300    33310280.00000000 21098358.00000000 53013772.00000000 14913.58691406  1383555.00000000 1098948.75000000 
0.10400    32863408.00000000 20824966.00000000 52314952.00000000 14602.29003906  1359046.87500000 1079624.12500000 
0.10500    32428388.00000000 20559356.00000000 51634484.00000000 14296.79199219  1334997.37500000 1060670.87500000 
0.10600    32004084.00000000 20300476.00000000 50971560.00000000 13996.61523438  1311373.25000000 1042052.25000000 
0.10700    31590148.00000000 20048400.00000000 50324560.00000000 13701.90136719  1288163.50000000 1023760.56250000 
0.10800    31185876.00000000 19802192.00000000 49693564.00000000 13412.09179688  1265347.75000000 1005759.87500000 
0.10900    30790596.00000000 19561862.00000000 49076796.00000000 13127.33496094  1242864.25000000 988053.81250000 
0.11000    30403820.00000000 19326728.00000000 48473820.00000000 12847.32812500  1220757.75000000 970616.68750000 
0.11100    30025128.00000000 19096816.00000000 47882956.00000000 12572.04101562  1198976.00000000 953437.81250000 
0.11200    29653704.00000000 18871500.00000000 47303760.00000000 12301.44628906  1177511.87500000 936502.00000000 
0.11300    29289056.00000000 18650336.00000000 46735748.00000000 12035.25976562  1156349.12500000 919795.50000000 
0.11400    28931102.00000000 18433286.00000000 46177572.00000000 11773.65722656  1135466.62500000 903319.81250000 
0.11500    28578728.00000000 18219882.00000000 45629380.00000000 11516.50000000  1114860.12500000 887049.56250000 
0.11600    28232244.00000000 18009782.00000000 45089028.00000000 11263.57910156  1094519.62500000 870981.81250000 
0.11700    27890802.00000000 17802948.00000000 44557340.00000000 11015.09765625  1074437.75000000 855115.12500000 
0.11800    27553842.00000000 17598904.00000000 44032416.00000000 10770.66503906  1054594.75000000 839435.50000000 
0.11900    27221484.00000000 17397580.00000000 43514724.00000000 10530.56738281  1034999.25000000 823936.62500000 
0.12000    26893060.00000000 17198780.00000000 43003328.00000000 10294.68066406  1015627.12500000 808624.81250000 
0.12100    26568626.00000000 17001942.00000000 42497196.00000000 10063.02929688  996498.87500000 793484.56250000 
0.12200    26247504.00000000 16806974.00000000 41996772.00000000 9835.58789062   977586.81250000 778515.81250000 
0.12300    25929620.00000000 16614275.00000000 41501216.00000000 9612.17578125   958896.68750000 763717.06250000 
0.12400    25614690.00000000 16423035.00000000 41009928.00000000 9392.98632812   940425.75000000 749080.12500000 
0.12500    25302530.00000000 16233270.00000000 40522540.00000000 9177.78515625   922173.75000000 734609.75000000 
0.12600    24993020.00000000 16044837.00000000 40039388.00000000 8966.86328125   904128.56250000 720306.18750000 
0.12700    24685612.00000000 15857729.00000000 39559440.00000000 8759.92871094   886302.62500000 706160.93750000 
0.12800    24380558.00000000 15671605.00000000 39082772.00000000 8557.03515625   868685.93750000 692175.62500000 
0.12900    24077458.00000000 15486645.00000000 38608384.00000000 8358.16503906   851288.43750000 678355.56250000 
0.13000    23776318.00000000 15302612.00000000 38137488.00000000 8163.31787109   834101.81250000 664702.37500000 
0.13100    23477096.00000000 15119274.00000000 37668832.00000000 7972.43310547   817113.93750000 651209.12500000 
0.13200    23179424.00000000 14936807.00000000 37202572.00000000 7785.50390625   800356.06250000 637878.37500000 
0.13300    22883424.00000000 14755135.00000000 36738184.00000000 7602.51611328   783807.93750000 624713.75000000 
0.13400    22588886.00000000 14573921.00000000 36276280.00000000 7423.33935547   767465.31250000 611710.25000000 
0.13500    22295922.00000000 14393640.00000000 35816340.00000000 7248.02587891   751349.18750000 598872.06250000 
0.13600    22004430.00000000 14213824.00000000 35357920.00000000 7076.48974609   735453.62500000 586209.18750000 
0.13700    21714228.00000000 14034532.00000000 34901752.00000000 6908.67187500   719763.93750000 573706.12500000 
0.13800    21425556.00000000 13855817.00000000 34447188.00000000 6744.46972656   704299.31250000 561371.31250000 
0.13900    21138266.00000000 13677697.00000000 33994720.00000000 6583.98339844   689050.43750000 549218.81250000 
0.14000    20852068.00000000 13500103.00000000 33543366.00000000 6426.97363281   674032.62500000 537230.12500000 
0.14100    20567416.00000000 13323113.00000000 33094400.00000000 6273.59082031   659226.37500000 525412.43750000 
0.14200    20284138.00000000 13146516.00000000 32647154.00000000 6123.53955078   644643.81250000 513770.65625000 
0.14300    20002334.00000000 12970622.00000000 32201854.00000000 5976.89062500   630293.75000000 502309.25000000 
0.14400    19722196.00000000 12795303.00000000 31758052.00000000 5833.54736328   616163.00000000 491016.46875000 
0.14500    19443078.00000000 12620590.00000000 31316360.00000000 5693.42871094   602260.81250000 479899.81250000 
0.14600    19165670.00000000 12446518.00000000 30876864.00000000 5556.54345703   588579.87500000 468965.15625000 
0.14700    18889738.00000000 12273193.00000000 30439290.00000000 5422.69775391   575126.18750000 458206.06250000 
0.14800    18615360.00000000 12100463.00000000 30003776.00000000 5291.93847656   561899.68750000 447622.12500000 
0.14900    18342616.00000000 11928382.00000000 29570678.00000000 5164.03955078   548894.56250000 437217.00000000 
0.15000    18071660.00000000 11757275.00000000 29139788.00000000 5039.12597656   536114.37500000 426989.71875000 
0.15100    17802378.00000000 11586917.00000000 28711348.00000000 4917.01074219   523564.34375000 416938.90625000 
0.15200    17534878.00000000 11417458.00000000 28285582.00000000 4797.64062500   511236.96875000 407072.12500000 
0.15300    17269292.00000000 11248977.00000000 27862494.00000000 4680.98339844   499134.71875000 397377.71875000 
0.15400    17005566.00000000 11081316.00000000 27442034.00000000 4566.85107422   487253.62500000 387859.75000000 
0.15500    16743885.00000000 10914644.00000000 27024442.00000000 4455.42822266   475595.71875000 378519.68750000 
0.15600    16484391.00000000 10749116.00000000 26609524.00000000 4346.42822266   464156.46875000 369357.06250000 
0.15700    16226865.00000000 10584732.00000000 26197922.00000000 4239.94628906   452941.00000000 360369.21875000 
0.15800    15971356.00000000 10421328.00000000 25789504.00000000 4135.71240234   441938.93750000 351552.56250000 
0.15900    15718155.00000000 10259217.00000000 25384440.00000000 4033.96362305   431155.96875000 342909.18750000 
0.16000    15467169.00000000 10098272.00000000 24982426.00000000 3934.41357422   420589.31250000 334437.81250000 
0.16100    15218561.00000000 9938714.00000000 24584190.00000000 3837.16992188   410237.03125000 326141.00000000 
0.16200    14972456.00000000 9780485.00000000 24189476.00000000 3742.05566406   400094.43750000 318012.21875000 
0.16300    14728703.00000000 9623580.00000000 23798388.00000000 3649.13330078   390165.40625000 310050.59375000 
0.16400    14487350.00000000 9468184.00000000 23411086.00000000 3558.38623047   380444.15625000 302255.50000000 
0.16500    14248688.00000000 9314111.00000000 23027784.00000000 3469.64965820   370927.28125000 294626.93750000 
0.16600    14012679.00000000 9161654.00000000 22648396.00000000 3383.00952148   361616.93750000 287165.71875000 
0.16700    13779266.00000000 9010695.00000000 22272888.00000000 3298.35229492   352507.40625000 279860.71875000 
0.16800    13548397.00000000 8861297.00000000 21901648.00000000 3215.72778320   343598.43750000 272716.03125000 
0.16900    13320465.00000000 8713673.00000000 21534730.00000000 3135.05957031   334887.59375000 265736.21875000 
0.17000    13095357.00000000 8567538.00000000 21172166.00000000 3056.32836914   326370.78125000 258906.31250000 
