# SAXS profile: number of points = 501, q_min = 0, q_max = 0.5, delta_q = 0.001
#    q    intensity 
0.00000    162238528.00000000 101201568.00000000 256271536.00000000 97881.40625000  7969983.50000000 6294691.50000000 
0.00100    162212784.00000000 101185400.00000000 256230416.00000000 97862.03906250  7968546.50000000 6293530.50000000 
0.00200    162134464.00000000 101136944.00000000 256105872.00000000 97802.17187500  7964154.50000000 6290114.50000000 
0.00300    162003728.00000000 101055496.00000000 255900448.00000000 97702.46093750  7956879.50000000 6284376.00000000 
0.00400    161819536.00000000 100941968.00000000 255610736.00000000 97563.80468750  7946709.50000000 6276378.50000000 
0.00500    161582976.00000000 100795792.00000000 255239744.00000000 97385.85937500  7933639.50000000 6266105.00000000 
0.00600    161294800.00000000 100618184.00000000 254786560.00000000 97168.17968750  7917692.50000000 6253562.50000000 
0.00700    160954208.00000000 100408400.00000000 254252880.00000000 96912.25781250  7898876.00000000 6238744.50000000 
0.00800    160563152.00000000 100166400.00000000 253636800.00000000 96617.08593750  7877205.50000000 6221758.00000000 
0.00900    160119936.00000000 99893688.00000000 252941680.00000000 96283.91406250  7852789.50000000 6202526.00000000 
0.01000    159625792.00000000 99589216.00000000 252167104.00000000 95912.92187500  7825537.00000000 6181081.50000000 
0.01100    159082928.00000000 99254152.00000000 251314336.00000000 95504.12500000  7795508.00000000 6157512.00000000 
0.01200    158489328.00000000 98888352.00000000 250382432.00000000 95058.52343750  7762769.00000000 6131770.50000000 
0.01300    157848048.00000000 98492552.00000000 249374224.00000000 94576.77343750  7727343.50000000 6103910.00000000 
0.01400    157158496.00000000 98066968.00000000 248288832.00000000 94058.92968750  7689270.00000000 6073971.50000000 
0.01500    156421216.00000000 97611368.00000000 247130176.00000000 93505.87500000  7648589.50000000 6041973.50000000 
0.01600    155636320.00000000 97126824.00000000 245897424.00000000 92918.13281250  7605331.00000000 6007921.00000000 
0.01700    154804928.00000000 96614232.00000000 244592528.00000000 92296.35156250  7559536.50000000 5971962.00000000 
0.01800    153928624.00000000 96073376.00000000 243215504.00000000 91641.78906250  7511267.00000000 5933994.00000000 
0.01900    153008992.00000000 95504920.00000000 241768784.00000000 90954.09375000  7460563.00000000 5894127.50000000 
0.02000    152043904.00000000 94909440.00000000 240253584.00000000 90234.91406250  7407478.50000000 5852409.50000000 
0.02100    151036272.00000000 94287792.00000000 238670208.00000000 89485.22656250  7352130.00000000 5808865.50000000 
0.02200    149987616.00000000 93640592.00000000 237022000.00000000 88704.46875000  7294510.00000000 5763556.50000000 
0.02300    148897680.00000000 92967808.00000000 235310032.00000000 87895.67968750  7234679.50000000 5716482.00000000 
0.02400    147769360.00000000 92270528.00000000 233535264.00000000 87057.85937500  7172699.00000000 5667742.50000000 
0.02500    146600848.00000000 91549584.00000000 231700272.00000000 86192.99218750  7108660.50000000 5617363.50000000 
0.02600    145396016.00000000 90804992.00000000 229804896.00000000 85302.06250000  7042614.00000000 5565417.00000000 
0.02700    144153936.00000000 90038128.00000000 227852944.00000000 84385.62500000  6974642.00000000 5511965.00000000 
0.02800    142877568.00000000 89249520.00000000 225846560.00000000 83445.23437500  6904772.50000000 5457017.00000000 
0.02900    141566768.00000000 88440192.00000000 223785872.00000000 82480.75000000  6833114.50000000 5400627.00000000 
0.03000    140222224.00000000 87609928.00000000 221674016.00000000 81494.25781250  6759759.50000000 5342895.00000000 
0.03100    138847264.00000000 86760128.00000000 219512080.00000000 80486.55468750  6684697.00000000 5283844.00000000 
0.03200    137441584.00000000 85891744.00000000 217302080.00000000 79458.25000000  6608084.00000000 5223577.50000000 
0.03300    136006928.00000000 85005096.00000000 215046240.00000000 78412.01562500  6529951.50000000 5162102.00000000 
0.03400    134544912.00000000 84101656.00000000 212746784.00000000 77347.13281250  6450362.00000000 5099491.00000000 
0.03500    133055936.00000000 83181480.00000000 210406000.00000000 76264.98437500  6369477.50000000 5035842.50000000 
0.03600    131542016.00000000 82245584.00000000 208025328.00000000 75167.65625000  6287306.50000000 4971143.50000000 
0.03700    130004480.00000000 81295488.00000000 205607120.00000000 74055.75781250  6203912.50000000 4905528.00000000 
0.03800    128444416.00000000 80330592.00000000 203153888.00000000 72930.42187500  6119393.50000000 4839025.50000000 
0.03900    126863464.00000000 79352992.00000000 200667728.00000000 71792.46093750  6033854.50000000 4771694.50000000 
0.04000    125262456.00000000 78363240.00000000 198149728.00000000 70643.27343750  5947375.50000000 4703605.00000000 
0.04100    123643472.00000000 77361856.00000000 195603440.00000000 69484.42968750  5860025.00000000 4634818.00000000 
0.04200    122007408.00000000 76350048.00000000 193030000.00000000 68316.54687500  5771838.00000000 4565407.50000000 
0.04300    120356344.00000000 75328232.00000000 190432048.00000000 67140.74218750  5682923.00000000 4495422.00000000 
0.04400    118690464.00000000 74297480.00000000 187811568.00000000 65958.39062500  5593390.00000000 4424895.00000000 
0.04500    117011864.00000000 73258896.00000000 185171184.00000000 64770.53515625  5503295.50000000 4353974.00000000 
0.04600    115321616.00000000 72212632.00000000 182511312.00000000 63578.14843750  5412709.50000000 4282615.00000000 
0.04700    113622328.00000000 71160640.00000000 179835584.00000000 62382.23046875  5321720.50000000 4210967.00000000 
0.04800    111913376.00000000 70102944.00000000 177146768.00000000 61183.98046875  5230385.00000000 4139039.50000000 
0.04900    110197416.00000000 69040728.00000000 174447744.00000000 59984.98828125  5138827.50000000 4066914.25000000 
0.05000    108475648.00000000 67974664.00000000 171737728.00000000 58785.53515625  5047086.00000000 3994645.25000000 
0.05100    106748560.00000000 66904940.00000000 169019616.00000000 57586.93359375  4955231.00000000 3922267.50000000 
0.05200    105018192.00000000 65833148.00000000 166295504.00000000 56390.43750000  4863335.50000000 3849877.50000000 
0.05300    103286104.00000000 64759940.00000000 163568144.00000000 55196.49609375  4771483.50000000 3777506.75000000 
0.05400    101553144.00000000 63686064.00000000 160839296.00000000 54006.49609375  4679757.00000000 3705221.50000000 
0.05500    99820768.00000000 62612260.00000000 158111264.00000000 52821.45703125  4588234.50000000 3633085.00000000 
0.05600    98089728.00000000 61539500.00000000 155386064.00000000 51642.15625000  4496952.50000000 3561146.00000000 
0.05700    96361928.00000000 60468204.00000000 152665088.00000000 50469.40625000  4405979.00000000 3489448.50000000 
0.05800    94638136.00000000 59399040.00000000 149950080.00000000 49304.12109375  4315415.50000000 3418052.00000000 
0.05900    92919184.00000000 58333608.00000000 147242784.00000000 48147.39453125  4225289.00000000 3346978.00000000 
0.06000    91206936.00000000 57271176.00000000 144546016.00000000 46999.64062500  4135677.50000000 3276327.00000000 
0.06100    89502456.00000000 56213588.00000000 141860512.00000000 45862.17578125  4046652.00000000 3206110.25000000 
0.06200    87806472.00000000 55161224.00000000 139187600.00000000 44735.25000000  3958251.25000000 3136373.50000000 
0.06300    86120280.00000000 54114744.00000000 136531040.00000000 43619.87109375  3870524.75000000 3067194.50000000 
0.06400    84444480.00000000 53074508.00000000 133890744.00000000 42516.82812500  3783540.25000000 2998583.00000000 
0.06500    82781056.00000000 52041372.00000000 131268568.00000000 41426.74609375  3697367.75000000 2930588.25000000 
0.06600    81129936.00000000 51016152.00000000 128666392.00000000 40350.00781250  3612034.50000000 2863259.75000000 
0.06700    79492344.00000000 49998888.00000000 126085152.00000000 39287.31640625  3527602.00000000 2796615.00000000 
0.06800    77869712.00000000 48990632.00000000 123526936.00000000 38239.51562500  3444129.00000000 2730725.50000000 
0.06900    76262328.00000000 47991712.00000000 120992296.00000000 37207.16406250  3361628.25000000 2665615.25000000 
0.07000    74671216.00000000 47002664.00000000 118483288.00000000 36190.52734375  3280143.75000000 2601293.75000000 
0.07100    73097008.00000000 46024068.00000000 116000816.00000000 35189.98046875  3199742.25000000 2537807.25000000 
0.07200    71540640.00000000 45056216.00000000 113546312.00000000 34206.21875000  3120450.25000000 2475210.00000000 
0.07300    70003288.00000000 44099940.00000000 111120688.00000000 33239.75000000  3042291.00000000 2413472.50000000 
0.07400    68484672.00000000 43155164.00000000 108725256.00000000 32290.62109375  2965321.25000000 2352678.00000000 
0.07500    66986596.00000000 42222948.00000000 106361000.00000000 31359.59375000  2889571.25000000 2292840.75000000 
0.07600    65508080.00000000 41302692.00000000 104029104.00000000 30446.58203125  2815034.50000000 2233933.50000000 
0.07700    64051816.00000000 40395704.00000000 101730064.00000000 29552.17382812  2741768.75000000 2176042.75000000 
0.07800    62616596.00000000 39502084.00000000 99465072.00000000 28676.41015625  2669798.00000000 2119142.75000000 
0.07900    61203712.00000000 38621828.00000000 97234736.00000000 27819.40234375  2599134.00000000 2063315.12500000 
0.08000    59813644.00000000 37755932.00000000 95040560.00000000 26981.59375000  2529803.25000000 2008503.25000000 
0.08100    58446736.00000000 36903876.00000000 92881608.00000000 26163.28125000  2461827.25000000 1954747.75000000 
0.08200    57103304.00000000 36066352.00000000 90760024.00000000 25364.06835938  2395214.75000000 1902067.12500000 
0.08300    55783492.00000000 35243560.00000000 88675792.00000000 24584.36523438  2329974.00000000 1850473.75000000 
0.08400    54488136.00000000 34435672.00000000 86629752.00000000 23824.37304688  2266137.00000000 1799956.75000000 
0.08500    53217316.00000000 33642816.00000000 84621528.00000000 23083.82226562  2203683.25000000 1750553.75000000 
0.08600    51971360.00000000 32864864.00000000 82652768.00000000 22363.00781250  2142637.00000000 1702245.62500000 
0.08700    50750280.00000000 32102680.00000000 80723400.00000000 21661.57812500  2083026.75000000 1655049.25000000 
0.08800    49554184.00000000 31355716.00000000 78833080.00000000 20979.62304688  2024818.62500000 1608966.12500000 
0.08900    48383316.00000000 30624436.00000000 76982192.00000000 20317.22460938  1968015.37500000 1563998.87500000 
0.09000    47238372.00000000 29908942.00000000 75171616.00000000 19674.03710938  1912641.12500000 1520145.62500000 
0.09100    46118320.00000000 29209256.00000000 73400952.00000000 19050.10546875  1858679.00000000 1477401.62500000 
0.09200    45024296.00000000 28525124.00000000 71670392.00000000 18445.13476562  1806120.25000000 1435763.87500000 
0.09300    43955696.00000000 27856754.00000000 69980352.00000000 17859.09960938  1754981.50000000 1395239.50000000 
0.09400    42912452.00000000 27204288.00000000 68330448.00000000 17291.55078125  1705220.37500000 1355802.62500000 
0.09500    41894700.00000000 26567432.00000000 66719980.00000000 16742.56445312  1656842.37500000 1317455.12500000 
0.09600    40902336.00000000 25946464.00000000 65150332.00000000 16211.70898438  1609853.00000000 1280195.87500000 
0.09700    39935628.00000000 25341086.00000000 63619668.00000000 15698.88867188  1564221.50000000 1244009.12500000 
0.09800    38994064.00000000 24751294.00000000 62129352.00000000 15203.66503906  1519941.87500000 1208882.00000000 
0.09900    38077552.00000000 24176958.00000000 60678520.00000000 14725.93164062  1476997.87500000 1174805.50000000 
0.10000    37185608.00000000 23618102.00000000 59266212.00000000 14265.13281250  1435365.62500000 1141770.62500000 
0.10100    36318276.00000000 23074452.00000000 57892768.00000000 13821.09667969  1395031.75000000 1109765.37500000 
0.10200    35475632.00000000 22545908.00000000 56557892.00000000 13393.44433594  1355976.75000000 1078766.37500000 
0.10300    34656720.00000000 22032330.00000000 55260788.00000000 12981.80957031  1318182.12500000 1048755.50000000 
0.10400    33862140.00000000 21533522.00000000 54001496.00000000 12585.88964844  1281628.75000000 1019717.31250000 
0.10500    33090922.00000000 21049516.00000000 52779460.00000000 12205.47070312  1246306.50000000 991652.12500000 
0.10600    32342592.00000000 20579632.00000000 51593852.00000000 11839.74511719  1212153.12500000 964517.25000000 
0.10700    31617400.00000000 20124088.00000000 50444200.00000000 11488.58203125  1179178.62500000 938306.06250000 
0.10800    30914752.00000000 19682682.00000000 49329928.00000000 11151.75781250  1147346.87500000 913003.00000000 
0.10900    30234036.00000000 19254930.00000000 48250936.00000000 10828.52343750  1116635.37500000 888577.25000000 
0.11000    29575080.00000000 18840676.00000000 47205796.00000000 10518.68261719  1087013.62500000 865020.31250000 
0.11100    28937530.00000000 18439758.00000000 46194664.00000000 10221.73046875  1058454.25000000 842298.43750000 
0.11200    28320774.00000000 18051788.00000000 45216228.00000000 9937.24804688   1030939.31250000 820400.37500000 
0.11300    27724614.00000000 17676622.00000000 44270020.00000000 9664.95898438   1004424.37500000 799305.31250000 
0.11400    27148280.00000000 17313874.00000000 43355932.00000000 9404.23046875   978901.62500000 778982.25000000 
0.11500    26591740.00000000 16963348.00000000 42472308.00000000 9154.88574219   954326.68750000 759408.43750000 
0.11600    26054010.00000000 16624773.00000000 41618876.00000000 8916.25488281   930681.56250000 740572.93750000 
0.11700    25534920.00000000 16297804.00000000 40794656.00000000 8688.17968750   907926.87500000 722445.75000000 
0.11800    25033950.00000000 15982164.00000000 39999340.00000000 8469.91796875   886029.62500000 704998.18750000 
0.11900    24550630.00000000 15677449.00000000 39231612.00000000 8261.30761719   864975.18750000 688217.25000000 
0.12000    24084206.00000000 15383429.00000000 38491032.00000000 8061.86328125   844726.43750000 672072.00000000 
0.12100    23634550.00000000 15099982.00000000 37776948.00000000 7871.23388672   825267.87500000 656549.25000000 
0.12200    23201010.00000000 14826434.00000000 37088312.00000000 7688.88916016   806546.12500000 641615.12500000 
0.12300    22783166.00000000 14562766.00000000 36424396.00000000 7514.56689453   788545.18750000 627260.93750000 
0.12400    22380380.00000000 14308522.00000000 35783668.00000000 7347.81250000   771237.18750000 613444.50000000 
0.12500    21991910.00000000 14063391.00000000 35166940.00000000 7188.19873047   754591.50000000 600162.12500000 
0.12600    21617744.00000000 13827225.00000000 34572044.00000000 7035.47949219   738586.31250000 587376.18750000 
0.12700    21257048.00000000 13599391.00000000 33998548.00000000 6889.20507812   723183.25000000 575079.68750000 
0.12800    20909212.00000000 13379840.00000000 33445932.00000000 6748.98242188   708359.68750000 563240.93750000 
0.12900    20574182.00000000 13168236.00000000 32913206.00000000 6614.55517578   694087.75000000 551841.00000000 
0.13000    20251036.00000000 12964077.00000000 32399550.00000000 6485.49804688   680342.06250000 540858.50000000 
0.13100    19939454.00000000 12767272.00000000 31904104.00000000 6361.51269531   667087.81250000 530269.62500000 
0.13200    19638862.00000000 12577470.00000000 31426278.00000000 6242.30371094   654318.12500000 520058.78125000 
0.13300    19348838.00000000 12394310.00000000 30965292.00000000 6127.59814453   641994.87500000 510207.59375000 
0.13400    19068838.00000000 12217425.00000000 30520154.00000000 6017.01025391   630094.12500000 500693.90625000 
0.13500    18798660.00000000 12046640.00000000 30090258.00000000 5910.28173828   618588.31250000 491497.31250000 
0.13600    18537482.00000000 11881627.00000000 29675112.00000000 5807.10937500   607466.00000000 482604.75000000 
0.13700    18284814.00000000 11722197.00000000 29273622.00000000 5707.31396484   596695.12500000 473990.96875000 
0.13800    18040444.00000000 11567796.00000000 28885126.00000000 5610.53662109   586256.81250000 465643.56250000 
0.13900    17804026.00000000 11418488.00000000 28509218.00000000 5516.63769531   576134.75000000 457546.25000000 
0.14000    17574878.00000000 11273846.00000000 28144952.00000000 5425.35449219   566300.25000000 449680.43750000 
0.14100    17352770.00000000 11133612.00000000 27791830.00000000 5336.40429688   556741.81250000 442032.65625000 
0.14200    17137152.00000000 10997516.00000000 27449020.00000000 5249.66406250   547431.25000000 434587.37500000 
0.14300    16927650.00000000 10865241.00000000 27116148.00000000 5164.87402344   538354.31250000 427330.09375000 
0.14400    16723970.00000000 10736631.00000000 26792296.00000000 5081.89746094   529493.75000000 420244.78125000 
0.14500    16525574.00000000 10611580.00000000 26477082.00000000 5000.56152344   520841.34375000 413322.18750000 
0.14600    16332264.00000000 10489688.00000000 26169918.00000000 4920.66601562   512367.87500000 406547.37500000 
0.14700    16143641.00000000 10370733.00000000 25870278.00000000 4842.12841797   504070.71875000 399909.06250000 
0.14800    15959394.00000000 10254569.00000000 25577644.00000000 4764.70507812   495926.75000000 393396.25000000 
0.14900    15779078.00000000 10140925.00000000 25291388.00000000 4688.35351562   487921.81250000 386995.81250000 
0.15000    15602441.00000000 10029702.00000000 25010728.00000000 4612.94384766   480048.87500000 380700.50000000 
0.15100    15429316.00000000 9920583.00000000 24735832.00000000 4538.32910156   472291.96875000 374498.43750000 
0.15200    15259298.00000000 9813577.00000000 24465964.00000000 4464.49560547   464648.03125000 368388.37500000 
0.15300    15092120.00000000 9708359.00000000 24200424.00000000 4391.25341797   457096.62500000 362351.28125000 
0.15400    14927446.00000000 9604717.00000000 23939170.00000000 4318.57958984   449629.71875000 356382.43750000 
0.15500    14765289.00000000 9502618.00000000 23681662.00000000 4246.42480469   442242.00000000 350481.06250000 
0.15600    14605047.00000000 9401827.00000000 23427320.00000000 4174.65527344   434924.90625000 344630.59375000 
0.15700    14446830.00000000 9302311.00000000 23176280.00000000 4103.29638672   427669.34375000 338830.40625000 
0.15800    14290170.00000000 9203766.00000000 22927752.00000000 4032.23388672   420467.78125000 333075.87500000 
0.15900    14135197.00000000 9106277.00000000 22681706.00000000 3961.54052734   413316.28125000 327361.37500000 
0.16000    13981327.00000000 9009550.00000000 22437580.00000000 3891.09887695   406209.78125000 321680.90625000 
0.16100    13828767.00000000 8913550.00000000 22195470.00000000 3820.90942383   399141.31250000 316036.00000000 
0.16200    13677040.00000000 8818187.00000000 21954812.00000000 3750.96264648   392107.53125000 310413.62500000 
0.16300    13526163.00000000 8723339.00000000 21715468.00000000 3681.24194336   385104.03125000 304818.03125000 
0.16400    13376126.00000000 8628941.00000000 21477154.00000000 3611.78540039   378127.18750000 299245.68750000 
0.16500    13226599.00000000 8534853.00000000 21239880.00000000 3542.53002930   371178.84375000 293691.59375000 
0.16600    13077468.00000000 8441103.00000000 21003124.00000000 3473.55908203   364254.37500000 288156.78125000 
0.16700    12928636.00000000 8347451.50000000 20767076.00000000 3404.79858398   357346.37500000 282637.15625000 
0.16800    12780161.00000000 8254011.50000000 20531362.00000000 3336.32519531   350459.21875000 277136.46875000 
0.16900    12631893.00000000 8160695.50000000 20296034.00000000 3268.18969727   343597.15625000 271650.56250000 
0.17000    12483800.00000000 8067394.50000000 20060648.00000000 3200.35791016   336752.18750000 266179.25000000 
