# SAXS profile: number of points = 501, q_min = 0, q_max = 0.5, delta_q = 0.001
#    q    intensity 
0.00000    162232816.00000000 101202696.00000000 256270080.00000000 110528.28125000 8469190.00000000 6688950.50000000 
0.00100    162186864.00000000 101171256.00000000 256192400.00000000 110484.48437500 8466277.00000000 6686606.50000000 
0.00200    162046112.00000000 101079328.00000000 255960096.00000000 110353.27343750 8457262.00000000 6679534.00000000 
0.00300    161800944.00000000 100926688.00000000 255570496.00000000 110135.14843750 8442392.00000000 6667796.00000000 
0.00400    161452400.00000000 100712248.00000000 255026544.00000000 109830.71093750 8421491.00000000 6651431.00000000 
0.00500    161004672.00000000 100436144.00000000 254326624.00000000 109441.60156250 8394825.00000000 6630432.50000000 
0.00600    160464288.00000000 100102992.00000000 253479584.00000000 108967.61718750 8362382.50000000 6604921.00000000 
0.00700    159821760.00000000 99710824.00000000 252479872.00000000 108411.28906250 8324173.00000000 6574888.50000000 
0.00800    159093152.00000000 99262384.00000000 251334080.00000000 107772.74218750 8280403.00000000 6540463.00000000 
0.00900    158274992.00000000 98755328.00000000 250043200.00000000 107056.11718750 8231189.00000000 6501721.00000000 
0.01000    157365296.00000000 98191704.00000000 248609616.00000000 106260.73437500 8176593.00000000 6458737.50000000 
0.01100    156364208.00000000 97574368.00000000 247039520.00000000 105391.86718750 8116794.50000000 6411688.00000000 
0.01200    155278256.00000000 96902920.00000000 245333712.00000000 104450.43750000 8051975.00000000 6360692.50000000 
0.01300    154109440.00000000 96181264.00000000 243497280.00000000 103438.92968750 7982248.00000000 6305823.00000000 
0.01400    152862016.00000000 95410544.00000000 241533056.00000000 102360.53906250 7907832.50000000 6247298.00000000 
0.01500    151534256.00000000 94590240.00000000 239446832.00000000 101218.79687500 7828895.50000000 6185125.00000000 
0.01600    150133264.00000000 93724160.00000000 237245152.00000000 100016.11718750 7745642.00000000 6119614.00000000 
0.01700    148660944.00000000 92814192.00000000 234926960.00000000 98756.80468750  7658251.00000000 6050889.50000000 
0.01800    147119280.00000000 91861264.00000000 232505200.00000000 97443.38281250  7567065.50000000 5979019.50000000 
0.01900    145513216.00000000 90868664.00000000 229978912.00000000 96080.19531250  7472206.50000000 5904309.00000000 
0.02000    143846288.00000000 89837600.00000000 227355248.00000000 94670.30468750  7373901.50000000 5826934.00000000 
0.02100    142121376.00000000 88770880.00000000 224643680.00000000 93216.99218750  7272388.50000000 5747013.50000000 
0.02200    140341792.00000000 87669448.00000000 221845184.00000000 91724.72656250  7167914.50000000 5664795.50000000 
0.02300    138513200.00000000 86537480.00000000 218964480.00000000 90197.36718750  7060792.50000000 5580409.00000000 
0.02400    136635408.00000000 85376432.00000000 216014128.00000000 88638.84375000  6951219.00000000 5494085.00000000 
0.02500    134716784.00000000 84187640.00000000 212992272.00000000 87052.83593750  6839391.00000000 5406022.00000000 
0.02600    132759976.00000000 82975488.00000000 209911856.00000000 85442.67968750  6725651.00000000 5316418.50000000 
0.02700    130767120.00000000 81740744.00000000 206775600.00000000 83812.85156250  6610161.00000000 5225438.50000000 
0.02800    128743408.00000000 80486872.00000000 203590480.00000000 82166.99218750  6493253.50000000 5133284.00000000 
0.02900    126693304.00000000 79215328.00000000 200360640.00000000 80508.51562500  6375125.50000000 5040202.50000000 
0.03000    124619464.00000000 77930296.00000000 197094848.00000000 78841.65625000  6256050.00000000 4946353.50000000 
0.03100    122526280.00000000 76633056.00000000 193798784.00000000 77169.87500000  6136281.00000000 4851952.00000000 
0.03200    120417376.00000000 75325208.00000000 190475792.00000000 75495.97656250  6015933.00000000 4757119.50000000 
0.03300    118297536.00000000 74009376.00000000 187134304.00000000 73824.42187500  5895451.50000000 4662071.50000000 
0.03400    116167888.00000000 72687336.00000000 183779856.00000000 72157.97656250  5774863.50000000 4566960.50000000 
0.03500    114035344.00000000 71362688.00000000 180419248.00000000 70498.72656250  5654488.00000000 4472022.00000000 
0.03600    111900456.00000000 70036800.00000000 177054224.00000000 68851.69531250  5534444.00000000 4377361.00000000 
0.03700    109768704.00000000 68711952.00000000 173694032.00000000 67217.47656250  5415054.00000000 4283133.00000000 
0.03800    107643256.00000000 67390936.00000000 170341504.00000000 65601.12500000  5296400.50000000 4189550.00000000 
0.03900    105526792.00000000 66074188.00000000 167002736.00000000 64003.24218750  5178732.00000000 4096735.50000000 
0.04000    103422424.00000000 64765172.00000000 163680928.00000000 62427.23046875  5062253.50000000 4004812.50000000 
0.04100    101332432.00000000 63465060.00000000 160386160.00000000 60875.39453125  4947120.00000000 3913900.75000000 
0.04200    99261008.00000000 62175728.00000000 157116384.00000000 59349.02343750  4833422.50000000 3824138.00000000 
0.04300    97209264.00000000 60898548.00000000 153877680.00000000 57850.25390625  4721320.00000000 3735642.50000000 
0.04400    95181272.00000000 59635080.00000000 150677472.00000000 56381.27343750  4611002.50000000 3648528.50000000 
0.04500    93178104.00000000 58387640.00000000 147515984.00000000 54943.16406250  4502590.50000000 3562866.25000000 
0.04600    91203096.00000000 57156628.00000000 144399760.00000000 53536.75781250  4396108.50000000 3478784.25000000 
0.04700    89258008.00000000 55943976.00000000 141329344.00000000 52163.94531250  4291726.00000000 3396338.25000000 
0.04800    87345520.00000000 54750840.00000000 138306896.00000000 50825.89062500  4189587.25000000 3315605.25000000 
0.04900    85465896.00000000 53578960.00000000 135336768.00000000 49522.56250000  4089648.75000000 3236645.25000000 
0.05000    83621608.00000000 52427896.00000000 132423608.00000000 48255.06250000  3992044.25000000 3159502.00000000 
0.05100    81814120.00000000 51299752.00000000 129567232.00000000 47023.47656250  3896846.50000000 3084263.25000000 
0.05200    80044112.00000000 50194680.00000000 126770512.00000000 45828.11718750  3804079.75000000 3010914.00000000 
0.05300    78314784.00000000 49113960.00000000 124035704.00000000 44669.92968750  3713755.25000000 2939507.25000000 
0.05400    76623816.00000000 48058196.00000000 121363608.00000000 43547.99609375  3625953.75000000 2870085.75000000 
0.05500    74974184.00000000 47027488.00000000 118755656.00000000 42462.25390625  3540640.25000000 2802644.00000000 
0.05600    73366384.00000000 46022916.00000000 116213144.00000000 41413.33593750  3457887.50000000 2737179.25000000 
0.05700    71800896.00000000 45044008.00000000 113737560.00000000 40399.50000000  3377641.00000000 2673733.75000000 
0.05800    70277168.00000000 44091564.00000000 111329128.00000000 39421.01953125  3299878.75000000 2612250.75000000 
0.05900    68797488.00000000 43166100.00000000 108987136.00000000 38477.26171875  3224641.00000000 2552735.25000000 
0.06000    67359312.00000000 42266980.00000000 106714096.00000000 37567.20703125  3151853.00000000 2495156.50000000 
0.06100    65965224.00000000 41395108.00000000 104508432.00000000 36690.08984375  3081476.25000000 2439499.75000000 
0.06200    64613048.00000000 40549328.00000000 102370360.00000000 35845.28906250  3013531.00000000 2385760.75000000 
0.06300    63303884.00000000 39730388.00000000 100299704.00000000 35031.70312500  2947938.00000000 2333862.00000000 
0.06400    62036252.00000000 38938312.00000000 98295072.00000000 34247.85546875  2884622.50000000 2283782.50000000 
0.06500    60810836.00000000 38171524.00000000 96356536.00000000 33493.05859375  2823540.25000000 2235483.50000000 
0.06600    59626500.00000000 37431236.00000000 94483184.00000000 32766.40234375  2764614.00000000 2188897.25000000 
0.06700    58482180.00000000 36715912.00000000 92674080.00000000 32066.31640625  2707861.25000000 2144004.75000000 
0.06800    57377760.00000000 36025928.00000000 90928200.00000000 31391.45898438  2653092.75000000 2100719.00000000 
0.06900    56311828.00000000 35360296.00000000 89243632.00000000 30741.23242188  2600324.25000000 2058990.50000000 
0.07000    55284324.00000000 34718200.00000000 87619096.00000000 30113.82031250  2549448.25000000 2018797.75000000 
0.07100    54293464.00000000 34099636.00000000 86054008.00000000 29508.68554688  2500379.75000000 1980019.50000000 
0.07200    53338784.00000000 33504268.00000000 84544664.00000000 28923.99609375  2453063.00000000 1942636.25000000 
0.07300    52418652.00000000 32930562.00000000 83091600.00000000 28358.60546875  2407410.00000000 1906573.25000000 
0.07400    51532164.00000000 32378306.00000000 81692208.00000000 27811.53320312  2363302.00000000 1871754.87500000 
0.07500    50678492.00000000 31846882.00000000 80344984.00000000 27281.48632812  2320730.50000000 1838142.62500000 
0.07600    49855796.00000000 31335050.00000000 79047000.00000000 26767.46679688  2279549.50000000 1805645.25000000 
0.07700    49063152.00000000 30842496.00000000 77796840.00000000 26268.55078125  2239746.25000000 1774218.12500000 
0.07800    48299732.00000000 30368674.00000000 76593760.00000000 25783.16015625  2201175.50000000 1743812.62500000 
0.07900    47563560.00000000 29912102.00000000 75434680.00000000 25310.58984375  2163800.50000000 1714325.62500000 
0.08000    46854056.00000000 29472538.00000000 74317536.00000000 24849.86523438  2127531.50000000 1685748.37500000 
0.08100    46169700.00000000 29048962.00000000 73239952.00000000 24399.87695312  2092315.37500000 1657984.87500000 
0.08200    45509364.00000000 28640780.00000000 72201752.00000000 23960.12500000  2058038.00000000 1630994.50000000 
0.08300    44871072.00000000 28247018.00000000 71198816.00000000 23529.32617188  2024684.75000000 1604723.75000000 
0.08400    44254832.00000000 27867152.00000000 70230640.00000000 23107.31445312  1992153.62500000 1579107.87500000 
0.08500    43658132.00000000 27499942.00000000 69294952.00000000 22692.90039062  1960381.12500000 1554091.50000000 
0.08600    43080900.00000000 27145202.00000000 68389544.00000000 22285.91796875  1929333.25000000 1529655.12500000 
0.08700    42521328.00000000 26801856.00000000 67512400.00000000 21885.05078125  1898930.62500000 1505744.62500000 
0.08800    41978608.00000000 26469236.00000000 66662800.00000000 21490.48828125  1869127.50000000 1482306.00000000 
0.08900    41451368.00000000 26146728.00000000 65837572.00000000 21101.39062500  1839864.37500000 1459293.37500000 
0.09000    40938648.00000000 25833338.00000000 65035580.00000000 20717.56250000  1811135.50000000 1436699.12500000 
0.09100    40439384.00000000 25528948.00000000 64255456.00000000 20338.13281250  1782834.87500000 1414437.62500000 
0.09200    39952532.00000000 25232164.00000000 63495148.00000000 19963.37109375  1754966.62500000 1392531.00000000 
0.09300    39477668.00000000 24942916.00000000 62753116.00000000 19592.77343750  1727473.62500000 1370911.62500000 
0.09400    39012836.00000000 24660464.00000000 62028276.00000000 19226.26562500  1700337.25000000 1349578.37500000 
0.09500    38558100.00000000 24384244.00000000 61318968.00000000 18863.12890625  1673505.37500000 1328481.75000000 
0.09600    38111920.00000000 24113790.00000000 60624536.00000000 18503.85156250  1646979.12500000 1307614.37500000 
0.09700    37674108.00000000 23848448.00000000 59942244.00000000 18148.21093750  1620713.12500000 1286960.50000000 
0.09800    37243520.00000000 23587858.00000000 59272012.00000000 17795.96289062  1594708.12500000 1266491.50000000 
0.09900    36819696.00000000 23331470.00000000 58612296.00000000 17447.09765625  1568936.50000000 1246209.87500000 
0.10000    36402192.00000000 23078964.00000000 57962652.00000000 17101.53906250  1543364.37500000 1226089.12500000 
0.10100    35989624.00000000 22829706.00000000 57321024.00000000 16759.73242188  1518004.37500000 1206120.37500000 
0.10200    35582824.00000000 22583466.00000000 56687164.00000000 16421.15625000  1492843.00000000 1186291.12500000 
0.10300    35179540.00000000 22340006.00000000 56060128.00000000 16086.20605469  1467860.37500000 1166614.50000000 
0.10400    34780604.00000000 22098578.00000000 55439760.00000000 15754.74902344  1443057.12500000 1147059.62500000 
0.10500    34385160.00000000 21859528.00000000 54824488.00000000 15427.15820312  1418445.50000000 1127643.00000000 
0.10600    33992984.00000000 21622318.00000000 54213212.00000000 15103.23730469  1393992.62500000 1108357.62500000 
0.10700    33603180.00000000 21386480.00000000 53607236.00000000 14783.35839844  1369718.25000000 1089197.62500000 
0.10800    33216170.00000000 21152084.00000000 53004132.00000000 14467.37695312  1345616.12500000 1070169.00000000 
0.10900    32831102.00000000 20918920.00000000 52404312.00000000 14155.59179688  1321714.62500000 1051278.00000000 
0.11000    32448410.00000000 20686548.00000000 51807492.00000000 13848.08886719  1297973.12500000 1032521.87500000 
0.11100    32066840.00000000 20455252.00000000 51212724.00000000 13544.94921875  1274437.00000000 1013900.43750000 
0.11200    31687116.00000000 20224260.00000000 50620020.00000000 13246.25585938  1251074.25000000 995423.56250000 
0.11300    31309016.00000000 19994248.00000000 50030060.00000000 12952.23828125  1227931.62500000 977099.50000000 
0.11400    30931998.00000000 19764578.00000000 49441172.00000000 12662.83496094  1204987.87500000 958923.06250000 
0.11500    30556126.00000000 19535304.00000000 48853976.00000000 12378.25683594  1182253.50000000 940913.37500000 
0.11600    30181558.00000000 19306410.00000000 48267740.00000000 12098.60644531  1159753.62500000 923072.62500000 
0.11700    29807898.00000000 19077796.00000000 47683280.00000000 11823.79589844  1137473.00000000 905405.12500000 
0.11800    29435514.00000000 18849842.00000000 47099852.00000000 11553.93847656  1115429.37500000 887910.75000000 
0.11900    29064264.00000000 18621688.00000000 46517296.00000000 11289.21386719  1093640.87500000 870600.81250000 
0.12000    28693762.00000000 18394118.00000000 45936592.00000000 11029.59570312  1072092.00000000 853494.50000000 
0.12100    28324746.00000000 18166750.00000000 45356972.00000000 10775.09570312  1050814.62500000 836578.00000000 
0.12200    27956436.00000000 17939882.00000000 44778296.00000000 10525.50976562  1029787.81250000 819865.56250000 
0.12300    27589782.00000000 17713432.00000000 44201568.00000000 10281.28320312  1009045.00000000 803365.12500000 
0.12400    27223932.00000000 17486910.00000000 43626480.00000000 10042.19433594  988578.87500000 787079.31250000 
0.12500    26859638.00000000 17261334.00000000 43052204.00000000 9807.99023438   968398.56250000 771014.56250000 
0.12600    26496774.00000000 17036016.00000000 42480512.00000000 9579.03027344   948512.62500000 755172.12500000 
0.12700    26135300.00000000 16811472.00000000 41910460.00000000 9355.05468750   928918.50000000 739566.68750000 
0.12800    25775440.00000000 16587443.00000000 41342008.00000000 9136.05664062   909622.00000000 724192.00000000 
0.12900    25417170.00000000 16364246.00000000 40776604.00000000 8921.93750000   890629.81250000 709046.68750000 
0.13000    25060882.00000000 16141670.00000000 40212720.00000000 8712.73144531   871935.81250000 694146.37500000 
0.13100    24706312.00000000 15919915.00000000 39651832.00000000 8508.25195312   853558.06250000 679479.12500000 
0.13200    24353522.00000000 15698982.00000000 39093460.00000000 8308.45410156   835475.50000000 665058.43750000 
0.13300    24003112.00000000 15479232.00000000 38538420.00000000 8113.26708984   817717.50000000 650877.25000000 
0.13400    23654622.00000000 15260465.00000000 37986052.00000000 7922.65917969   800257.12500000 636948.31250000 
0.13500    23308558.00000000 15042746.00000000 37437080.00000000 7736.44921875   783110.18750000 623254.68750000 
0.13600    22964906.00000000 14826300.00000000 36891352.00000000 7554.47314453   766273.00000000 609810.87500000 
0.13700    22623796.00000000 14611148.00000000 36349460.00000000 7376.77294922   749740.25000000 596606.75000000 
0.13800    22285070.00000000 14397211.00000000 35810824.00000000 7203.17382812   733510.68750000 583653.00000000 
0.13900    21948940.00000000 14184813.00000000 35276640.00000000 7033.61669922   717586.87500000 570932.18750000 
0.14000    21615840.00000000 13973921.00000000 34746104.00000000 6868.00000000   701965.93750000 558452.12500000 
0.14100    21285440.00000000 13764509.00000000 34220044.00000000 6706.15283203   686641.00000000 546209.56250000 
0.14200    20957832.00000000 13556817.00000000 33698052.00000000 6548.06640625   671609.62500000 534197.50000000 
0.14300    20633318.00000000 13350646.00000000 33180902.00000000 6393.54785156   656869.18750000 522424.25000000 
0.14400    20311550.00000000 13146220.00000000 32668212.00000000 6242.50292969   642408.00000000 510873.53125000 
0.14500    19993352.00000000 12943686.00000000 32160360.00000000 6095.03076172   628234.75000000 499551.31250000 
0.14600    19678274.00000000 12742996.00000000 31657236.00000000 5950.73974609   614338.43750000 488452.75000000 
0.14700    19366276.00000000 12544150.00000000 31159414.00000000 5809.76318359   600712.37500000 477570.34375000 
0.14800    19057432.00000000 12347318.00000000 30666000.00000000 5672.02294922   587359.12500000 466901.46875000 
0.14900    18752150.00000000 12152327.00000000 30178380.00000000 5537.29638672   574259.93750000 456442.37500000 
0.15000    18450228.00000000 11959328.00000000 29695648.00000000 5405.59277344   561420.18750000 446190.40625000 
0.15100    18151754.00000000 11768517.00000000 29218276.00000000 5276.75097656   548835.75000000 436140.46875000 
0.15200    17856662.00000000 11579813.00000000 28746172.00000000 5150.90478516   536500.00000000 426292.31250000 
0.15300    17565084.00000000 11393121.00000000 28279626.00000000 5027.83740234   524403.43750000 416635.87500000 
0.15400    17277082.00000000 11208496.00000000 27818476.00000000 4907.44775391   512544.78125000 407167.00000000 
0.15500    16992402.00000000 11026166.00000000 27362820.00000000 4789.83691406   500920.25000000 397888.90625000 
0.15600    16711547.00000000 10846032.00000000 26912646.00000000 4674.80908203   489517.84375000 388786.53125000 
0.15700    16434043.00000000 10667969.00000000 26468558.00000000 4562.40478516   478345.31250000 379870.12500000 
0.15800    16160329.00000000 10492065.00000000 26029616.00000000 4452.49316406   467379.93750000 371117.71875000 
0.15900    15889905.00000000 10318525.00000000 25596448.00000000 4345.06298828   456629.31250000 362543.37500000 
0.16000    15623126.00000000 10147167.00000000 25168682.00000000 4240.02343750   446087.78125000 354129.09375000 
0.16100    15360015.00000000 9978047.00000000 24747076.00000000 4137.50488281   435747.62500000 345881.50000000 
0.16200    15100463.00000000 9811191.00000000 24330884.00000000 4037.31713867   425607.78125000 337789.59375000 
0.16300    14844485.00000000 9646442.00000000 23920102.00000000 3939.39941406   415661.28125000 329850.96875000 
0.16400    14591964.00000000 9484140.00000000 23515558.00000000 3843.82714844   405904.65625000 322065.59375000 
0.16500    14343108.00000000 9323892.00000000 23116072.00000000 3750.45190430   396331.90625000 314429.37500000 
0.16600    14097653.00000000 9165881.00000000 22722204.00000000 3659.27612305   386941.87500000 306936.00000000 
0.16700    13855799.00000000 9010183.00000000 22334014.00000000 3570.25219727   377732.37500000 299583.93750000 
0.16800    13617256.00000000 8856591.00000000 21951480.00000000 3483.39648438   368692.00000000 292370.40625000 
0.16900    13382363.00000000 8705191.00000000 21574240.00000000 3398.66674805   359827.56250000 285293.03125000 
0.17000    13150805.00000000 8555943.00000000 21202610.00000000 3315.95117188   351123.93750000 278346.93750000 
