# SAXS profile: number of points = 501, q_min = 0, q_max = 0.5, delta_q = 0.001
#    q    intensity 
0.00000    162229376.00000000 101202304.00000000 256269696.00000000 101693.46875000 8123718.50000000 6416066.50000000 
0.00100    162195872.00000000 101178496.00000000 256209440.00000000 101658.85937500 8121356.00000000 6414271.50000000 
0.00200    162089760.00000000 101108208.00000000 256029936.00000000 101558.54687500 8114364.00000000 6408709.50000000 
0.00300    161905296.00000000 100990984.00000000 255730784.00000000 101390.25000000 8102618.00000000 6399552.50000000 
0.00400    161633536.00000000 100826344.00000000 255311648.00000000 101155.96093750 8086377.50000000 6386792.00000000 
0.00500    161285232.00000000 100613888.00000000 254772768.00000000 100854.79687500 8065447.00000000 6370368.50000000 
0.00600    160866720.00000000 100357440.00000000 254118432.00000000 100488.63281250 8040008.50000000 6350436.50000000 
0.00700    160366912.00000000 100055776.00000000 253345536.00000000 100059.11718750 8010042.00000000 6326890.00000000 
0.00800    159798144.00000000 99709616.00000000 252458032.00000000 99565.07812500  7975693.00000000 6299910.00000000 
0.00900    159161152.00000000 99318776.00000000 251458576.00000000 99009.50781250  7936994.50000000 6269543.00000000 
0.01000    158454416.00000000 98884192.00000000 250346160.00000000 98393.46875000  7893972.50000000 6235812.00000000 
0.01100    157675552.00000000 98406072.00000000 249124976.00000000 97717.64062500  7846809.00000000 6198789.00000000 
0.01200    156824176.00000000 97885088.00000000 247796720.00000000 96984.00000000  7795582.50000000 6158589.00000000 
0.01300    155909664.00000000 97324216.00000000 246364224.00000000 96195.16406250  7740405.50000000 6115272.50000000 
0.01400    154929744.00000000 96723232.00000000 244829376.00000000 95353.03906250  7681373.50000000 6068883.00000000 
0.01500    153885120.00000000 96083296.00000000 243194096.00000000 94458.13281250  7618642.00000000 6019669.00000000 
0.01600    152778720.00000000 95405592.00000000 241462800.00000000 93513.68750000  7552283.50000000 5967533.50000000 
0.01700    151616048.00000000 94691464.00000000 239638496.00000000 92521.43750000  7482525.00000000 5912739.00000000 
0.01800    150392992.00000000 93941472.00000000 237723440.00000000 91483.70312500  7409451.00000000 5855382.50000000 
0.01900    149115008.00000000 93157704.00000000 235721888.00000000 90403.83593750  7333258.50000000 5795464.50000000 
0.02000    147783888.00000000 92340728.00000000 233635456.00000000 89282.89843750  7253975.00000000 5733249.00000000 
0.02100    146403200.00000000 91492520.00000000 231470048.00000000 88124.28906250  7171927.00000000 5668786.50000000 
0.02200    144972512.00000000 90614312.00000000 229228912.00000000 86930.05468750  7087200.00000000 5602185.50000000 
0.02300    143496448.00000000 89707088.00000000 226914608.00000000 85703.48437500  6999934.00000000 5533630.00000000 
0.02400    141976800.00000000 88772576.00000000 224530480.00000000 84445.28906250  6910326.00000000 5463280.50000000 
0.02500    140414912.00000000 87813136.00000000 222083200.00000000 83160.25781250  6818595.00000000 5391136.50000000 
0.02600    138814816.00000000 86828304.00000000 219573472.00000000 81850.38281250  6724821.50000000 5317428.50000000 
0.02700    137180032.00000000 85822840.00000000 217006432.00000000 80518.85156250  6629249.50000000 5242252.00000000 
0.02800    135512224.00000000 84794480.00000000 214388576.00000000 79166.61718750  6531934.00000000 5165796.50000000 
0.02900    133810688.00000000 83747400.00000000 211717520.00000000 77797.57031250  6433258.00000000 5088137.50000000 
0.03000    132081632.00000000 82682264.00000000 209005776.00000000 76414.89843750  6333186.00000000 5009447.00000000 
0.03100    130327560.00000000 81601928.00000000 206251744.00000000 75019.29687500  6232033.00000000 4929825.00000000 
0.03200    128549768.00000000 80506856.00000000 203461072.00000000 73615.36718750  6129865.00000000 4849478.00000000 
0.03300    126752448.00000000 79398440.00000000 200635520.00000000 72204.43750000  6026910.00000000 4768498.00000000 
0.03400    124936376.00000000 78277656.00000000 197781808.00000000 70788.62500000  5923280.50000000 4686946.00000000 
0.03500    123104568.00000000 77146832.00000000 194903904.00000000 69370.69531250  5819201.00000000 4605012.00000000 
0.03600    121259952.00000000 76007272.00000000 192003184.00000000 67953.11718750  5714787.50000000 4522789.50000000 
0.03700    119404120.00000000 74860448.00000000 189087360.00000000 66537.80468750  5610138.00000000 4440403.50000000 
0.03800    117539792.00000000 73707432.00000000 186154880.00000000 65126.47265625  5505565.50000000 4357999.00000000 
0.03900    115670696.00000000 72551464.00000000 183214032.00000000 63722.33203125  5400989.50000000 4275663.50000000 
0.04000    113796792.00000000 71392368.00000000 180264336.00000000 62326.62109375  5296730.00000000 4193468.00000000 
0.04100    111922632.00000000 70231760.00000000 177316304.00000000 60941.01562500  5192849.00000000 4111625.75000000 
0.04200    110048240.00000000 69070400.00000000 174365184.00000000 59567.12500000  5089476.00000000 4030130.00000000 
0.04300    108177456.00000000 67910440.00000000 171417776.00000000 58207.13281250  4986764.00000000 3949147.00000000 
0.04400    106310800.00000000 66751792.00000000 168477536.00000000 56862.23046875  4884734.50000000 3868699.25000000 
0.04500    104451064.00000000 65597876.00000000 165547760.00000000 55534.42968750  4783614.50000000 3788927.25000000 
0.04600    102600128.00000000 64448504.00000000 162630320.00000000 54223.87890625  4683422.00000000 3709900.00000000 
0.04700    100758936.00000000 63304864.00000000 159728800.00000000 52932.71093750  4584275.00000000 3631691.75000000 
0.04800    98930048.00000000 62168372.00000000 156845216.00000000 51661.46093750  4486318.50000000 3554372.25000000 
0.04900    97114760.00000000 61039728.00000000 153983872.00000000 50411.82421875  4389539.50000000 3477994.50000000 
0.05000    95315432.00000000 59920088.00000000 151143776.00000000 49184.03125000  4294096.00000000 3402628.50000000 
0.05100    93532144.00000000 58810000.00000000 148329872.00000000 47979.05859375  4200053.00000000 3328341.25000000 
0.05200    91768152.00000000 57710604.00000000 145546064.00000000 46797.82812500  4107370.25000000 3255164.00000000 
0.05300    90021672.00000000 56623148.00000000 142788992.00000000 45640.19531250  4016227.00000000 3183149.50000000 
0.05400    88296984.00000000 55547748.00000000 140064592.00000000 44508.13281250  3926635.75000000 3112334.75000000 
0.05500    86593576.00000000 54485020.00000000 137374208.00000000 43400.39453125  3838610.75000000 3042766.75000000 
0.05600    84913040.00000000 53435952.00000000 134717904.00000000 42317.66015625  3752224.25000000 2974477.50000000 
0.05700    83255760.00000000 52401208.00000000 132098960.00000000 41260.82812500  3667502.00000000 2907484.25000000 
0.05800    81623560.00000000 51381272.00000000 129518192.00000000 40229.06250000  3584433.25000000 2841814.75000000 
0.05900    80016184.00000000 50376408.00000000 126976480.00000000 39223.48046875  3503123.00000000 2777456.50000000 
0.06000    78433952.00000000 49387584.00000000 124474472.00000000 38243.01171875  3423498.75000000 2714478.00000000 
0.06100    76878632.00000000 48414100.00000000 122014744.00000000 37288.01171875  3345605.25000000 2652848.00000000 
0.06200    75351040.00000000 47457652.00000000 119596664.00000000 36358.10156250  3269465.25000000 2592580.50000000 
0.06300    73849648.00000000 46517816.00000000 117221872.00000000 35453.78125000  3195071.00000000 2533681.00000000 
0.06400    72377944.00000000 45594932.00000000 114889696.00000000 34573.57421875  3122413.50000000 2476146.50000000 
0.06500    70932880.00000000 44689672.00000000 112603080.00000000 33718.03125000  3051476.25000000 2419977.25000000 
0.06600    69517016.00000000 43801564.00000000 110359312.00000000 32886.07812500  2982233.50000000 2365155.00000000 
0.06700    68128216.00000000 42930928.00000000 108161504.00000000 32077.85546875  2914719.50000000 2311673.75000000 
0.06800    66769688.00000000 42078228.00000000 106008496.00000000 31292.50585938  2848882.75000000 2259520.75000000 
0.06900    65438988.00000000 41243320.00000000 103900552.00000000 30529.80859375  2784724.75000000 2208689.00000000 
0.07000    64137632.00000000 40426152.00000000 101837360.00000000 29788.97656250  2722179.75000000 2159157.00000000 
0.07100    62864508.00000000 39626720.00000000 99819584.00000000 29069.47070312  2661298.00000000 2110859.25000000 
0.07200    61619588.00000000 38844824.00000000 97847408.00000000 28370.82617188  2601974.25000000 2063842.62500000 
0.07300    60403520.00000000 38080832.00000000 95919264.00000000 27692.40039062  2544184.50000000 2018059.25000000 
0.07400    59215764.00000000 37334696.00000000 94035752.00000000 27033.48242188  2487921.75000000 1973472.62500000 
0.07500    58055668.00000000 36605720.00000000 92196968.00000000 26393.63671875  2433162.25000000 1930048.25000000 
0.07600    56923124.00000000 35893908.00000000 90401088.00000000 25772.15429688  2379842.75000000 1887795.12500000 
0.07700    55817788.00000000 35199644.00000000 88648856.00000000 25168.61718750  2327964.00000000 1846656.75000000 
0.07800    54739908.00000000 34521916.00000000 86938944.00000000 24581.88867188  2277451.50000000 1806597.87500000 
0.07900    53688152.00000000 33861208.00000000 85272136.00000000 24011.73046875  2228272.25000000 1767602.25000000 
0.08000    52662464.00000000 33217176.00000000 83645912.00000000 23457.65625000  2180399.00000000 1729671.62500000 
0.08100    51662940.00000000 32589204.00000000 82061264.00000000 22918.85156250  2133820.25000000 1692724.87500000 
0.08200    50688488.00000000 31977106.00000000 80516424.00000000 22394.84960938  2088456.37500000 1656768.87500000 
0.08300    49738672.00000000 31380620.00000000 79011504.00000000 21884.95703125  2044280.00000000 1621745.62500000 
0.08400    48813552.00000000 30799794.00000000 77544424.00000000 21388.88085938  2001258.50000000 1587626.75000000 
0.08500    47911804.00000000 30233756.00000000 76116192.00000000 20905.95312500  1959361.87500000 1554402.62500000 
0.08600    47033880.00000000 29682602.00000000 74724648.00000000 20435.53906250  1918545.37500000 1522054.00000000 
0.08700    46178896.00000000 29145870.00000000 73369952.00000000 19977.35742188  1878765.62500000 1490519.87500000 
0.08800    45345880.00000000 28623246.00000000 72050000.00000000 19530.85546875  1840018.37500000 1459797.00000000 
0.08900    44534496.00000000 28114674.00000000 70765536.00000000 19095.58203125  1802216.87500000 1429851.12500000 
0.09000    43744572.00000000 27619710.00000000 69514360.00000000 18670.98437500  1765395.50000000 1400653.50000000 
0.09100    42974992.00000000 27137598.00000000 68295864.00000000 18257.08203125  1729463.12500000 1372174.12500000 
0.09200    42225656.00000000 26668242.00000000 67110208.00000000 17852.98242188  1694422.62500000 1344400.12500000 
0.09300    41496064.00000000 26211604.00000000 65955768.00000000 17458.81640625  1660235.50000000 1317299.12500000 
0.09400    40785012.00000000 25766984.00000000 64830924.00000000 17073.91015625  1626835.75000000 1290859.25000000 
0.09500    40092852.00000000 25333926.00000000 63735828.00000000 16697.99414062  1594270.37500000 1265054.37500000 
0.09600    39418816.00000000 24912446.00000000 62669056.00000000 16330.76660156  1562440.00000000 1239839.62500000 
0.09700    38761364.00000000 24502186.00000000 61630636.00000000 15972.07519531  1531366.62500000 1215215.12500000 
0.09800    38121236.00000000 24102650.00000000 60619040.00000000 15621.68457031  1500999.25000000 1191168.12500000 
0.09900    37497436.00000000 23713548.00000000 59633456.00000000 15279.12890625  1471341.75000000 1167671.87500000 
0.10000    36889668.00000000 23334412.00000000 58672688.00000000 14944.25097656  1442335.25000000 1144681.62500000 
0.10100    36296420.00000000 22964902.00000000 57736452.00000000 14616.94824219  1413964.12500000 1122228.00000000 
0.10200    35718420.00000000 22605086.00000000 56824704.00000000 14296.92871094  1386242.37500000 1100256.75000000 
0.10300    35154744.00000000 22254308.00000000 55935036.00000000 13984.01367188  1359113.87500000 1078767.50000000 
0.10400    34605072.00000000 21912104.00000000 55067192.00000000 13677.94238281  1332574.25000000 1057739.25000000 
0.10500    34068764.00000000 21578706.00000000 54220928.00000000 13378.76464844  1306612.87500000 1037167.37500000 
0.10600    33545002.00000000 21253038.00000000 53394660.00000000 13086.07617188  1281177.75000000 1017030.87500000 
0.10700    33033642.00000000 20935480.00000000 52588784.00000000 12799.83593750  1256289.62500000 997319.43750000 
0.10800    32534160.00000000 20625338.00000000 51801240.00000000 12519.85644531  1231928.00000000 978014.81250000 
0.10900    32046244.00000000 20322718.00000000 51032668.00000000 12246.04882812  1208061.12500000 959101.18750000 
0.11000    31569396.00000000 20026864.00000000 50281404.00000000 11978.24511719  1184687.50000000 940576.68750000 
0.11100    31103164.00000000 19737928.00000000 49546976.00000000 11716.32910156  1161776.25000000 922432.37500000 
0.11200    30647006.00000000 19455480.00000000 48828384.00000000 11460.04980469  1139339.37500000 904643.68750000 
0.11300    30200974.00000000 19178952.00000000 48125960.00000000 11209.49218750  1117340.75000000 887211.37500000 
0.11400    29764356.00000000 18908432.00000000 47438052.00000000 10964.32617188  1095782.50000000 870125.37500000 
0.11500    29336670.00000000 18643770.00000000 46765056.00000000 10724.47753906  1074641.12500000 853366.56250000 
0.11600    28917512.00000000 18384228.00000000 46105172.00000000 10489.84667969  1053932.62500000 836939.50000000 
0.11700    28506954.00000000 18130002.00000000 45458744.00000000 10260.43750000  1033598.43750000 820824.68750000 
0.11800    28104128.00000000 17880672.00000000 44824892.00000000 10035.82128906  1013658.81250000 805017.37500000 
0.11900    27708944.00000000 17636146.00000000 44202760.00000000 9816.18750000   994097.25000000 789503.81250000 
0.12000    27321244.00000000 17396046.00000000 43592156.00000000 9601.23144531   974915.68750000 774277.87500000 
0.12100    26940492.00000000 17160360.00000000 42992960.00000000 9390.77929688   956082.75000000 759337.56250000 
0.12200    26566234.00000000 16928720.00000000 42403832.00000000 9184.96484375   937591.37500000 744667.81250000 
0.12300    26198492.00000000 16700954.00000000 41824572.00000000 8983.44531250   919442.37500000 730264.81250000 
0.12400    25836746.00000000 16476947.00000000 41255396.00000000 8786.15332031   901626.68750000 716123.75000000 
0.12500    25480882.00000000 16256434.00000000 40694584.00000000 8592.87402344   884121.87500000 702229.87500000 
0.12600    25130452.00000000 16039396.00000000 40142928.00000000 8403.77929688   866931.87500000 688580.87500000 
0.12700    24785272.00000000 15825427.00000000 39599236.00000000 8218.47558594   850043.56250000 675174.06250000 
0.12800    24445314.00000000 15614467.00000000 39063384.00000000 8036.94335938   833443.37500000 661983.43750000 
0.12900    24110106.00000000 15406539.00000000 38534940.00000000 7858.96240234   817132.50000000 649030.87500000 
0.13000    23779506.00000000 15201321.00000000 38013928.00000000 7684.62500000   801098.18750000 636300.93750000 
0.13100    23453118.00000000 14998663.00000000 37499444.00000000 7513.66943359   785329.43750000 623769.68750000 
0.13200    23131102.00000000 14798421.00000000 36991480.00000000 7346.03564453   769823.56250000 611444.93750000 
0.13300    22812614.00000000 14600771.00000000 36489008.00000000 7181.60400391   754563.87500000 599333.37500000 
0.13400    22498340.00000000 14405000.00000000 35993248.00000000 7020.29541016   739566.37500000 587411.37500000 
0.13500    22187718.00000000 14211600.00000000 35502456.00000000 6861.99755859   724791.62500000 575672.06250000 
0.13600    21880224.00000000 14020121.00000000 35017372.00000000 6706.62646484   710256.93750000 564121.25000000 
0.13700    21576218.00000000 13830674.00000000 34536852.00000000 6554.13378906   695950.50000000 552750.25000000 
0.13800    21275186.00000000 13642956.00000000 34061424.00000000 6404.44970703   681857.50000000 541554.93750000 
0.13900    20977426.00000000 13457144.00000000 33590924.00000000 6257.44482422   667996.00000000 530530.37500000 
0.14000    20682400.00000000 13272906.00000000 33124616.00000000 6113.08886719   654333.62500000 519673.06250000 
0.14100    20390432.00000000 13090299.00000000 32662676.00000000 5971.30126953   640876.06250000 508977.62500000 
0.14200    20101046.00000000 12909270.00000000 32204848.00000000 5831.95361328   627620.56250000 498445.90625000 
0.14300    19814312.00000000 12729797.00000000 31751164.00000000 5695.16357422   614568.87500000 488065.68750000 
0.14400    19530124.00000000 12551763.00000000 31300876.00000000 5560.73291016   601706.00000000 477838.71875000 
0.14500    19248562.00000000 12375190.00000000 30854634.00000000 5428.75244141   589026.50000000 467762.56250000 
0.14600    18969064.00000000 12199916.00000000 30412450.00000000 5299.11572266   576542.62500000 457834.15625000 
0.14700    18692102.00000000 12026097.00000000 29973334.00000000 5171.81445312   564237.56250000 448055.21875000 
0.14800    18417646.00000000 11853576.00000000 29537986.00000000 5046.84130859   552111.43750000 438413.15625000 
0.14900    18145274.00000000 11682339.00000000 29105948.00000000 4924.09082031   540163.00000000 428914.90625000 
0.15000    17875164.00000000 11512440.00000000 28677496.00000000 4803.70654297   528394.31250000 419559.62500000 
0.15100    17607294.00000000 11343760.00000000 28252430.00000000 4685.59863281   516796.46875000 410338.68750000 
0.15200    17341960.00000000 11176409.00000000 27830872.00000000 4569.74804688   505380.37500000 401257.93750000 
0.15300    17078706.00000000 11010391.00000000 27412338.00000000 4456.17675781   494127.78125000 392311.93750000 
0.15400    16817378.00000000 10845567.00000000 26997568.00000000 4344.90234375   483045.81250000 383503.75000000 
0.15500    16558668.00000000 10682003.00000000 26586080.00000000 4235.92578125   472139.09375000 374827.12500000 
0.15600    16302109.00000000 10519777.00000000 26177982.00000000 4129.21826172   461402.84375000 366284.53125000 
0.15700    16047729.00000000 10359012.00000000 25773330.00000000 4024.92333984   450836.81250000 357878.81250000 
0.15800    15795661.00000000 10199406.00000000 25372176.00000000 3922.82910156   440432.06250000 349604.25000000 
0.15900    15545861.00000000 10041155.00000000 24974596.00000000 3823.12915039   430209.15625000 341466.75000000 
0.16000    15298371.00000000 9884297.00000000 24580522.00000000 3725.80444336   420149.46875000 333459.96875000 
0.16100    15053368.00000000 9728858.00000000 24190232.00000000 3630.87866211   410256.78125000 325585.75000000 
0.16200    14810717.00000000 9574840.00000000 23803606.00000000 3538.29687500   400539.78125000 317849.50000000 
0.16300    14570458.00000000 9422244.00000000 23420558.00000000 3448.13525391   390990.59375000 310242.81250000 
0.16400    14332819.00000000 9271242.00000000 23041688.00000000 3360.35131836   381610.78125000 302774.53125000 
0.16500    14097495.00000000 9121541.00000000 22666238.00000000 3275.00195312   372407.87500000 295438.31250000 
0.16600    13864858.00000000 8973342.00000000 22294938.00000000 3192.09887695   363370.06250000 288241.43750000 
0.16700    13634707.00000000 8826767.00000000 21927674.00000000 3111.55249023   354504.62500000 281171.00000000 
0.16800    13407134.00000000 8681743.00000000 21564380.00000000 3033.44287109   345809.00000000 274237.68750000 
0.16900    13182444.00000000 8538366.00000000 21205326.00000000 2957.79614258   337290.62500000 267443.12500000 
0.17000    12960263.00000000 8396509.00000000 20850468.00000000 2884.49584961   328938.25000000 260776.25000000 
