# SAXS profile: number of points = 501, q_min = 0, q_max = 0.5, delta_q = 0.001
#    q    intensity 
0.00000    162236928.00000000 101201520.00000000 256271056.00000000 103690.82812500 8203099.00000000 6478780.50000000 
0.00100    162201760.00000000 101179600.00000000 256214912.00000000 103662.47656250 8201076.00000000 6477185.50000000 
0.00200    162096848.00000000 101113504.00000000 256046624.00000000 103577.64062500 8194938.50000000 6472378.50000000 
0.00300    161920480.00000000 101003008.00000000 255767648.00000000 103436.10937500 8184760.00000000 6464383.00000000 
0.00400    161670848.00000000 100849832.00000000 255374240.00000000 103238.81250000 8170532.50000000 6453187.00000000 
0.00500    161349312.00000000 100651872.00000000 254872000.00000000 102985.60937500 8152333.00000000 6438874.50000000 
0.00600    160958096.00000000 100411056.00000000 254257232.00000000 102676.76562500 8130059.50000000 6421424.50000000 
0.00700    160498768.00000000 100126752.00000000 253534592.00000000 102313.19531250 8103863.00000000 6400793.00000000 
0.00800    159967280.00000000 99800224.00000000 252704832.00000000 101895.92187500 8073793.00000000 6377134.00000000 
0.00900    159367824.00000000 99432064.00000000 251765888.00000000 101424.88281250 8039837.50000000 6350477.50000000 
0.01000    158703136.00000000 99023032.00000000 250722032.00000000 100901.22656250 8002048.50000000 6320771.00000000 
0.01100    157972816.00000000 98572552.00000000 249573712.00000000 100325.96875000 7960528.00000000 6288122.00000000 
0.01200    157178688.00000000 98081624.00000000 248322960.00000000 99699.57812500  7915331.50000000 6252618.00000000 
0.01300    156318960.00000000 97550616.00000000 246973120.00000000 99024.32031250  7866540.50000000 6214219.00000000 
0.01400    155394048.00000000 96981104.00000000 245522464.00000000 98300.54687500  7814216.50000000 6173100.50000000 
0.01500    154410128.00000000 96374376.00000000 243977264.00000000 97529.84375000  7758452.00000000 6129264.00000000 
0.01600    153365952.00000000 95729888.00000000 242336448.00000000 96712.67968750  7699301.50000000 6082774.00000000 
0.01700    152262592.00000000 95049600.00000000 240602656.00000000 95851.16406250  7636938.00000000 6033714.50000000 
0.01800    151104000.00000000 94334064.00000000 238781920.00000000 94947.10156250  7571404.00000000 5982217.00000000 
0.01900    149887888.00000000 93584768.00000000 236873664.00000000 94001.69531250  7502795.00000000 5928294.50000000 
0.02000    148619584.00000000 92801736.00000000 234880496.00000000 93016.64062500  7431271.50000000 5872025.50000000 
0.02100    147300528.00000000 91986904.00000000 232806816.00000000 91992.48437500  7356906.00000000 5813528.00000000 
0.02200    145930208.00000000 91141904.00000000 230653472.00000000 90932.39062500  7279822.50000000 5752904.50000000 
0.02300    144512496.00000000 90267240.00000000 228426112.00000000 89838.10937500  7200126.00000000 5690224.50000000 
0.02400    143049440.00000000 89364096.00000000 226127104.00000000 88710.17968750  7117919.00000000 5625561.00000000 
0.02500    141542848.00000000 88433168.00000000 223758224.00000000 87551.14843750  7033379.50000000 5559072.00000000 
0.02600    139993104.00000000 87476320.00000000 221322576.00000000 86363.39843750  6946632.00000000 5490832.50000000 
0.02700    138403136.00000000 86495184.00000000 218826400.00000000 85148.15625000  6857732.50000000 5420934.00000000 
0.02800    136778592.00000000 85490832.00000000 216270016.00000000 83907.29687500  6766911.00000000 5349472.50000000 
0.02900    135116608.00000000 84464096.00000000 213657728.00000000 82643.16406250  6674222.00000000 5276564.50000000 
0.03000    133422096.00000000 83417712.00000000 210993328.00000000 81357.30468750  6579860.50000000 5202312.50000000 
0.03100    131696784.00000000 82351168.00000000 208281728.00000000 80051.89843750  6483920.00000000 5126820.00000000 
0.03200    129942432.00000000 81266896.00000000 205522576.00000000 78728.93750000  6386530.00000000 5050166.00000000 
0.03300    128161984.00000000 80165752.00000000 202722816.00000000 77389.96093750  6287856.00000000 4972505.50000000 
0.03400    126357760.00000000 79050392.00000000 199886000.00000000 76037.85156250  6188028.00000000 4893920.50000000 
0.03500    124531736.00000000 77921128.00000000 197013600.00000000 74673.56250000  6087152.50000000 4814518.00000000 
0.03600    122685328.00000000 76778504.00000000 194109104.00000000 73299.62500000  5985405.00000000 4734417.50000000 
0.03700    120822832.00000000 75626384.00000000 191178608.00000000 71917.32031250  5882871.00000000 4653707.50000000 
0.03800    118944584.00000000 74463856.00000000 188224096.00000000 70528.91406250  5779717.50000000 4572477.00000000 
0.03900    117054280.00000000 73293984.00000000 185248816.00000000 69137.27343750  5676100.00000000 4490873.50000000 
0.04000    115153096.00000000 72117712.00000000 182257248.00000000 67742.00781250  5572076.00000000 4408985.00000000 
0.04100    113244008.00000000 70935944.00000000 179253680.00000000 66347.03906250  5467907.50000000 4326913.00000000 
0.04200    111327848.00000000 69749328.00000000 176236864.00000000 64953.13281250  5363535.50000000 4244700.50000000 
0.04300    109408584.00000000 68560088.00000000 173215024.00000000 63561.95703125  5259208.00000000 4162508.75000000 
0.04400    107486864.00000000 67369272.00000000 170189520.00000000 62175.35546875  5155030.00000000 4080423.75000000 
0.04500    105565312.00000000 66178096.00000000 167164864.00000000 60794.76171875  5051082.00000000 3998505.50000000 
0.04600    103646808.00000000 64988376.00000000 164143536.00000000 59422.23828125  4947498.50000000 3916888.00000000 
0.04700    101732040.00000000 63801100.00000000 161127632.00000000 58058.94921875  4844404.00000000 3835637.25000000 
0.04800    99823536.00000000 62617288.00000000 158120640.00000000 56706.21875000  4741874.00000000 3754820.00000000 
0.04900    97922696.00000000 61438188.00000000 155126560.00000000 55365.57421875  4640034.50000000 3674533.00000000 
0.05000    96032064.00000000 60264704.00000000 152147840.00000000 54038.62890625  4539014.50000000 3594865.75000000 
0.05100    94153544.00000000 59098148.00000000 149187376.00000000 52726.30468750  4438864.50000000 3515896.00000000 
0.05200    92287960.00000000 57940092.00000000 146246944.00000000 51429.84765625  4339666.00000000 3437689.25000000 
0.05300    90437656.00000000 56790552.00000000 143329168.00000000 50150.31640625  4241580.00000000 3360284.00000000 
0.05400    88602712.00000000 55651248.00000000 140436848.00000000 48889.14062500  4144619.25000000 3283797.00000000 
0.05500    86787736.00000000 54522800.00000000 137575840.00000000 47646.96484375  4048880.00000000 3208245.50000000 
0.05600    84991112.00000000 53406084.00000000 134742384.00000000 46425.18359375  3954439.25000000 3133714.75000000 
0.05700    83216016.00000000 52302304.00000000 131943608.00000000 45223.97656250  3861363.25000000 3060252.00000000 
0.05800    81463152.00000000 51211968.00000000 129178496.00000000 44044.49609375  3769726.25000000 2987919.50000000 
0.05900    79733224.00000000 50135744.00000000 126450056.00000000 42887.51562500  3679595.75000000 2916753.75000000 
0.06000    78028440.00000000 49074828.00000000 123759232.00000000 41753.87890625  3591010.50000000 2846806.50000000 
0.06100    76349352.00000000 48029292.00000000 121109752.00000000 40643.42578125  3504016.75000000 2778099.25000000 
0.06200    74697112.00000000 47000212.00000000 118501016.00000000 39557.32421875  3418680.50000000 2710680.75000000 
0.06300    73072512.00000000 45988112.00000000 115936880.00000000 38495.76953125  3335028.75000000 2644594.75000000 
0.06400    71476304.00000000 44993448.00000000 113416376.00000000 37459.46093750  3253102.25000000 2579839.50000000 
0.06500    69909880.00000000 44016772.00000000 110942368.00000000 36448.25781250  3172930.75000000 2516495.75000000 
0.06600    68372848.00000000 43058684.00000000 108515800.00000000 35462.44921875  3094550.75000000 2454527.75000000 
0.06700    66866980.00000000 42119352.00000000 106136984.00000000 34502.26171875  3017966.00000000 2393975.75000000 
0.06800    65392708.00000000 41199280.00000000 103807200.00000000 33567.76562500  2943222.25000000 2334872.75000000 
0.06900    63950148.00000000 40298596.00000000 101527176.00000000 32659.30273438  2870304.75000000 2277197.00000000 
0.07000    62539248.00000000 39417864.00000000 99297760.00000000 31776.60742188  2799218.00000000 2220985.50000000 
0.07100    61161188.00000000 38557160.00000000 97119440.00000000 30919.49218750  2730023.25000000 2166219.00000000 
0.07200    59815804.00000000 37716548.00000000 94992152.00000000 30087.97460938  2662646.25000000 2112922.00000000 
0.07300    58503340.00000000 36896416.00000000 92916904.00000000 29281.96875000  2597130.25000000 2061070.50000000 
0.07400    57224052.00000000 36096424.00000000 90893792.00000000 28500.91601562  2533494.00000000 2010660.25000000 
0.07500    55978140.00000000 35317296.00000000 88922912.00000000 27744.89843750  2471649.75000000 1961691.50000000 
0.07600    54764960.00000000 34558556.00000000 87004448.00000000 27013.38476562  2411646.00000000 1914171.37500000 
0.07700    53585532.00000000 33820196.00000000 85138328.00000000 26306.08007812  2353443.50000000 1868070.50000000 
0.07800    52438864.00000000 33102198.00000000 83323304.00000000 25622.69726562  2297018.00000000 1823357.12500000 
0.07900    51324856.00000000 32404882.00000000 81560112.00000000 24962.26367188  2242344.50000000 1780045.00000000 
0.08000    50243540.00000000 31727374.00000000 79848528.00000000 24324.90234375  2189415.50000000 1738101.37500000 
0.08100    49194300.00000000 31070384.00000000 78187432.00000000 23709.89257812  2138195.75000000 1697496.75000000 
0.08200    48177148.00000000 30433032.00000000 76576872.00000000 23116.60742188  2088639.62500000 1658204.62500000 
0.08300    47191632.00000000 29815364.00000000 75016216.00000000 22544.57617188  2040732.12500000 1620214.75000000 
0.08400    46237216.00000000 29216934.00000000 73505640.00000000 21992.99609375  1994418.87500000 1583486.25000000 
0.08500    45313516.00000000 28637720.00000000 72042112.00000000 21461.61328125  1949674.75000000 1547995.12500000 
0.08600    44419756.00000000 28077184.00000000 70626512.00000000 20949.48632812  1906463.50000000 1513706.87500000 
0.08700    43555888.00000000 27535252.00000000 69257488.00000000 20456.11132812  1864723.50000000 1480590.25000000 
0.08800    42720528.00000000 27011362.00000000 67934584.00000000 19980.74804688  1824443.50000000 1448614.00000000 
0.08900    41913464.00000000 26505122.00000000 66655956.00000000 19522.90429688  1785546.37500000 1417744.87500000 
0.09000    41134528.00000000 26016048.00000000 65421636.00000000 19081.56640625  1748014.12500000 1387940.87500000 
0.09100    40382400.00000000 25544010.00000000 64229848.00000000 18656.49414062  1711783.25000000 1359176.50000000 
0.09200    39656304.00000000 25088622.00000000 63079660.00000000 18246.61718750  1676801.25000000 1331401.00000000 
0.09300    38956036.00000000 24649108.00000000 61969848.00000000 17851.43554688  1643048.12500000 1304601.37500000 
0.09400    38280316.00000000 24225020.00000000 60899052.00000000 17470.33984375  1610444.00000000 1278711.12500000 
0.09500    37628864.00000000 23816222.00000000 59866656.00000000 17102.42773438  1578972.87500000 1253713.50000000 
0.09600    37000236.00000000 23421872.00000000 58870840.00000000 16747.16210938  1548570.62500000 1229555.37500000 
0.09700    36394140.00000000 23041602.00000000 57910912.00000000 16403.92187500  1519184.00000000 1206214.25000000 
0.09800    35810060.00000000 22675080.00000000 56984904.00000000 16072.12207031  1490771.62500000 1183648.37500000 
0.09900    35245900.00000000 22321798.00000000 56092344.00000000 15751.04296875  1463298.00000000 1161824.50000000 
0.10000    34702412.00000000 21980928.00000000 55230832.00000000 15440.00390625  1436696.75000000 1140693.75000000 
0.10100    34178064.00000000 21652206.00000000 54400136.00000000 15138.47656250  1410932.00000000 1120219.75000000 
0.10200    33671576.00000000 21335082.00000000 53598728.00000000 14845.83984375  1385954.62500000 1100386.00000000 
0.10300    33182318.00000000 21029242.00000000 52824980.00000000 14561.54199219  1361727.25000000 1081141.37500000 
0.10400    32710282.00000000 20733742.00000000 52078064.00000000 14285.04785156  1338203.00000000 1062453.50000000 
0.10500    32254194.00000000 20448402.00000000 51356392.00000000 14015.89160156  1315344.00000000 1044294.43750000 
0.10600    31812866.00000000 20172438.00000000 50658188.00000000 13753.37890625  1293079.12500000 1026629.87500000 
0.10700    31385956.00000000 19905828.00000000 49983248.00000000 13497.25195312  1271418.00000000 1009421.25000000 
0.10800    30972590.00000000 19647746.00000000 49329980.00000000 13247.00292969  1250290.87500000 992650.25000000 
0.10900    30571504.00000000 19397848.00000000 48696764.00000000 13002.08105469  1229673.50000000 976277.43750000 
0.11000    30183006.00000000 19155478.00000000 48082928.00000000 12762.08593750  1209512.87500000 960280.68750000 
0.11100    29805400.00000000 18920400.00000000 47486808.00000000 12526.82519531  1189799.50000000 944631.75000000 
0.11200    29438552.00000000 18692054.00000000 46907800.00000000 12295.72265625  1170474.50000000 929303.18750000 
0.11300    29081468.00000000 18470090.00000000 46344616.00000000 12068.53515625  1151525.12500000 914271.62500000 
0.11400    28733464.00000000 18253974.00000000 45795884.00000000 11845.02343750  1132923.25000000 899517.56250000 
0.11500    28393998.00000000 18043378.00000000 45260776.00000000 11624.71679688  1114625.50000000 885003.18750000 
0.11600    28062394.00000000 17837664.00000000 44738692.00000000 11407.48144531  1096628.87500000 870728.81250000 
0.11700    27738124.00000000 17636842.00000000 44228364.00000000 11193.08886719  1078886.75000000 856665.62500000 
0.11800    27420598.00000000 17440368.00000000 43728116.00000000 10981.20019531  1061384.87500000 842787.12500000 
0.11900    27109170.00000000 17247686.00000000 43238016.00000000 10771.88378906  1044107.18750000 829089.93750000 
0.12000    26803246.00000000 17058770.00000000 42757128.00000000 10564.68261719  1027023.37500000 815551.43750000 
0.12100    26502444.00000000 16872990.00000000 42284160.00000000 10359.59765625  1010128.18750000 802162.68750000 
0.12200    26206290.00000000 16690291.00000000 41818848.00000000 10156.46875000  993398.18750000 788902.37500000 
0.12300    25914338.00000000 16510365.00000000 41360188.00000000 9955.18066406   976821.68750000 775770.06250000 
0.12400    25625820.00000000 16332774.00000000 40907504.00000000 9755.62304688   960380.50000000 762743.56250000 
0.12500    25340988.00000000 16157230.00000000 40460192.00000000 9557.74121094   944069.37500000 749818.31250000 
0.12600    25059210.00000000 15983768.00000000 40017544.00000000 9361.58593750   927882.68750000 736991.62500000 
0.12700    24779678.00000000 15811933.00000000 39579088.00000000 9167.03320312   911800.00000000 724250.12500000 
0.12800    24502390.00000000 15641515.00000000 39143916.00000000 8973.98046875   895816.31250000 711586.81250000 
0.12900    24227318.00000000 15472321.00000000 38712728.00000000 8782.60937500   879927.50000000 699000.18750000 
0.13000    23953872.00000000 15304301.00000000 38283756.00000000 8592.80175781   864138.06250000 686483.93750000 
0.13100    23681786.00000000 15137115.00000000 37856848.00000000 8404.59179688   848429.93750000 674037.50000000 
0.13200    23410832.00000000 14970561.00000000 37431972.00000000 8217.96484375   832808.62500000 661657.18750000 
0.13300    23141176.00000000 14804837.00000000 37008816.00000000 8033.12695312   817271.06250000 649344.37500000 
0.13400    22872162.00000000 14639510.00000000 36587016.00000000 7849.97412109   801823.43750000 637093.50000000 
0.13500    22603974.00000000 14474522.00000000 36166028.00000000 7668.58935547   786460.56250000 624909.12500000 
0.13600    22336152.00000000 14309907.00000000 35745984.00000000 7489.08984375   771177.50000000 612789.75000000 
0.13700    22068886.00000000 14145351.00000000 35326436.00000000 7311.50976562   755981.75000000 600742.37500000 
0.13800    21801790.00000000 13981027.00000000 34907164.00000000 7135.90722656   740877.31250000 588758.06250000 
0.13900    21534898.00000000 13816751.00000000 34488332.00000000 6962.44238281   725875.62500000 576858.12500000 
0.14000    21268434.00000000 13652582.00000000 34069528.00000000 6791.13037109   710973.43750000 565025.18750000 
0.14100    21001974.00000000 13488307.00000000 33651092.00000000 6622.01074219   696172.43750000 553274.18750000 
0.14200    20735730.00000000 13324035.00000000 33232552.00000000 6455.22998047   681480.50000000 541609.50000000 
0.14300    20469568.00000000 13159634.00000000 32813876.00000000 6290.90380859   666902.12500000 530028.00000000 
0.14400    20203370.00000000 12995143.00000000 32395142.00000000 6129.00537109   652447.87500000 518539.78125000 
0.14500    19937462.00000000 12830679.00000000 31976812.00000000 5969.70996094   638124.31250000 507154.93750000 
0.14600    19671748.00000000 12666129.00000000 31558458.00000000 5813.09472656   623929.43750000 495870.96875000 
0.14700    19406142.00000000 12501619.00000000 31140212.00000000 5659.24218750   609877.31250000 484695.15625000 
0.14800    19140726.00000000 12336961.00000000 30722064.00000000 5508.15087891   595973.12500000 473629.21875000 
0.14900    18875882.00000000 12172468.00000000 30304214.00000000 5359.92480469   582216.56250000 462683.50000000 
0.15000    18611304.00000000 12007973.00000000 29886874.00000000 5214.65527344   568624.62500000 451860.53125000 
0.15100    18347040.00000000 11843545.00000000 29469890.00000000 5072.39892578   555199.18750000 441164.40625000 
0.15200    18083450.00000000 11679384.00000000 29053814.00000000 4933.17041016   541948.00000000 430605.46875000 
0.15300    17820626.00000000 11515425.00000000 28638490.00000000 4797.04296875   528874.43750000 420183.59375000 
0.15400    17558344.00000000 11351678.00000000 28223610.00000000 4664.05566406   515979.34375000 409904.78125000 
0.15500    17297116.00000000 11188304.00000000 27810476.00000000 4534.24169922   503282.00000000 399771.03125000 
0.15600    17036662.00000000 11025297.00000000 27398110.00000000 4407.64355469   490776.78125000 389790.43750000 
0.15700    16777382.00000000 10862803.00000000 26987502.00000000 4284.27001953   478477.50000000 379972.59375000 
0.15800    16519225.00000000 10700735.00000000 26578260.00000000 4164.07568359   466379.71875000 370305.68750000 
0.15900    16262251.00000000 10539314.00000000 26170860.00000000 4047.20336914   454492.59375000 360808.15625000 
0.16000    16006716.00000000 10378523.00000000 25765298.00000000 3933.53857422   442817.12500000 351470.87500000 
0.16100    15752766.00000000 10218550.00000000 25362006.00000000 3823.15600586   431364.59375000 342309.87500000 
0.16200    15500343.00000000 10059369.00000000 24961110.00000000 3715.96093750   420128.96875000 333321.62500000 
0.16300    15249674.00000000 9900991.00000000 24562542.00000000 3611.95971680   409115.96875000 324508.15625000 
0.16400    15000857.00000000 9743627.00000000 24166460.00000000 3511.17626953   398328.53125000 315866.40625000 
0.16500    14753813.00000000 9587253.00000000 23773400.00000000 3413.52001953   387769.31250000 307406.96875000 
0.16600    14508924.00000000 9431986.00000000 23383162.00000000 3319.00927734   377439.84375000 299127.25000000 
0.16700    14266131.00000000 9277807.00000000 22996240.00000000 3227.51953125   367334.78125000 291029.46875000 
0.16800    14025527.00000000 9124814.00000000 22612320.00000000 3139.04565430   357462.37500000 283110.21875000 
0.16900    13787294.00000000 8973209.00000000 22232136.00000000 3053.57958984   347822.65625000 275371.78125000 
0.17000    13551394.00000000 8822846.00000000 21855360.00000000 2970.98632812   338408.68750000 267813.68750000 
