# SAXS profile: number of points = 501, q_min = 0, q_max = 0.5, delta_q = 0.001
#    q    intensity 
0.00000    162238080.00000000 101202232.00000000 256271904.00000000 111743.49218750 8515671.00000000 6725626.00000000 
0.00100    162201392.00000000 101178480.00000000 256212864.00000000 111710.84375000 8513458.00000000 6723927.50000000 
0.00200    162091552.00000000 101109456.00000000 256037488.00000000 111614.18750000 8506813.00000000 6718701.00000000 
0.00300    161907024.00000000 100994744.00000000 255746960.00000000 111453.33593750 8495691.00000000 6709974.50000000 
0.00400    161646912.00000000 100834736.00000000 255338448.00000000 111228.37500000 8480191.00000000 6697790.50000000 
0.00500    161311936.00000000 100628664.00000000 254813856.00000000 110939.10937500 8460370.00000000 6682140.50000000 
0.00600    160904576.00000000 100378024.00000000 254175184.00000000 110587.33593750 8436135.00000000 6663105.50000000 
0.00700    160426016.00000000 100082144.00000000 253422016.00000000 110172.45312500 8407613.00000000 6640678.00000000 
0.00800    159874288.00000000 99742496.00000000 252557728.00000000 109696.50781250 8374868.00000000 6614913.50000000 
0.00900    159252240.00000000 99359048.00000000 251582544.00000000 109159.97656250 8337855.00000000 6585807.00000000 
0.01000    158560096.00000000 98933048.00000000 250494544.00000000 108563.14843750 8296736.50000000 6553479.50000000 
0.01100    157800768.00000000 98463832.00000000 249300304.00000000 107907.14843750 8251506.00000000 6517953.00000000 
0.01200    156974160.00000000 97953592.00000000 247999856.00000000 107193.71875000 8202341.50000000 6479262.00000000 
0.01300    156079872.00000000 97401712.00000000 246594832.00000000 106424.53906250 8149253.00000000 6437488.50000000 
0.01400    155119168.00000000 96809136.00000000 245087104.00000000 105600.05468750 8092316.50000000 6392705.00000000 
0.01500    154096032.00000000 96178160.00000000 243480288.00000000 104721.49218750 8031643.00000000 6344995.00000000 
0.01600    153010272.00000000 95508352.00000000 241775248.00000000 103791.59375000 7967318.50000000 6294408.50000000 
0.01700    151865424.00000000 94801176.00000000 239975248.00000000 102811.57812500 7899487.00000000 6241028.50000000 
0.01800    150661328.00000000 94057952.00000000 238082192.00000000 101782.20312500 7828239.50000000 6184976.50000000 
0.01900    149399136.00000000 93279368.00000000 236100128.00000000 100706.67968750 7753644.00000000 6126343.00000000 
0.02000    148083568.00000000 92467144.00000000 234032048.00000000 99585.92968750  7675901.50000000 6065148.50000000 
0.02100    146714304.00000000 91620808.00000000 231880128.00000000 98422.17187500  7595069.50000000 6001560.50000000 
0.02200    145293216.00000000 90743616.00000000 229646368.00000000 97217.23437500  7511318.00000000 5935681.00000000 
0.02300    143822896.00000000 89836888.00000000 227336720.00000000 95973.32031250  7424769.50000000 5867600.50000000 
0.02400    142305584.00000000 88899704.00000000 224953344.00000000 94692.23437500  7335534.00000000 5797363.50000000 
0.02500    140744416.00000000 87935688.00000000 222497536.00000000 93377.02343750  7243783.50000000 5725195.50000000 
0.02600    139140112.00000000 86943816.00000000 219975520.00000000 92029.00781250  7149676.50000000 5651106.50000000 
0.02700    137495072.00000000 85927848.00000000 217389744.00000000 90650.20312500  7053254.00000000 5575243.50000000 
0.02800    135813056.00000000 84888520.00000000 214744656.00000000 89243.36718750  6954787.50000000 5497742.50000000 
0.02900    134094488.00000000 83826784.00000000 212043248.00000000 87810.79687500  6854313.00000000 5418684.00000000 
0.03000    132342032.00000000 82744144.00000000 209288912.00000000 86354.61718750  6752074.00000000 5338218.00000000 
0.03100    130559904.00000000 81641832.00000000 206485040.00000000 84877.09375000  6648188.00000000 5256427.00000000 
0.03200    128748016.00000000 80522528.00000000 203636368.00000000 83380.22656250  6542760.00000000 5173486.50000000 
0.03300    126910256.00000000 79386320.00000000 200747824.00000000 81866.98437500  6435997.50000000 5089425.00000000 
0.03400    125049352.00000000 78235136.00000000 197820032.00000000 80338.81250000  6328020.00000000 5004407.00000000 
0.03500    123166240.00000000 77070864.00000000 194857936.00000000 78798.52343750  6219043.50000000 4918605.50000000 
0.03600    121264584.00000000 75894256.00000000 191866928.00000000 77247.85156250  6109098.50000000 4832040.00000000 
0.03700    119346440.00000000 74708032.00000000 188848576.00000000 75689.55468750  5998426.50000000 4744872.50000000 
0.03800    117414056.00000000 73511936.00000000 185808048.00000000 74126.10937500  5887134.50000000 4657230.00000000 
0.03900    115470088.00000000 72308872.00000000 182750352.00000000 72559.12500000  5775376.50000000 4569203.00000000 
0.04000    113516520.00000000 71099560.00000000 179675744.00000000 70990.25781250  5663301.00000000 4480934.00000000 
0.04100    111555920.00000000 69886544.00000000 176591456.00000000 69422.97656250  5551076.00000000 4392527.00000000 
0.04200    109590624.00000000 68669592.00000000 173497840.00000000 67858.23437500  5438803.50000000 4304073.50000000 
0.04300    107622432.00000000 67450736.00000000 170400656.00000000 66298.29687500  5326615.50000000 4215701.00000000 
0.04400    105654264.00000000 66231228.00000000 167302208.00000000 64745.10937500  5214670.50000000 4127466.75000000 
0.04500    103687928.00000000 65012824.00000000 164206016.00000000 63200.44921875  5103046.50000000 4039528.25000000 
0.04600    101725568.00000000 63796880.00000000 161116096.00000000 61666.43750000  4991978.50000000 3951972.00000000 
0.04700    99769328.00000000 62584248.00000000 158036304.00000000 60144.63281250  4881486.50000000 3864893.75000000 
0.04800    97821424.00000000 61376572.00000000 154969072.00000000 58636.43359375  4771721.50000000 3778366.50000000 
0.04900    95884136.00000000 60174808.00000000 151914896.00000000 57144.32812500  4662812.50000000 3692502.00000000 
0.05000    93957880.00000000 58980096.00000000 148882400.00000000 55668.89062500  4554856.00000000 3607365.00000000 
0.05100    92045928.00000000 57793956.00000000 145870704.00000000 54212.12109375  4447963.50000000 3523103.25000000 
0.05200    90148984.00000000 56617164.00000000 142883328.00000000 52775.03906250  4342231.00000000 3439696.25000000 
0.05300    88270352.00000000 55450960.00000000 139921776.00000000 51359.34375000  4237738.50000000 3357285.25000000 
0.05400    86410056.00000000 54296032.00000000 136989616.00000000 49965.81640625  4134633.25000000 3275942.00000000 
0.05500    84570456.00000000 53153600.00000000 134091648.00000000 48596.41796875  4032920.75000000 3195709.00000000 
0.05600    82753648.00000000 52024844.00000000 131226312.00000000 47251.16796875  3932741.25000000 3116676.50000000 
0.05700    80959672.00000000 50909988.00000000 128397864.00000000 45931.60156250  3834160.75000000 3038882.50000000 
0.05800    79190520.00000000 49810460.00000000 125608528.00000000 44638.83203125  3737248.75000000 2962395.75000000 
0.05900    77446944.00000000 48726784.00000000 122859656.00000000 43372.93359375  3642063.75000000 2887243.00000000 
0.06000    75730944.00000000 47659708.00000000 120153368.00000000 42135.57031250  3548653.75000000 2813472.25000000 
0.06100    74043424.00000000 46610244.00000000 117491208.00000000 40926.53906250  3457087.75000000 2741202.50000000 
0.06200    72385360.00000000 45578464.00000000 114874864.00000000 39746.73437500  3367405.25000000 2670392.75000000 
0.06300    70757704.00000000 44565180.00000000 112305864.00000000 38596.89062500  3279685.00000000 2601112.75000000 
0.06400    69159504.00000000 43571032.00000000 109786168.00000000 37476.86328125  3193915.75000000 2533342.00000000 
0.06500    67595216.00000000 42596560.00000000 107315848.00000000 36387.10156250  3110179.75000000 2467180.25000000 
0.06600    66063096.00000000 41641872.00000000 104897272.00000000 35328.35546875  3028436.25000000 2402607.75000000 
0.06700    64563492.00000000 40707844.00000000 102530784.00000000 34299.69921875  2948773.00000000 2339635.75000000 
0.06800    63098036.00000000 39794472.00000000 100216064.00000000 33302.19140625  2871177.00000000 2278323.50000000 
0.06900    61666472.00000000 38901968.00000000 97955408.00000000 32335.36523438  2795708.75000000 2218621.75000000 
0.07000    60269572.00000000 38030792.00000000 95749304.00000000 31399.41210938  2722275.75000000 2160597.00000000 
0.07100    58907756.00000000 37181056.00000000 93597256.00000000 30494.10742188  2650979.75000000 2104208.75000000 
0.07200    57580256.00000000 36352764.00000000 91500256.00000000 29618.80664062  2581745.75000000 2049458.12500000 
0.07300    56288264.00000000 35546372.00000000 89458840.00000000 28774.09960938  2514637.50000000 1996361.87500000 
0.07400    55031364.00000000 34761740.00000000 87472544.00000000 27959.12500000  2449590.75000000 1944886.62500000 
0.07500    53809584.00000000 33998400.00000000 85541120.00000000 27173.10742188  2386626.00000000 1895064.37500000 
0.07600    52623148.00000000 33257094.00000000 83665320.00000000 26416.29296875  2325687.25000000 1846819.12500000 
0.07700    51471508.00000000 32537618.00000000 81844144.00000000 25687.88476562  2266793.00000000 1800200.87500000 
0.07800    50354440.00000000 31839130.00000000 80078336.00000000 24987.25585938  2209884.00000000 1755147.00000000 
0.07900    49271872.00000000 31162352.00000000 78366152.00000000 24314.01367188  2154958.25000000 1711641.12500000 
0.08000    48223624.00000000 30506698.00000000 76707800.00000000 23667.30664062  2101956.50000000 1669661.12500000 
0.08100    47209168.00000000 29871838.00000000 75102928.00000000 23046.62500000  2050852.75000000 1629178.87500000 
0.08200    46227760.00000000 29257656.00000000 73549960.00000000 22451.24804688  2001619.87500000 1590164.00000000 
0.08300    45279232.00000000 28664042.00000000 72049576.00000000 21880.37304688  1954194.12500000 1552584.37500000 
0.08400    44363296.00000000 28090542.00000000 70598896.00000000 21333.37695312  1908557.75000000 1516412.12500000 
0.08500    43478868.00000000 27536652.00000000 69199368.00000000 20809.20898438  1864641.75000000 1481604.25000000 
0.08600    42625396.00000000 27002050.00000000 67848096.00000000 20307.35546875  1822428.75000000 1448121.12500000 
0.08700    41802464.00000000 26486386.00000000 66545464.00000000 19826.76562500  1781844.87500000 1415928.50000000 
0.08800    41008956.00000000 25989270.00000000 65289004.00000000 19366.59960938  1742817.75000000 1384989.50000000 
0.08900    40244780.00000000 25510198.00000000 64078688.00000000 18926.05273438  1705337.87500000 1355265.25000000 
0.09000    39508828.00000000 25048726.00000000 62913076.00000000 18504.54687500  1669333.37500000 1326695.12500000 
0.09100    38799940.00000000 24604316.00000000 61791000.00000000 18100.80664062  1634756.50000000 1299252.00000000 
0.09200    38117796.00000000 24176706.00000000 60710172.00000000 17714.21289062  1601542.87500000 1272885.00000000 
0.09300    37461116.00000000 23765070.00000000 59670424.00000000 17343.86132812  1569625.50000000 1247563.87500000 
0.09400    36829384.00000000 23368830.00000000 58670176.00000000 16988.63867188  1538975.00000000 1223227.00000000 
0.09500    36221996.00000000 22987864.00000000 57707348.00000000 16647.98632812  1509506.25000000 1199837.62500000 
0.09600    35637340.00000000 22621384.00000000 56781232.00000000 16321.17675781  1481182.37500000 1177346.62500000 
0.09700    35075192.00000000 22268744.00000000 55891244.00000000 16006.96093750  1453954.75000000 1155719.12500000 
0.09800    34534236.00000000 21929706.00000000 55033664.00000000 15704.92285156  1427737.00000000 1134907.25000000 
0.09900    34013772.00000000 21603240.00000000 54209672.00000000 15414.07519531  1402502.00000000 1114860.12500000 
0.10000    33512274.00000000 21289306.00000000 53416156.00000000 15133.63964844  1378176.75000000 1095540.25000000 
0.10100    33029692.00000000 20987006.00000000 52652192.00000000 14862.97070312  1354717.87500000 1076906.75000000 
0.10200    32564844.00000000 20695736.00000000 51915848.00000000 14601.20703125  1332060.25000000 1058914.37500000 
0.10300    32116770.00000000 20415140.00000000 51206572.00000000 14347.60644531  1310163.37500000 1041530.06250000 
0.10400    31684538.00000000 20144550.00000000 50522204.00000000 14101.80957031  1288979.12500000 1024692.43750000 
0.10500    31267442.00000000 19883506.00000000 49862264.00000000 13862.75781250  1268440.00000000 1008385.50000000 
0.10600    30864342.00000000 19631328.00000000 49224588.00000000 13630.09375000  1248508.62500000 992554.00000000 
0.10700    30474518.00000000 19387764.00000000 48607684.00000000 13403.21093750  1229143.37500000 977173.12500000 
0.10800    30097318.00000000 19152022.00000000 48011140.00000000 13181.24414062  1210289.50000000 962205.06250000 
0.10900    29731526.00000000 18923586.00000000 47433100.00000000 12964.00097656  1191904.25000000 947606.00000000 
0.11000    29376610.00000000 18702240.00000000 46872472.00000000 12750.87792969  1173962.37500000 933350.00000000 
0.11100    29031826.00000000 18487188.00000000 46327488.00000000 12541.49414062  1156405.87500000 919416.06250000 
0.11200    28696270.00000000 18278140.00000000 45797740.00000000 12335.13769531  1139200.75000000 905756.93750000 
0.11300    28369314.00000000 18074598.00000000 45281544.00000000 12131.68652344  1122321.00000000 892354.93750000 
0.11400    28050454.00000000 17875894.00000000 44778052.00000000 11930.74316406  1105719.00000000 879175.93750000 
0.11500    27738462.00000000 17682002.00000000 44285948.00000000 11731.76757812  1089370.00000000 866201.06250000 
0.11600    27433240.00000000 17492210.00000000 43804372.00000000 11534.60546875  1073240.75000000 853402.87500000 
0.11700    27133774.00000000 17306338.00000000 43332220.00000000 11338.96093750  1057313.87500000 840763.62500000 
0.11800    26839580.00000000 17123762.00000000 42868564.00000000 11144.58105469  1041550.87500000 828256.06250000 
0.11900    26550360.00000000 16944366.00000000 42412680.00000000 10951.25097656  1025932.68750000 815858.87500000 
0.12000    26265190.00000000 16767618.00000000 41963488.00000000 10758.81445312  1010442.62500000 803561.87500000 
0.12100    25983862.00000000 16593239.00000000 41520472.00000000 10567.09863281  995051.37500000 791355.87500000 
0.12200    25705724.00000000 16421179.00000000 41082848.00000000 10375.96484375  979739.68750000 779212.06250000 
0.12300    25430320.00000000 16250786.00000000 40649016.00000000 10185.27832031  964509.37500000 767127.56250000 
0.12400    25157334.00000000 16081849.00000000 40219384.00000000 9995.05761719   949332.00000000 755084.93750000 
0.12500    24886304.00000000 15914335.00000000 39793032.00000000 9805.12988281   934197.62500000 743076.31250000 
0.12600    24616920.00000000 15747767.00000000 39369192.00000000 9615.60156250   919097.62500000 731098.06250000 
0.12700    24348838.00000000 15582172.00000000 38947432.00000000 9426.39941406   904025.18750000 719137.37500000 
0.12800    24081808.00000000 15417175.00000000 38527396.00000000 9237.51562500   888967.43750000 707189.87500000 
0.12900    23815446.00000000 15252655.00000000 38108728.00000000 9049.00878906   873930.75000000 695252.37500000 
0.13000    23549570.00000000 15088477.00000000 37690384.00000000 8860.91113281   858902.62500000 683320.31250000 
0.13100    23284018.00000000 14924416.00000000 37272956.00000000 8673.40136719   843877.50000000 671395.50000000 
0.13200    23018674.00000000 14760362.00000000 36855496.00000000 8486.34765625   828857.56250000 659476.06250000 
0.13300    22753080.00000000 14596326.00000000 36437908.00000000 8300.06835938   813844.43750000 647554.68750000 
0.13400    22487344.00000000 14432090.00000000 36020088.00000000 8114.52343750   798846.75000000 635643.25000000 
0.13500    22221578.00000000 14267578.00000000 35601328.00000000 7929.90771484   783859.56250000 623736.00000000 
0.13600    21955100.00000000 14102872.00000000 35182300.00000000 7746.28369141   768888.75000000 611842.56250000 
0.13700    21688354.00000000 13937782.00000000 34762172.00000000 7563.83105469   753940.25000000 599963.68750000 
0.13800    21420892.00000000 13772263.00000000 34341232.00000000 7382.70361328   739016.00000000 588099.37500000 
0.13900    21153066.00000000 13606327.00000000 33919460.00000000 7203.01513672   724125.06250000 576262.31250000 
0.14000    20884576.00000000 13439960.00000000 33496624.00000000 7024.94287109   709279.18750000 564455.31250000 
0.14100    20615726.00000000 13273299.00000000 33072818.00000000 6848.58154297   694480.75000000 552686.62500000 
0.14200    20346476.00000000 13106121.00000000 32648028.00000000 6674.22412109   679743.81250000 540955.00000000 
0.14300    20076560.00000000 12938572.00000000 32222698.00000000 6501.80517578   665070.75000000 529278.68750000 
0.14400    19806114.00000000 12770597.00000000 31796482.00000000 6331.66162109   650469.43750000 517656.21875000 
0.14500    19535812.00000000 12602396.00000000 31369788.00000000 6163.84082031   635961.06250000 506098.53125000 
0.14600    19265134.00000000 12433967.00000000 30942474.00000000 5998.53564453   621546.43750000 494618.37500000 
0.14700    18994312.00000000 12265192.00000000 30514690.00000000 5835.94482422   607241.75000000 483217.40625000 
0.14800    18723424.00000000 12096402.00000000 30086988.00000000 5676.01562500   593048.31250000 471908.78125000 
0.14900    18452874.00000000 11927419.00000000 29658958.00000000 5519.06298828   578986.43750000 460692.81250000 
0.15000    18182312.00000000 11758477.00000000 29231326.00000000 5365.09814453   565053.81250000 449583.43750000 
0.15100    17912254.00000000 11589622.00000000 28804002.00000000 5214.25537109   551276.56250000 438590.56250000 
0.15200    17642876.00000000 11420958.00000000 28377382.00000000 5066.70019531   537658.62500000 427718.09375000 
0.15300    17373848.00000000 11252447.00000000 27951680.00000000 4922.48486328   524205.90625000 416976.06250000 
0.15400    17105628.00000000 11084370.00000000 27526812.00000000 4781.62060547   510923.18750000 406372.43750000 
0.15500    16838490.00000000 10916644.00000000 27103484.00000000 4644.33398438   497828.37500000 395910.81250000 
0.15600    16572528.00000000 10749457.00000000 26681438.00000000 4510.58740234   484931.31250000 385602.93750000 
0.15700    16307725.00000000 10582919.00000000 26261426.00000000 4380.51416016   472234.62500000 375451.78125000 
0.15800    16044350.00000000 10417015.00000000 25843190.00000000 4254.00390625   459745.87500000 365463.87500000 
0.15900    15782490.00000000 10251940.00000000 25427360.00000000 4131.27343750   447477.43750000 355650.25000000 
0.16000    15522271.00000000 10087716.00000000 25013876.00000000 4012.26000977   435432.06250000 346009.21875000 
0.16100    15264204.00000000 9924624.00000000 24603390.00000000 3897.00537109   423620.03125000 336550.50000000 
0.16200    15007883.00000000 9762484.00000000 24195658.00000000 3785.50878906   412041.03125000 327276.25000000 
0.16300    14753752.00000000 9601488.00000000 23791070.00000000 3677.74560547   400700.65625000 318196.15625000 
0.16400    14501990.00000000 9441848.00000000 23389916.00000000 3573.75439453   389609.68750000 309305.34375000 
0.16500    14252549.00000000 9283491.00000000 22992226.00000000 3473.41625977   378767.62500000 300613.15625000 
0.16600    14005607.00000000 9126606.00000000 22598720.00000000 3376.79345703   368175.84375000 292119.34375000 
0.16700    13761406.00000000 8971210.00000000 22208960.00000000 3283.75390625   357837.59375000 283828.28125000 
0.16800    13519852.00000000 8817341.00000000 21823316.00000000 3194.31567383   347757.59375000 275740.34375000 
0.16900    13281254.00000000 8665188.00000000 21442216.00000000 3108.39233398   337938.71875000 267858.31250000 
0.17000    13045632.00000000 8514670.00000000 21065628.00000000 3025.91503906   328378.56250000 260181.03125000 
