# SAXS profile: number of points = 501, q_min = 0, q_max = 0.5, delta_q = 0.001
#    q    intensity 
0.00000    162236208.00000000 101202168.00000000 256270384.00000000 92761.84375000  7758762.00000000 6127857.00000000 
0.00100    162211376.00000000 101185840.00000000 256230432.00000000 92742.00000000  7757309.00000000 6126703.50000000 
0.00200    162135792.00000000 101137944.00000000 256108736.00000000 92681.78906250  7752898.50000000 6123260.00000000 
0.00300    162007920.00000000 101058032.00000000 255906224.00000000 92581.78125000  7745589.00000000 6117482.50000000 
0.00400    161829120.00000000 100946440.00000000 255621536.00000000 92442.14062500  7735394.50000000 6109471.50000000 
0.00500    161596928.00000000 100803232.00000000 255257024.00000000 92263.18750000  7722274.50000000 6099144.50000000 
0.00600    161312560.00000000 100628456.00000000 254813984.00000000 92043.92968750  7706277.50000000 6086525.00000000 
0.00700    160979360.00000000 100421216.00000000 254287472.00000000 91786.32812500  7687411.50000000 6071673.00000000 
0.00800    160594752.00000000 100183520.00000000 253683440.00000000 91489.97656250  7665698.50000000 6054574.50000000 
0.00900    160158560.00000000 99915128.00000000 253001088.00000000 91154.94531250  7641188.00000000 6035292.00000000 
0.01000    159672128.00000000 99616528.00000000 252240384.00000000 90782.24218750  7613867.00000000 6013806.50000000 
0.01100    159139712.00000000 99287312.00000000 251400720.00000000 90371.97656250  7583784.00000000 5990120.50000000 
0.01200    158558480.00000000 98928384.00000000 250487680.00000000 89924.91406250  7551020.00000000 5964317.50000000 
0.01300    157929168.00000000 98539520.00000000 249497984.00000000 89441.56250000  7515528.00000000 5936394.50000000 
0.01400    157253472.00000000 98120584.00000000 248433312.00000000 88922.95312500  7477392.00000000 5906401.00000000 
0.01500    156530816.00000000 97673480.00000000 247295200.00000000 88368.85937500  7436713.00000000 5874341.50000000 
0.01600    155760160.00000000 97197552.00000000 246084704.00000000 87780.32812500  7393438.50000000 5840301.50000000 
0.01700    154944640.00000000 96693640.00000000 244803888.00000000 87159.03125000  7347697.50000000 5804284.50000000 
0.01800    154085104.00000000 96162336.00000000 243453008.00000000 86505.16406250  7299477.00000000 5766329.50000000 
0.01900    153183856.00000000 95604704.00000000 242032720.00000000 85818.92187500  7248891.00000000 5726492.00000000 
0.02000    152239264.00000000 95020152.00000000 240546640.00000000 85102.35937500  7195955.00000000 5684847.00000000 
0.02100    151251424.00000000 94410344.00000000 238994624.00000000 84355.18750000  7140765.00000000 5641387.50000000 
0.02200    150224112.00000000 93774688.00000000 237378768.00000000 83578.73437500  7083356.00000000 5596158.00000000 
0.02300    149155728.00000000 93114648.00000000 235698848.00000000 82774.61718750  7023765.00000000 5549274.00000000 
0.02400    148050704.00000000 92430576.00000000 233960336.00000000 81943.57031250  6962132.00000000 5500737.00000000 
0.02500    146906768.00000000 91723528.00000000 232161984.00000000 81085.92187500  6898460.50000000 5450618.00000000 
0.02600    145727344.00000000 90993904.00000000 230305040.00000000 80203.21875000  6832899.50000000 5398956.50000000 
0.02700    144511232.00000000 90241744.00000000 228393552.00000000 79297.18750000  6765400.00000000 5345826.00000000 
0.02800    143262096.00000000 89468856.00000000 226426992.00000000 78367.85156250  6696147.00000000 5291304.00000000 
0.02900    141979184.00000000 88675224.00000000 224408576.00000000 77417.21875000  6625159.50000000 5235400.50000000 
0.03000    140664688.00000000 87861832.00000000 222341616.00000000 76445.84375000  6552505.00000000 5178211.00000000 
0.03100    139319408.00000000 87029144.00000000 220225584.00000000 75454.42187500  6478315.50000000 5119746.50000000 
0.03200    137944800.00000000 86178376.00000000 218062656.00000000 74445.31250000  6402619.50000000 5060122.50000000 
0.03300    136542960.00000000 85310296.00000000 215855200.00000000 73419.61718750  6325516.00000000 4999437.00000000 
0.03400    135113200.00000000 84425696.00000000 213606048.00000000 72377.32031250  6247083.00000000 4937661.50000000 
0.03500    133657944.00000000 83524440.00000000 211316480.00000000 71320.21875000  6167399.00000000 4874879.50000000 
0.03600    132179176.00000000 82608744.00000000 208989360.00000000 70250.61718750  6086551.50000000 4811196.00000000 
0.03700    130676896.00000000 81679336.00000000 206624240.00000000 69167.92968750  6004594.50000000 4746633.50000000 
0.03800    129153024.00000000 80735440.00000000 204226528.00000000 68074.17187500  5921661.50000000 4681310.00000000 
0.03900    127609248.00000000 79779232.00000000 201797184.00000000 66970.44531250  5837741.50000000 4615229.50000000 
0.04000    126046824.00000000 78811440.00000000 199336800.00000000 65857.88281250  5753047.00000000 4548457.50000000 
0.04100    124466248.00000000 77832144.00000000 196849232.00000000 64737.95703125  5667563.50000000 4481128.50000000 
0.04200    122869528.00000000 76842992.00000000 194335696.00000000 63611.70703125  5581400.00000000 4413224.50000000 
0.04300    121258408.00000000 75844584.00000000 191798112.00000000 62480.07031250  5494667.50000000 4344872.50000000 
0.04400    119633752.00000000 74837696.00000000 189240576.00000000 61344.24218750  5407365.50000000 4276105.00000000 
0.04500    117996584.00000000 73823056.00000000 186662544.00000000 60205.33203125  5319642.50000000 4207008.00000000 
0.04600    116348376.00000000 72801840.00000000 184068464.00000000 59064.82421875  5231577.50000000 4137581.75000000 
0.04700    114690824.00000000 71774336.00000000 181456096.00000000 57923.27734375  5143211.50000000 4067944.00000000 
0.04800    113025488.00000000 70741264.00000000 178832640.00000000 56782.03515625  5054645.50000000 3998124.25000000 
0.04900    111352376.00000000 69703568.00000000 176199376.00000000 55642.48437500  4965953.50000000 3928220.25000000 
0.05000    109674064.00000000 68662208.00000000 173555232.00000000 54504.95703125  4877201.00000000 3858253.50000000 
0.05100    107991360.00000000 67618440.00000000 170903328.00000000 53371.04296875  4788438.00000000 3788303.00000000 
0.05200    106305104.00000000 66572200.00000000 168247536.00000000 52240.90625000  4699848.00000000 3718416.25000000 
0.05300    104617560.00000000 65524756.00000000 165588592.00000000 51116.60156250  4611326.00000000 3648645.25000000 
0.05400    102929032.00000000 64476724.00000000 162926752.00000000 49998.48437500  4523088.50000000 3579073.75000000 
0.05500    101241160.00000000 63428764.00000000 160267328.00000000 48887.22656250  4435120.00000000 3509726.50000000 
0.05600    99554424.00000000 62381544.00000000 157609696.00000000 47784.20703125  4347524.50000000 3440624.00000000 
0.05700    97871168.00000000 61336544.00000000 154957648.00000000 46689.98437500  4260341.00000000 3371890.75000000 
0.05800    96191976.00000000 60293076.00000000 152309184.00000000 45605.39843750  4173663.50000000 3303523.50000000 
0.05900    94518000.00000000 59253052.00000000 149670672.00000000 44530.54687500  4087518.75000000 3235555.25000000 
0.06000    92849040.00000000 58216332.00000000 147039536.00000000 43467.37890625  4001991.00000000 3168101.50000000 
0.06100    91188264.00000000 57184192.00000000 144420592.00000000 42415.97265625  3917114.25000000 3101146.25000000 
0.06200    89535424.00000000 56156820.00000000 141814400.00000000 41376.64843750  3832962.50000000 3034747.00000000 
0.06300    87891608.00000000 55135276.00000000 139222592.00000000 40350.85546875  3749554.25000000 2968930.25000000 
0.06400    86258136.00000000 54119692.00000000 136645696.00000000 39338.41406250  3666957.75000000 2903770.75000000 
0.06500    84635632.00000000 53110556.00000000 134086976.00000000 38340.26953125  3585244.50000000 2839267.75000000 
0.06600    83025120.00000000 52109104.00000000 131547936.00000000 37356.93750000  3504416.25000000 2775491.25000000 
0.06700    81428216.00000000 51115180.00000000 129028192.00000000 36388.66406250  3424535.25000000 2712440.75000000 
0.06800    79844112.00000000 50129516.00000000 126528632.00000000 35435.84375000  3345668.50000000 2650182.75000000 
0.06900    78275072.00000000 49152856.00000000 124052488.00000000 34499.29296875  3267788.50000000 2588713.25000000 
0.07000    76720600.00000000 48185468.00000000 121600592.00000000 33579.26171875  3191006.25000000 2528071.00000000 
0.07100    75182432.00000000 47227968.00000000 119173136.00000000 32675.66015625  3115280.75000000 2468293.25000000 
0.07200    73660872.00000000 46280384.00000000 116771888.00000000 31789.47656250  3040689.75000000 2409393.75000000 
0.07300    72156992.00000000 45343800.00000000 114397872.00000000 30920.14257812  2967263.75000000 2351379.50000000 
0.07400    70671144.00000000 44417948.00000000 112052400.00000000 30068.63867188  2895012.25000000 2294336.25000000 
0.07500    69204056.00000000 43503980.00000000 109735312.00000000 29234.73242188  2823921.50000000 2238203.00000000 
0.07600    67754944.00000000 42601124.00000000 107448664.00000000 28418.74414062  2754100.00000000 2183022.75000000 
0.07700    66326532.00000000 41710468.00000000 105192704.00000000 27620.84179688  2685511.00000000 2128844.00000000 
0.07800    64918212.00000000 40832528.00000000 102967992.00000000 26841.04882812  2618171.25000000 2075632.75000000 
0.07900    63529748.00000000 39967228.00000000 100775600.00000000 26079.32421875  2552116.00000000 2023428.62500000 
0.08000    62163116.00000000 39114364.00000000 98617112.00000000 25335.95507812  2487326.00000000 1972227.00000000 
0.08100    60817516.00000000 38274928.00000000 96491936.00000000 24610.70898438  2423844.00000000 1922063.00000000 
0.08200    59493720.00000000 37449180.00000000 94399976.00000000 23903.59570312  2361666.00000000 1872912.50000000 
0.08300    58191788.00000000 36636924.00000000 92343304.00000000 23214.56445312  2300800.50000000 1824790.87500000 
0.08400    56912192.00000000 35838096.00000000 90321192.00000000 22543.68359375  2241235.25000000 1777700.75000000 
0.08500    55655404.00000000 35053248.00000000 88335072.00000000 21890.70507812  2183007.00000000 1731654.87500000 
0.08600    54421368.00000000 34282644.00000000 86384664.00000000 21255.53125000  2126099.75000000 1686646.00000000 
0.08700    53210172.00000000 33526268.00000000 84469984.00000000 20638.12890625  2070483.87500000 1642665.25000000 
0.08800    52022084.00000000 32784188.00000000 82591896.00000000 20037.98242188  2016196.12500000 1599723.87500000 
0.08900    50857416.00000000 32056590.00000000 80750176.00000000 19455.26953125  1963216.00000000 1557803.62500000 
0.09000    49715824.00000000 31343350.00000000 78945616.00000000 18889.54687500  1911521.00000000 1516919.75000000 
0.09100    48597368.00000000 30644472.00000000 77177704.00000000 18340.73828125  1861138.25000000 1477043.75000000 
0.09200    47502796.00000000 29960064.00000000 75446792.00000000 17808.41406250  1812033.00000000 1438180.50000000 
0.09300    46431448.00000000 29290404.00000000 73752864.00000000 17292.45703125  1764202.37500000 1400332.87500000 
0.09400    45383320.00000000 28635046.00000000 72095352.00000000 16792.36523438  1717623.37500000 1363458.75000000 
0.09500    44358496.00000000 27994236.00000000 70474352.00000000 16308.28515625  1672294.25000000 1327567.50000000 
0.09600    43357272.00000000 27367982.00000000 68890272.00000000 15839.33886719  1628203.87500000 1292659.87500000 
0.09700    42379092.00000000 26755972.00000000 67342640.00000000 15385.60351562  1585316.87500000 1258700.50000000 
0.09800    41423720.00000000 26158378.00000000 65831744.00000000 14946.65234375  1543630.37500000 1225684.62500000 
0.09900    40491536.00000000 25574976.00000000 64356436.00000000 14522.12402344  1503139.87500000 1193611.87500000 
0.10000    39581836.00000000 25005732.00000000 62917104.00000000 14111.55468750  1463790.87500000 1162445.75000000 
0.10100    38694324.00000000 24450356.00000000 61512956.00000000 13714.69921875  1425583.75000000 1132170.12500000 
0.10200    37829480.00000000 23909038.00000000 60144256.00000000 13331.24902344  1388499.62500000 1102790.00000000 
0.10300    36986452.00000000 23381430.00000000 58810244.00000000 12960.67285156  1352517.00000000 1074270.00000000 
0.10400    36165616.00000000 22867280.00000000 57510892.00000000 12602.79003906  1317599.87500000 1046600.75000000 
0.10500    35366216.00000000 22366912.00000000 56245472.00000000 12257.18261719  1283740.25000000 1019755.68750000 
0.10600    34587768.00000000 21879422.00000000 55013644.00000000 11923.34082031  1250907.25000000 993728.18750000 
0.10700    33830216.00000000 21405242.00000000 53815120.00000000 11600.95117188  1219077.62500000 968496.93750000 
0.10800    33093336.00000000 20943726.00000000 52648828.00000000 11289.72851562  1188239.25000000 944036.00000000 
0.10900    32376804.00000000 20495094.00000000 51514936.00000000 10989.16210938  1158344.25000000 920332.93750000 
0.11000    31680364.00000000 20059038.00000000 50412464.00000000 10699.01855469  1129386.87500000 897363.43750000 
0.11100    31003534.00000000 19635134.00000000 49340848.00000000 10418.80371094  1101329.75000000 875109.31250000 
0.11200    30345942.00000000 19223310.00000000 48300020.00000000 10148.22363281  1074159.50000000 853546.87500000 
0.11300    29707160.00000000 18823314.00000000 47288876.00000000 9886.85742188   1047836.62500000 832667.12500000 
0.11400    29086910.00000000 18434986.00000000 46306940.00000000 9634.41894531   1022358.25000000 812443.31250000 
0.11500    28484886.00000000 18057856.00000000 45354020.00000000 9390.63183594   997676.25000000 792858.87500000 
0.11600    27900504.00000000 17692112.00000000 44428928.00000000 9154.90722656   973767.00000000 773884.43750000 
0.11700    27333484.00000000 17337012.00000000 43531432.00000000 8927.13867188   950621.43750000 755512.62500000 
0.11800    26783188.00000000 16992498.00000000 42660408.00000000 8706.88769531   928202.18750000 737711.12500000 
0.11900    26249526.00000000 16658372.00000000 41816064.00000000 8493.78515625   906482.56250000 720462.56250000 
0.12000    25731754.00000000 16334415.00000000 40996276.00000000 8287.61328125   885451.43750000 703759.18750000 
0.12100    25229674.00000000 16020282.00000000 40202432.00000000 8088.07958984   865069.18750000 687576.12500000 
0.12200    24743080.00000000 15715766.00000000 39432076.00000000 7894.84228516   845322.62500000 671894.31250000 
0.12300    24271202.00000000 15420594.00000000 38685500.00000000 7707.64892578   826187.68750000 656688.37500000 
0.12400    23813736.00000000 15134422.00000000 37961592.00000000 7526.13281250   807629.87500000 641951.31250000 
0.12500    23370042.00000000 14857029.00000000 37259896.00000000 7350.09228516   789640.87500000 627652.93750000 
0.12600    22940184.00000000 14588328.00000000 36579936.00000000 7179.39013672   772191.50000000 613788.81250000 
0.12700    22523360.00000000 14327753.00000000 35920932.00000000 7013.48632812   755261.93750000 600336.06250000 
0.12800    22119394.00000000 14075391.00000000 35281952.00000000 6852.39160156   738827.18750000 587277.25000000 
0.12900    21727648.00000000 13830696.00000000 34662664.00000000 6695.79443359   722869.00000000 574595.31250000 
0.13000    21347874.00000000 13593493.00000000 34061996.00000000 6543.50292969   707370.75000000 562276.75000000 
0.13100    20979466.00000000 13363583.00000000 33479824.00000000 6395.26562500   692310.00000000 550300.18750000 
0.13200    20622252.00000000 13140673.00000000 32915264.00000000 6250.90039062   677667.62500000 538657.06250000 
0.13300    20275798.00000000 12924455.00000000 32367908.00000000 6110.31250000   663422.87500000 527334.43750000 
0.13400    19939600.00000000 12714872.00000000 31836746.00000000 5973.19140625   649565.06250000 516313.53125000 
0.13500    19613440.00000000 12511590.00000000 31321576.00000000 5839.42578125   636066.50000000 505584.15625000 
0.13600    19296898.00000000 12314252.00000000 30821462.00000000 5708.88916016   622919.68750000 495126.43750000 
0.13700    18989318.00000000 12122751.00000000 30336038.00000000 5581.36328125   610106.81250000 484934.00000000 
0.13800    18690828.00000000 11936746.00000000 29864414.00000000 5456.80419922   597614.37500000 474992.84375000 
0.13900    18400754.00000000 11756199.00000000 29406428.00000000 5335.06445312   585419.18750000 465294.03125000 
0.14000    18118720.00000000 11580740.00000000 28961480.00000000 5215.97363281   573516.37500000 455828.09375000 
0.14100    17844518.00000000 11410266.00000000 28528796.00000000 5099.37158203   561892.12500000 446571.50000000 
0.14200    17577848.00000000 11244372.00000000 28107900.00000000 4985.29443359   550524.06250000 437531.50000000 
0.14300    17318274.00000000 11083100.00000000 27698430.00000000 4873.62158203   539414.68750000 428687.06250000 
0.14400    17065424.00000000 10926015.00000000 27299728.00000000 4764.13574219   528539.18750000 420031.12500000 
0.14500    16819166.00000000 10773062.00000000 26911326.00000000 4656.89062500   517893.75000000 411558.96875000 
0.14600    16579111.00000000 10624031.00000000 26532914.00000000 4551.77246094   507465.25000000 403260.43750000 
0.14700    16345030.00000000 10478724.00000000 26163922.00000000 4448.70751953   497249.40625000 395124.28125000 
0.14800    16116490.00000000 10336956.00000000 25803708.00000000 4347.62255859   487231.18750000 387146.75000000 
0.14900    15893398.00000000 10198492.00000000 25452034.00000000 4248.46972656   477402.00000000 379320.46875000 
0.15000    15675304.00000000 10063314.00000000 25108370.00000000 4151.20703125   467750.31250000 371639.37500000 
0.15100    15462105.00000000 9931155.00000000 24772610.00000000 4055.79052734   458277.40625000 364092.25000000 
0.15200    15253704.00000000 9801900.00000000 24444152.00000000 3962.23388672   448978.75000000 356681.15625000 
0.15300    15049508.00000000 9675371.00000000 24122504.00000000 3870.41137695   439833.31250000 349398.43750000 
0.15400    14849405.00000000 9551350.00000000 23807402.00000000 3780.33032227   430845.65625000 342234.62500000 
0.15500    14653356.00000000 9429869.00000000 23498384.00000000 3691.96069336   422003.06250000 335192.00000000 
0.15600    14460909.00000000 9310645.00000000 23195332.00000000 3605.26489258   413305.81250000 328258.00000000 
0.15700    14272217.00000000 9193615.00000000 22897982.00000000 3520.27172852   404751.81250000 321438.75000000 
0.15800    14086573.00000000 9078594.00000000 22605506.00000000 3436.90161133   396324.56250000 314722.09375000 
0.15900    13904279.00000000 8965574.00000000 22318314.00000000 3355.19360352   388031.84375000 308107.87500000 
0.16000    13724816.00000000 8854387.00000000 22035532.00000000 3275.08520508   379862.93750000 301592.90625000 
0.16100    13548363.00000000 8744843.00000000 21757468.00000000 3196.63330078   371820.78125000 295177.84375000 
0.16200    13374498.00000000 8636996.00000000 21483396.00000000 3119.74340820   363892.71875000 288855.43750000 
0.16300    13203034.00000000 8530664.00000000 21212972.00000000 3044.46557617   356085.93750000 282623.68750000 
0.16400    13034028.00000000 8425703.00000000 20946630.00000000 2970.76806641   348390.87500000 276483.12500000 
0.16500    12867283.00000000 8322100.00000000 20683542.00000000 2898.65283203   340809.50000000 270432.78125000 
0.16600    12702624.00000000 8219771.50000000 20423880.00000000 2828.13330078   333338.03125000 264464.93750000 
0.16700    12539815.00000000 8118612.50000000 20167154.00000000 2759.12377930   325970.53125000 258582.81250000 
0.16800    12378999.00000000 8018527.50000000 19913162.00000000 2691.71728516   318711.87500000 252784.57812500 
0.16900    12219998.00000000 7919575.00000000 19662282.00000000 2625.87084961   311559.65625000 247071.54687500 
0.17000    12062716.00000000 7821542.00000000 19413660.00000000 2561.55395508   304508.12500000 241437.64062500 
