# SAXS profile: number of points = 501, q_min = 0, q_max = 0.5, delta_q = 0.001
#    q    intensity 
0.00000    162235920.00000000 101201832.00000000 256270416.00000000 98811.14062500  8007745.50000000 6324479.50000000 
0.00100    162207104.00000000 101182816.00000000 256223232.00000000 98787.00781250  8006008.50000000 6323132.50000000 
0.00200    162117808.00000000 101127208.00000000 256081488.00000000 98714.34375000  8000815.00000000 6319063.50000000 
0.00300    161969728.00000000 101033720.00000000 255843456.00000000 98594.74218750  7992151.50000000 6312217.00000000 
0.00400    161758128.00000000 100903080.00000000 255511440.00000000 98426.38281250  7980057.50000000 6302708.50000000 
0.00500    161486416.00000000 100734776.00000000 255084608.00000000 98211.13281250  7964540.50000000 6290502.00000000 
0.00600    161154400.00000000 100530448.00000000 254563824.00000000 97948.99218750  7945574.00000000 6275578.00000000 
0.00700    160763792.00000000 100287856.00000000 253949216.00000000 97639.50781250  7923279.00000000 6257984.50000000 
0.00800    160314384.00000000 100010624.00000000 253242928.00000000 97283.85156250  7897616.50000000 6237775.50000000 
0.00900    159803744.00000000 99697448.00000000 252445584.00000000 96882.39062500  7868617.50000000 6214997.00000000 
0.01000    159238160.00000000 99348456.00000000 251556816.00000000 96436.07031250  7836381.50000000 6189607.50000000 
0.01100    158616480.00000000 98964664.00000000 250579168.00000000 95944.89062500  7800898.00000000 6161650.00000000 
0.01200    157939152.00000000 98545952.00000000 249512896.00000000 95410.78906250  7762191.00000000 6131244.00000000 
0.01300    157208096.00000000 98092184.00000000 248359552.00000000 94833.32812500  7720401.50000000 6098350.50000000 
0.01400    156419168.00000000 97604968.00000000 247121456.00000000 94213.26562500  7675570.50000000 6063008.50000000 
0.01500    155576512.00000000 97084856.00000000 245797776.00000000 93553.12500000  7627700.50000000 6025332.50000000 
0.01600    154682544.00000000 96532184.00000000 244392048.00000000 92852.21093750  7576889.00000000 5985321.00000000 
0.01700    153737360.00000000 95947984.00000000 242906704.00000000 92112.62500000  7523174.50000000 5943084.50000000 
0.01800    152742400.00000000 95332528.00000000 241340016.00000000 91335.27343750  7466722.00000000 5898603.00000000 
0.01900    151697984.00000000 94687560.00000000 239697536.00000000 90520.89062500  7407501.00000000 5851959.00000000 
0.02000    150605264.00000000 94012096.00000000 237978912.00000000 89670.88281250  7345647.50000000 5803268.50000000 
0.02100    149465952.00000000 93307736.00000000 236187808.00000000 88786.62500000  7281214.50000000 5752558.50000000 
0.02200    148283264.00000000 92576008.00000000 234327248.00000000 87869.34375000  7214313.00000000 5699857.00000000 
0.02300    147054448.00000000 91816280.00000000 232396304.00000000 86920.18750000  7145022.00000000 5645305.00000000 
0.02400    145783856.00000000 91031176.00000000 230397984.00000000 85940.91406250  7073412.50000000 5588935.50000000 
0.02500    144472496.00000000 90220336.00000000 228335712.00000000 84932.97656250  6999607.00000000 5530810.50000000 
0.02600    143123072.00000000 89384312.00000000 226210496.00000000 83896.71093750  6923719.00000000 5471043.50000000 
0.02700    141734000.00000000 88525552.00000000 224025952.00000000 82834.86718750  6845792.00000000 5409660.50000000 
0.02800    140309248.00000000 87644768.00000000 221785376.00000000 81748.55468750  6765929.50000000 5346770.50000000 
0.02900    138850064.00000000 86741312.00000000 219490144.00000000 80638.82812500  6684240.50000000 5282448.00000000 
0.03000    137357840.00000000 85817664.00000000 217141728.00000000 79507.57812500  6600844.00000000 5216736.00000000 
0.03100    135833264.00000000 84874544.00000000 214744128.00000000 78356.53906250  6515868.50000000 5149816.00000000 
0.03200    134279792.00000000 83912720.00000000 212298688.00000000 77186.20312500  6429314.50000000 5081662.00000000 
0.03300    132698776.00000000 82933888.00000000 209810816.00000000 75999.55468750  6341420.00000000 5012407.00000000 
0.03400    131090912.00000000 81938440.00000000 207280208.00000000 74797.19531250  6252172.50000000 4942149.50000000 
0.03500    129458184.00000000 80927776.00000000 204710720.00000000 73581.03125000  6161771.50000000 4870903.00000000 
0.03600    127802536.00000000 79902464.00000000 202104800.00000000 72352.10156250  6070275.50000000 4798840.00000000 
0.03700    126126272.00000000 78863944.00000000 199466880.00000000 71113.28125000  5977772.50000000 4725953.50000000 
0.03800    124430056.00000000 77813208.00000000 196796304.00000000 69864.17968750  5884430.00000000 4652356.50000000 
0.03900    122716888.00000000 76752080.00000000 194099056.00000000 68607.85937500  5790288.50000000 4578252.50000000 
0.04000    120986864.00000000 75680312.00000000 191375504.00000000 67345.36718750  5695480.50000000 4503506.50000000 
0.04100    119242920.00000000 74599552.00000000 188630864.00000000 66077.78906250  5600129.00000000 4428352.50000000 
0.04200    117486848.00000000 73511880.00000000 185866144.00000000 64806.61718750  5504306.00000000 4352828.50000000 
0.04300    115719840.00000000 72416864.00000000 183083168.00000000 63533.78906250  5408109.00000000 4277018.50000000 
0.04400    113943592.00000000 71315096.00000000 180285584.00000000 62260.53515625  5311641.00000000 4201003.50000000 
0.04500    112160440.00000000 70209040.00000000 177476144.00000000 60987.92578125  5215000.50000000 4124840.25000000 
0.04600    110371016.00000000 69099064.00000000 174657264.00000000 59717.99218750  5118321.50000000 4048610.25000000 
0.04700    108577528.00000000 67986256.00000000 171832736.00000000 58451.07812500  5021684.50000000 3972410.00000000 
0.04800    106781032.00000000 66872092.00000000 169002928.00000000 57189.05859375  4925097.50000000 3896290.50000000 
0.04900    104984664.00000000 65757296.00000000 166172240.00000000 55933.27734375  4828771.00000000 3820355.25000000 
0.05000    103188416.00000000 64642456.00000000 163342128.00000000 54684.38671875  4732731.00000000 3744624.75000000 
0.05100    101394560.00000000 63528860.00000000 160516416.00000000 53444.46093750  4637092.00000000 3669216.25000000 
0.05200    99604048.00000000 62416972.00000000 157693408.00000000 52213.71484375  4541920.50000000 3594161.50000000 
0.05300    97818384.00000000 61308812.00000000 154880064.00000000 50993.72265625  4447277.00000000 3519537.00000000 
0.05400    96040432.00000000 60204140.00000000 152076112.00000000 49785.80859375  4353313.00000000 3445399.75000000 
0.05500    94269368.00000000 59104284.00000000 149284608.00000000 48589.92968750  4260036.50000000 3371813.25000000 
0.05600    92508384.00000000 58009832.00000000 146507808.00000000 47407.75781250  4167510.00000000 3298829.25000000 
0.05700    90757240.00000000 56922052.00000000 143747792.00000000 46239.94921875  4075846.75000000 3226530.00000000 
0.05800    89018224.00000000 55841124.00000000 141005760.00000000 45087.75390625  3985089.25000000 3154943.00000000 
0.05900    87291712.00000000 54768304.00000000 138283648.00000000 43951.29687500  3895299.75000000 3084116.00000000 
0.06000    85579944.00000000 53704068.00000000 135584864.00000000 42831.81640625  3806567.25000000 3014084.00000000 
0.06100    83883200.00000000 52649316.00000000 132910224.00000000 41729.77343750  3718906.25000000 2944916.25000000 
0.06200    82204168.00000000 51604340.00000000 130260568.00000000 40645.87500000  3632425.50000000 2876685.50000000 
0.06300    80541536.00000000 50570344.00000000 127638408.00000000 39580.82812500  3547116.00000000 2809366.25000000 
0.06400    78897656.00000000 49547284.00000000 125044456.00000000 38534.93750000  3463069.00000000 2743017.25000000 
0.06500    77272824.00000000 48536832.00000000 122481344.00000000 37508.62890625  3380291.75000000 2677703.75000000 
0.06600    75668696.00000000 47538200.00000000 119950648.00000000 36502.81640625  3298871.75000000 2613402.25000000 
0.06700    74086168.00000000 46552516.00000000 117452000.00000000 35517.21484375  3218812.50000000 2550201.00000000 
0.06800    72524632.00000000 45580392.00000000 114988432.00000000 34552.59765625  3140132.25000000 2488105.50000000 
0.06900    70985968.00000000 44622492.00000000 112560328.00000000 33609.00390625  3062904.00000000 2427120.25000000 
0.07000    69470648.00000000 43678936.00000000 110168592.00000000 32686.70117188  2987144.25000000 2367282.75000000 
0.07100    67980048.00000000 42749876.00000000 107814384.00000000 31785.91992188  2912843.50000000 2308631.00000000 
0.07200    66513256.00000000 41835824.00000000 105498136.00000000 30906.95507812  2840056.00000000 2251133.75000000 
0.07300    65071356.00000000 40937572.00000000 103222744.00000000 30049.75195312  2768780.25000000 2194852.00000000 
0.07400    63655252.00000000 40055060.00000000 100986328.00000000 29214.47851562  2699065.50000000 2139795.50000000 
0.07500    62264852.00000000 39188536.00000000 98791080.00000000 28400.87109375  2630892.50000000 2085928.00000000 
0.07600    60900832.00000000 38337912.00000000 96636968.00000000 27609.05273438  2564262.25000000 2033298.12500000 
0.07700    59563864.00000000 37504460.00000000 94525632.00000000 26838.92773438  2499197.50000000 1981893.87500000 
0.07800    58253428.00000000 36687284.00000000 92456456.00000000 26090.43164062  2435705.00000000 1931738.62500000 
0.07900    56970308.00000000 35886836.00000000 90428712.00000000 25363.44140625  2373775.00000000 1882795.37500000 
0.08000    55714608.00000000 35103548.00000000 88445752.00000000 24657.72070312  2313414.75000000 1835099.62500000 
0.08100    54486488.00000000 34337312.00000000 86505224.00000000 23973.02734375  2254617.00000000 1788640.50000000 
0.08200    53285920.00000000 33588100.00000000 84607752.00000000 23309.07812500  2197350.75000000 1743376.87500000 
0.08300    52112792.00000000 32856156.00000000 82755200.00000000 22665.75781250  2141623.25000000 1699347.25000000 
0.08400    50967488.00000000 32141368.00000000 80945376.00000000 22042.65039062  2087446.00000000 1656517.50000000 
0.08500    49849844.00000000 31443812.00000000 79179504.00000000 21439.24609375  2034773.25000000 1614884.50000000 
0.08600    48759480.00000000 30763340.00000000 77456904.00000000 20855.42187500  1983600.50000000 1574428.00000000 
0.08700    47696856.00000000 30100140.00000000 75777712.00000000 20290.80273438  1933913.25000000 1535148.87500000 
0.08800    46661236.00000000 29453584.00000000 74141400.00000000 19744.91796875  1885690.62500000 1497018.37500000 
0.08900    45653064.00000000 28824116.00000000 72547368.00000000 19217.38281250  1838889.87500000 1460011.00000000 
0.09000    44671580.00000000 28211560.00000000 70996464.00000000 18707.71093750  1793512.37500000 1424136.50000000 
0.09100    43716868.00000000 27615568.00000000 69487648.00000000 18215.49414062  1749512.87500000 1389351.62500000 
0.09200    42788548.00000000 27035920.00000000 68021040.00000000 17740.33203125  1706881.37500000 1355644.87500000 
0.09300    41886124.00000000 26472768.00000000 66594744.00000000 17281.56445312  1665592.25000000 1322978.12500000 
0.09400    41009404.00000000 25925446.00000000 65209404.00000000 16838.70898438  1625593.62500000 1291362.62500000 
0.09500    40158276.00000000 25393958.00000000 63864316.00000000 16411.52929688  1586887.50000000 1260739.87500000 
0.09600    39331864.00000000 24878170.00000000 62558188.00000000 15999.44140625  1549415.00000000 1231103.50000000 
0.09700    38530112.00000000 24377866.00000000 61291240.00000000 15601.80957031  1513157.12500000 1202428.75000000 
0.09800    37752532.00000000 23892370.00000000 60062264.00000000 15218.10449219  1478091.00000000 1174686.37500000 
0.09900    36998448.00000000 23421922.00000000 58871196.00000000 14848.08105469  1444170.62500000 1147853.37500000 
0.10000    36267448.00000000 22965892.00000000 57716500.00000000 14491.05371094  1411353.12500000 1121899.50000000 
0.10100    35559408.00000000 22524098.00000000 56597368.00000000 14146.34082031  1379621.75000000 1096798.12500000 
0.10200    34873264.00000000 22096236.00000000 55514020.00000000 13813.78808594  1348932.75000000 1072527.87500000 
0.10300    34209064.00000000 21682088.00000000 54464456.00000000 13492.62109375  1319259.75000000 1049047.87500000 
0.10400    33565864.00000000 21281018.00000000 53448356.00000000 13182.62109375  1290567.50000000 1026342.00000000 
0.10500    32943188.00000000 20892946.00000000 52465572.00000000 12883.14648438  1262806.75000000 1004384.50000000 
0.10600    32340070.00000000 20517308.00000000 51513740.00000000 12593.62792969  1235956.87500000 983143.68750000 
0.10700    31757162.00000000 20154002.00000000 50593004.00000000 12313.71875000  1209988.75000000 962591.62500000 
0.10800    31192740.00000000 19802700.00000000 49701920.00000000 12043.02148438  1184843.12500000 942700.81250000 
0.10900    30646682.00000000 19462724.00000000 48840164.00000000 11780.93066406  1160503.00000000 923447.00000000 
0.11000    30118258.00000000 19133894.00000000 48006328.00000000 11527.03027344  1136944.37500000 904799.18750000 
0.11100    29607120.00000000 18815912.00000000 47200000.00000000 11281.10839844  1114126.87500000 886735.31250000 
0.11200    29112560.00000000 18508346.00000000 46419828.00000000 11042.42187500  1092007.37500000 869234.25000000 
0.11300    28633718.00000000 18210696.00000000 45664664.00000000 10810.87500000  1070556.12500000 852257.68750000 
0.11400    28170552.00000000 17923068.00000000 44934428.00000000 10585.89648438  1049751.37500000 835793.31250000 
0.11500    27722198.00000000 17644524.00000000 44227464.00000000 10367.22265625  1029561.31250000 819811.87500000 
0.11600    27287890.00000000 17375154.00000000 43543064.00000000 10154.49023438  1009941.43750000 804279.12500000 
0.11700    26867318.00000000 17114132.00000000 42880640.00000000 9947.26269531   990882.31250000 789194.81250000 
0.11800    26459748.00000000 16861554.00000000 42238724.00000000 9745.25585938   972338.25000000 774518.18750000 
0.11900    26064786.00000000 16616842.00000000 41616440.00000000 9548.25195312   954290.50000000 760229.68750000 
0.12000    25681892.00000000 16379702.00000000 41013456.00000000 9355.83886719   936716.12500000 746309.00000000 
0.12100    25310412.00000000 16149620.00000000 40428796.00000000 9167.82324219   919582.68750000 732745.00000000 
0.12200    24949792.00000000 15926632.00000000 39861192.00000000 8983.86816406   902862.68750000 719505.56250000 
0.12300    24599698.00000000 15710089.00000000 39310432.00000000 8803.84375000   886542.12500000 706576.06250000 
0.12400    24259384.00000000 15499694.00000000 38775180.00000000 8627.47460938   870586.93750000 693941.12500000 
0.12500    23928476.00000000 15295175.00000000 38254592.00000000 8454.41601562   854986.81250000 681575.87500000 
0.12600    23606534.00000000 15096436.00000000 37748488.00000000 8284.72167969   839717.50000000 669474.12500000 
0.12700    23292836.00000000 14902753.00000000 37255108.00000000 8117.93701172   824749.31250000 657612.93750000 
0.12800    22987160.00000000 14714214.00000000 36775060.00000000 7954.06201172   810074.56250000 645979.31250000 
0.12900    22688962.00000000 14530346.00000000 36306536.00000000 7792.91748047   795669.87500000 634560.06250000 
0.13000    22397930.00000000 14350841.00000000 35849056.00000000 7634.37353516   781515.06250000 623339.50000000 
0.13100    22113458.00000000 14175507.00000000 35402080.00000000 7478.18457031   767608.25000000 612301.18750000 
0.13200    21835166.00000000 14004012.00000000 34965092.00000000 7324.35400391   753916.87500000 601439.75000000 
0.13300    21562830.00000000 13836197.00000000 34536996.00000000 7172.77929688   740443.06250000 590742.93750000 
0.13400    21295794.00000000 13671796.00000000 34117920.00000000 7023.29882812   727157.56250000 580200.56250000 
0.13500    21033928.00000000 13510620.00000000 33706820.00000000 6875.83593750   714062.18750000 569798.25000000 
0.13600    20776874.00000000 13352166.00000000 33302922.00000000 6730.39648438   701140.62500000 559536.25000000 
0.13700    20523968.00000000 13196529.00000000 32905930.00000000 6586.87646484   688377.18750000 549398.37500000 
0.13800    20275458.00000000 13043393.00000000 32515524.00000000 6445.18115234   675770.00000000 539379.12500000 
0.13900    20030540.00000000 12892559.00000000 32130946.00000000 6305.37255859   663307.50000000 529473.25000000 
0.14000    19789220.00000000 12743936.00000000 31752064.00000000 6167.30859375   650988.75000000 519668.06250000 
0.14100    19551138.00000000 12597132.00000000 31377828.00000000 6031.06738281   638794.81250000 509971.03125000 
0.14200    19316018.00000000 12452125.00000000 31008490.00000000 5896.52587891   626727.68750000 500365.21875000 
0.14300    19083682.00000000 12308824.00000000 30643248.00000000 5763.75048828   614775.50000000 490855.90625000 
0.14400    18853732.00000000 12166889.00000000 30281700.00000000 5632.68359375   602939.75000000 481430.34375000 
0.14500    18626040.00000000 12026384.00000000 29923870.00000000 5503.33300781   591219.31250000 472089.84375000 
0.14600    18400606.00000000 11887009.00000000 29569092.00000000 5375.81542969   579603.62500000 462832.40625000 
0.14700    18177114.00000000 11748765.00000000 29217432.00000000 5250.00585938   568092.75000000 453654.93750000 
0.14800    17955306.00000000 11611459.00000000 28868148.00000000 5125.88574219   556682.62500000 444549.53125000 
0.14900    17735026.00000000 11475086.00000000 28521190.00000000 5003.59130859   545366.56250000 435527.78125000 
0.15000    17516144.00000000 11339302.00000000 28176274.00000000 4883.10937500   534156.68750000 426575.46875000 
0.15100    17298508.00000000 11204370.00000000 27833424.00000000 4764.43017578   523040.03125000 417706.37500000 
0.15200    17082206.00000000 11069993.00000000 27492260.00000000 4647.60156250   512026.65625000 408907.37500000 
0.15300    16866954.00000000 10936152.00000000 27152858.00000000 4532.60302734   501112.87500000 400180.21875000 
0.15400    16652513.00000000 10802768.00000000 26814544.00000000 4419.50390625   490288.43750000 391532.87500000 
0.15500    16439182.00000000 10669842.00000000 26477446.00000000 4308.32421875   479565.25000000 382957.65625000 
0.15600    16226580.00000000 10537219.00000000 26141476.00000000 4199.05566406   468942.12500000 374458.00000000 
0.15700    16014773.00000000 10404954.00000000 25806632.00000000 4091.79907227   458424.87500000 366040.53125000 
0.15800    15803618.00000000 10272909.00000000 25472452.00000000 3986.48803711   448005.78125000 357700.00000000 
0.15900    15593116.00000000 10141152.00000000 25139276.00000000 3883.16650391   437687.21875000 349437.90625000 
0.16000    15383208.00000000 10009623.00000000 24806776.00000000 3781.90722656   427477.46875000 341258.75000000 
0.16100    15174026.00000000 9878359.00000000 24475322.00000000 3682.68164062   417380.21875000 333164.65625000 
0.16200    14965309.00000000 9747212.00000000 24144316.00000000 3585.55664062   407390.71875000 325156.84375000 
0.16300    14757230.00000000 9616332.00000000 23813998.00000000 3490.45092773   397511.31250000 317233.84375000 
0.16400    14549605.00000000 9485584.00000000 23484536.00000000 3397.45239258   387746.78125000 309401.62500000 
0.16500    14342642.00000000 9355046.00000000 23155656.00000000 3306.57788086   378101.87500000 301660.78125000 
0.16600    14136110.00000000 9224639.00000000 22827512.00000000 3217.80541992   368577.03125000 294012.34375000 
0.16700    13930268.00000000 9094523.00000000 22499994.00000000 3131.14819336   359168.96875000 286457.28125000 
0.16800    13724932.00000000 8964541.00000000 22173296.00000000 3046.62622070   349886.00000000 279001.78125000 
0.16900    13520425.00000000 8834949.00000000 21847394.00000000 2964.24194336   340731.75000000 271646.28125000 
0.17000    13316526.00000000 8705480.00000000 21522556.00000000 2883.96435547   331704.93750000 264390.81250000 
