# SAXS profile: number of points = 501, q_min = 0, q_max = 0.5, delta_q = 0.001
#    q    intensity 
0.00000    162231744.00000000 101201848.00000000 256271088.00000000 103285.81250000 8187014.00000000 6466103.50000000 
0.00100    162197360.00000000 101177984.00000000 256211408.00000000 103252.34375000 8184760.50000000 6464312.00000000 
0.00200    162089488.00000000 101107824.00000000 256032848.00000000 103153.02343750 8177918.00000000 6458925.00000000 
0.00300    161904800.00000000 100992120.00000000 255735184.00000000 102988.35937500 8166493.50000000 6450004.50000000 
0.00400    161638320.00000000 100829280.00000000 255319808.00000000 102758.32812500 8150580.00000000 6437502.00000000 
0.00500    161294448.00000000 100619304.00000000 254784192.00000000 102463.94531250 8130134.00000000 6421507.50000000 
0.00600    160877088.00000000 100362968.00000000 254131104.00000000 102105.37500000 8105294.50000000 6401985.50000000 
0.00700    160381248.00000000 100063424.00000000 253366304.00000000 101683.00000000 8075997.50000000 6379006.50000000 
0.00800    159813920.00000000 99719360.00000000 252484512.00000000 101198.77343750 8042353.50000000 6352658.00000000 
0.00900    159180416.00000000 99331328.00000000 251489376.00000000 100653.58593750 8004435.50000000 6322942.00000000 
0.01000    158476784.00000000 98898656.00000000 250384768.00000000 100047.72656250 7962353.00000000 6289874.00000000 
0.01100    157703120.00000000 98422336.00000000 249167824.00000000 99384.26562500  7916163.50000000 6253678.00000000 
0.01200    156856048.00000000 97904584.00000000 247844960.00000000 98662.32812500  7865874.00000000 6214256.50000000 
0.01300    155943600.00000000 97344456.00000000 246418240.00000000 97885.86718750  7811729.50000000 6171730.50000000 
0.01400    154965200.00000000 96745128.00000000 244886400.00000000 97055.54687500  7753750.00000000 6126222.50000000 
0.01500    153925360.00000000 96107272.00000000 243255616.00000000 96172.24218750  7692049.00000000 6077812.00000000 
0.01600    152822016.00000000 95430496.00000000 241527824.00000000 95240.24218750  7626721.50000000 6026607.50000000 
0.01700    151657456.00000000 94716832.00000000 239704560.00000000 94259.17187500  7558015.00000000 5972662.00000000 
0.01800    150435648.00000000 93966496.00000000 237789744.00000000 93231.61718750  7485897.50000000 5916090.50000000 
0.01900    149156320.00000000 93182672.00000000 235785904.00000000 92161.96875000  7410628.50000000 5856976.00000000 
0.02000    147822560.00000000 92364032.00000000 233697248.00000000 91049.92187500  7332312.00000000 5795542.00000000 
0.02100    146438896.00000000 91514488.00000000 231524832.00000000 89898.70312500  7251089.50000000 5731744.50000000 
0.02200    145002448.00000000 90632792.00000000 229276528.00000000 88710.57812500  7167118.50000000 5665790.50000000 
0.02300    143520032.00000000 89721536.00000000 226951984.00000000 87488.56250000  7080520.50000000 5597772.00000000 
0.02400    141991872.00000000 88782216.00000000 224555904.00000000 86233.78906250  6991444.00000000 5527898.00000000 
0.02500    140420560.00000000 87816896.00000000 222091168.00000000 84949.60156250  6900114.50000000 5456145.50000000 
0.02600    138808352.00000000 86824696.00000000 219562640.00000000 83638.74218750  6806681.50000000 5382744.00000000 
0.02700    137157088.00000000 85809864.00000000 216974528.00000000 82303.24218750  6711303.50000000 5307755.50000000 
0.02800    135471344.00000000 84772536.00000000 214328992.00000000 80945.26562500  6614033.50000000 5231324.50000000 
0.02900    133752472.00000000 83714320.00000000 211630912.00000000 79568.10937500  6515140.50000000 5153623.50000000 
0.03000    132002624.00000000 82636248.00000000 208884256.00000000 78173.95312500  6414768.50000000 5074709.00000000 
0.03100    130224888.00000000 81541344.00000000 206093344.00000000 76765.55468750  6313110.00000000 4994794.50000000 
0.03200    128421880.00000000 80429808.00000000 203261168.00000000 75344.63281250  6210259.00000000 4913959.50000000 
0.03300    126594552.00000000 79304008.00000000 200392912.00000000 73914.15625000  6106423.50000000 4832277.00000000 
0.03400    124747440.00000000 78165104.00000000 197490160.00000000 72476.61718750  6001829.50000000 4749964.50000000 
0.03500    122881544.00000000 77014056.00000000 194559424.00000000 71034.21875000  5896450.00000000 4667102.50000000 
0.03600    121000104.00000000 75852640.00000000 191603920.00000000 69588.60156250  5790604.00000000 4583819.50000000 
0.03700    119106112.00000000 74682680.00000000 188625760.00000000 68143.30468750  5684362.50000000 4500209.00000000 
0.03800    117200160.00000000 73505800.00000000 185629744.00000000 66699.39062500  5577936.00000000 4416364.00000000 
0.03900    115286704.00000000 72322640.00000000 182621216.00000000 65259.26171875  5471422.00000000 4332491.00000000 
0.04000    113367184.00000000 71135064.00000000 179601632.00000000 63823.86718750  5364884.50000000 4248613.50000000 
0.04100    111442912.00000000 69945328.00000000 176575104.00000000 62397.17968750  5258629.00000000 4164895.50000000 
0.04200    109518808.00000000 68753376.00000000 173545568.00000000 60979.76562500  5152690.50000000 4081414.25000000 
0.04300    107594640.00000000 67561784.00000000 170516544.00000000 59573.62500000  5047162.50000000 3998279.00000000 
0.04400    105673288.00000000 66370496.00000000 167491200.00000000 58180.50390625  4942262.00000000 3915588.00000000 
0.04500    103756352.00000000 65182048.00000000 164471264.00000000 56802.33593750  4838029.50000000 3833420.50000000 
0.04600    101846288.00000000 63997768.00000000 161463440.00000000 55439.55468750  4734605.50000000 3751867.00000000 
0.04700    99945960.00000000 62817976.00000000 158468464.00000000 54094.58984375  4632138.00000000 3671019.75000000 
0.04800    98055312.00000000 61644308.00000000 155489536.00000000 52767.89453125  4530660.50000000 3590961.25000000 
0.04900    96177312.00000000 60477904.00000000 152530016.00000000 51461.31640625  4430335.50000000 3511752.75000000 
0.05000    94314040.00000000 59319636.00000000 149591760.00000000 50175.77343750  4331163.50000000 3433473.50000000 
0.05100    92466184.00000000 58170176.00000000 146677568.00000000 48912.02734375  4233299.00000000 3356216.75000000 
0.05200    90635448.00000000 57031580.00000000 143789984.00000000 47671.52343750  4136816.25000000 3279983.25000000 
0.05300    88824640.00000000 55904084.00000000 140932352.00000000 46454.36328125  4041731.75000000 3204896.75000000 
0.05400    87034096.00000000 54788572.00000000 138104464.00000000 45261.74609375  3948141.75000000 3130943.75000000 
0.05500    85264616.00000000 53685656.00000000 135311424.00000000 44094.01171875  3856140.50000000 3058219.75000000 
0.05600    83518088.00000000 52596868.00000000 132553616.00000000 42951.97656250  3765749.75000000 2986764.25000000 
0.05700    81796224.00000000 51522112.00000000 129832520.00000000 41835.45703125  3677039.25000000 2916592.25000000 
0.05800    80098208.00000000 50462944.00000000 127150344.00000000 40745.22265625  3589988.50000000 2847741.75000000 
0.05900    78427592.00000000 49419324.00000000 124509424.00000000 39681.99218750  3504707.00000000 2780258.50000000 
0.06000    76783864.00000000 48391788.00000000 121909440.00000000 38644.87890625  3421182.25000000 2714167.75000000 
0.06100    75167616.00000000 47381892.00000000 119353968.00000000 37634.96093750  3339473.00000000 2649489.50000000 
0.06200    73580104.00000000 46388524.00000000 116842856.00000000 36651.59765625  3259579.00000000 2586248.75000000 
0.06300    72022376.00000000 45413448.00000000 114377824.00000000 35694.83203125  3181523.50000000 2524412.25000000 
0.06400    70493736.00000000 44456480.00000000 111957936.00000000 34765.07812500  3105292.00000000 2464043.00000000 
0.06500    68995728.00000000 43517596.00000000 109587248.00000000 33861.87500000  3030918.75000000 2405123.00000000 
0.06600    67527824.00000000 42598052.00000000 107263272.00000000 32984.25000000  2958428.00000000 2347656.00000000 
0.06700    66092308.00000000 41697344.00000000 104988240.00000000 32132.88867188  2887754.50000000 2291636.50000000 
0.06800    64687652.00000000 40816224.00000000 102763328.00000000 31306.86328125  2818946.75000000 2237081.00000000 
0.06900    63314876.00000000 39954620.00000000 100588288.00000000 30506.34375000  2751964.00000000 2183934.25000000 
0.07000    61973556.00000000 39112828.00000000 98462336.00000000 29730.36718750  2686789.00000000 2132265.25000000 
0.07100    60663900.00000000 38290372.00000000 96387024.00000000 28978.49804688  2623421.75000000 2081993.87500000 
0.07200    59386464.00000000 37487396.00000000 94361504.00000000 28250.31835938  2561846.75000000 2033124.12500000 
0.07300    58140908.00000000 36704568.00000000 92386368.00000000 27545.51757812  2502018.25000000 1985644.12500000 
0.07400    56926820.00000000 35941360.00000000 90461936.00000000 26863.20507812  2443912.50000000 1939531.00000000 
0.07500    55744760.00000000 35197836.00000000 88585568.00000000 26202.77539062  2387522.00000000 1894760.00000000 
0.07600    54593720.00000000 34473656.00000000 86760520.00000000 25563.75976562  2332791.50000000 1851305.62500000 
0.07700    53474108.00000000 33769052.00000000 84983392.00000000 24945.36914062  2279681.25000000 1809147.12500000 
0.07800    52384904.00000000 33083856.00000000 83255424.00000000 24347.34375000  2228188.50000000 1768246.00000000 
0.07900    51326508.00000000 32417626.00000000 81575832.00000000 23768.48632812  2178265.50000000 1728577.50000000 
0.08000    50297924.00000000 31770168.00000000 79943856.00000000 23208.31250000  2129873.00000000 1690125.25000000 
0.08100    49298964.00000000 31141382.00000000 78358376.00000000 22666.50781250  2082945.87500000 1652865.37500000 
0.08200    48329448.00000000 30531000.00000000 76819648.00000000 22141.91210938  2037477.50000000 1616739.00000000 
0.08300    47388444.00000000 29938358.00000000 75325232.00000000 21634.30273438  1993387.62500000 1581727.50000000 
0.08400    46475864.00000000 29363632.00000000 73877032.00000000 21142.76562500  1950678.12500000 1547788.87500000 
0.08500    45590588.00000000 28806152.00000000 72472128.00000000 20666.64257812  1909283.62500000 1514903.25000000 
0.08600    44732072.00000000 28265910.00000000 71110144.00000000 20205.52929688  1869169.00000000 1483039.50000000 
0.08700    43900440.00000000 27742394.00000000 69789952.00000000 19758.46484375  1830286.37500000 1452158.00000000 
0.08800    43094288.00000000 27235018.00000000 68511288.00000000 19325.16796875  1792599.25000000 1422223.12500000 
0.08900    42313524.00000000 26743658.00000000 67271816.00000000 18904.78515625  1756070.50000000 1393189.87500000 
0.09000    41556860.00000000 26267660.00000000 66072004.00000000 18496.66992188  1720634.00000000 1365048.62500000 
0.09100    40824488.00000000 25806954.00000000 64909880.00000000 18100.91992188  1686260.12500000 1337761.37500000 
0.09200    40114340.00000000 25360930.00000000 63784856.00000000 17715.99023438  1652911.37500000 1311274.25000000 
0.09300    39427348.00000000 24929362.00000000 62695340.00000000 17342.21484375  1620553.87500000 1285585.50000000 
0.09400    38761996.00000000 24511264.00000000 61640256.00000000 16978.56054688  1589128.25000000 1260644.75000000 
0.09500    38117624.00000000 24106838.00000000 60619312.00000000 16624.76562500  1558622.37500000 1236428.37500000 
0.09600    37493436.00000000 23715176.00000000 59630612.00000000 16280.48046875  1528966.62500000 1212898.12500000 
0.09700    36889100.00000000 23336514.00000000 58673332.00000000 15944.99804688  1500141.75000000 1190045.25000000 
0.09800    36303456.00000000 22969648.00000000 57746224.00000000 15618.00390625  1472121.12500000 1167803.25000000 
0.09900    35736164.00000000 22614376.00000000 56848328.00000000 15299.11425781  1444850.00000000 1146187.37500000 
0.10000    35186168.00000000 22270410.00000000 55978384.00000000 14987.92968750  1418293.62500000 1125135.62500000 
0.10100    34653276.00000000 21937316.00000000 55135536.00000000 14684.23339844  1392433.50000000 1104630.50000000 
0.10200    34136844.00000000 21614480.00000000 54318580.00000000 14387.42871094  1367245.12500000 1084669.12500000 
0.10300    33635152.00000000 21301424.00000000 53526024.00000000 14097.50097656  1342666.12500000 1065198.87500000 
0.10400    33148446.00000000 20998090.00000000 52757288.00000000 13813.74902344  1318690.00000000 1046207.75000000 
0.10500    32675984.00000000 20703690.00000000 52011608.00000000 13536.36621094  1295288.25000000 1027669.93750000 
0.10600    32216856.00000000 20418036.00000000 51286688.00000000 13264.67187500  1272430.50000000 1009565.43750000 
0.10700    31770658.00000000 20140388.00000000 50582868.00000000 12998.69824219  1250071.12500000 991877.87500000 
0.10800    31336586.00000000 19870598.00000000 49898524.00000000 12737.95898438  1228226.62500000 974574.68750000 
0.10900    30914248.00000000 19608672.00000000 49232956.00000000 12482.53613281  1206830.25000000 957650.25000000 
0.11000    30502890.00000000 19353590.00000000 48584820.00000000 12232.04687500  1185894.12500000 941081.68750000 
0.11100    30101818.00000000 19104970.00000000 47953348.00000000 11986.37695312  1165368.50000000 924841.87500000 
0.11200    29710760.00000000 18862952.00000000 47337896.00000000 11745.24804688  1145242.12500000 908932.93750000 
0.11300    29328720.00000000 18626706.00000000 46736960.00000000 11508.65917969  1125513.37500000 893325.56250000 
0.11400    28955872.00000000 18396112.00000000 46150324.00000000 11276.28808594  1106142.50000000 878012.06250000 
0.11500    28591072.00000000 18171020.00000000 45577140.00000000 11048.08007812  1087132.62500000 862971.50000000 
0.11600    28234104.00000000 17950838.00000000 45015948.00000000 10823.96386719  1068424.50000000 848187.31250000 
0.11700    27884532.00000000 17735126.00000000 44466880.00000000 10603.77148438  1050059.75000000 833667.06250000 
0.11800    27541618.00000000 17523894.00000000 43927772.00000000 10387.35839844  1031982.93750000 819378.12500000 
0.11900    27205020.00000000 17316680.00000000 43399600.00000000 10174.54882812  1014192.37500000 805320.18750000 
0.12000    26874382.00000000 17113066.00000000 42881064.00000000 9965.35351562   996673.25000000 791473.12500000 
0.12100    26549404.00000000 16913248.00000000 42370884.00000000 9759.85449219   979425.62500000 777839.62500000 
0.12200    26229490.00000000 16716329.00000000 41869196.00000000 9557.64550781   962433.18750000 764399.00000000 
0.12300    25914232.00000000 16522720.00000000 41374548.00000000 9358.73535156   945670.18750000 751154.56250000 
0.12400    25603796.00000000 16331665.00000000 40887176.00000000 9163.21875000   929144.18750000 738079.56250000 
0.12500    25296874.00000000 16143229.00000000 40405764.00000000 8970.77539062   912831.43750000 725184.43750000 
0.12600    24994152.00000000 15957096.00000000 39931064.00000000 8781.59472656   896742.18750000 712464.75000000 
0.12700    24694766.00000000 15773089.00000000 39461496.00000000 8595.41015625   880856.56250000 699894.62500000 
0.12800    24398484.00000000 15590903.00000000 38996724.00000000 8412.17480469   865154.68750000 687478.12500000 
0.12900    24105058.00000000 15410489.00000000 38536548.00000000 8232.06445312   849654.37500000 675210.50000000 
0.13000    23814436.00000000 15231689.00000000 38080336.00000000 8054.72314453   834337.56250000 663092.31250000 
0.13100    23526092.00000000 15054242.00000000 37627588.00000000 7880.28369141   819192.31250000 651103.50000000 
0.13200    23240022.00000000 14878147.00000000 37178464.00000000 7708.71972656   804225.62500000 639259.31250000 
0.13300    22955878.00000000 14703199.00000000 36732364.00000000 7539.81445312   789429.31250000 627538.43750000 
0.13400    22673638.00000000 14529211.00000000 36289132.00000000 7373.72363281   774790.62500000 615943.56250000 
0.13500    22392790.00000000 14356108.00000000 35847928.00000000 7210.36865234   760312.18750000 604471.93750000 
0.13600    22113724.00000000 14183814.00000000 35409264.00000000 7049.55615234   745986.56250000 593127.37500000 
0.13700    21835838.00000000 14012230.00000000 34972224.00000000 6891.40673828   731822.25000000 581894.87500000 
0.13800    21559108.00000000 13841267.00000000 34537260.00000000 6735.84375000   717796.87500000 570778.37500000 
0.13900    21283792.00000000 13670864.00000000 34103964.00000000 6582.81494141   703925.12500000 559777.12500000 
0.14000    21009162.00000000 13501043.00000000 33671528.00000000 6432.35888672   690191.43750000 548883.25000000 
0.14100    20735600.00000000 13331503.00000000 33240858.00000000 6284.33593750   676607.25000000 538104.25000000 
0.14200    20463018.00000000 13162292.00000000 32811496.00000000 6138.83593750   663165.43750000 527433.31250000 
0.14300    20191038.00000000 12993620.00000000 32382864.00000000 5995.71679688   649860.25000000 516868.56250000 
0.14400    19919934.00000000 12825077.00000000 31955234.00000000 5855.07031250   636693.56250000 506409.59375000 
0.14500    19649676.00000000 12656900.00000000 31528760.00000000 5716.83300781   623664.93750000 496065.31250000 
0.14600    19379908.00000000 12489024.00000000 31102724.00000000 5580.95214844   610773.18750000 485820.12500000 
0.14700    19111068.00000000 12321315.00000000 30678122.00000000 5447.54052734   598021.25000000 475686.84375000 
0.14800    18842588.00000000 12153872.00000000 30254102.00000000 5316.42041016   585407.12500000 465656.90625000 
0.14900    18575186.00000000 11986791.00000000 29831222.00000000 5187.62402344   572929.00000000 455729.96875000 
0.15000    18308352.00000000 11819924.00000000 29408990.00000000 5061.19726562   560592.81250000 445914.71875000 
0.15100    18042294.00000000 11653449.00000000 28987810.00000000 4937.04931641   548391.00000000 436204.84375000 
0.15200    17777070.00000000 11487160.00000000 28567986.00000000 4815.22216797   536329.81250000 426607.15625000 
0.15300    17512606.00000000 11321320.00000000 28149040.00000000 4695.68652344   524411.00000000 417112.93750000 
0.15400    17249154.00000000 11155823.00000000 27731016.00000000 4578.48339844   512634.81250000 407731.18750000 
0.15500    16986532.00000000 10990721.00000000 27314684.00000000 4463.62548828   501001.40625000 398461.59375000 
0.15600    16724983.00000000 10826086.00000000 26899780.00000000 4350.94189453   489508.34375000 389302.81250000 
0.15700    16464642.00000000 10662054.00000000 26486294.00000000 4240.59716797   478164.28125000 380257.31250000 
0.15800    16205318.00000000 10498460.00000000 26074140.00000000 4132.51220703   466966.96875000 371327.59375000 
0.15900    15947235.00000000 10335568.00000000 25663816.00000000 4026.74536133   455918.56250000 362516.37500000 
0.16000    15690363.00000000 10173368.00000000 25255660.00000000 3923.23950195   445019.15625000 353815.78125000 
0.16100    15435102.00000000 10011864.00000000 24849554.00000000 3822.00439453   434278.40625000 345240.87500000 
0.16200    15181358.00000000 9850951.00000000 24445296.00000000 3723.04345703   423688.50000000 336786.37500000 
0.16300    14928988.00000000 9691097.00000000 24043656.00000000 3626.34838867   413250.56250000 328455.21875000 
0.16400    14678334.00000000 9532205.00000000 23644368.00000000 3531.88378906   402978.21875000 320246.15625000 
0.16500    14429615.00000000 9374080.00000000 23247912.00000000 3439.68408203   392861.96875000 312159.15625000 
0.16600    14182703.00000000 9217146.00000000 22853938.00000000 3349.76782227   382908.81250000 304204.00000000 
0.16700    13937635.00000000 9061287.00000000 22463202.00000000 3262.04687500   373116.15625000 296375.62500000 
0.16800    13694725.00000000 8906550.00000000 22075288.00000000 3176.56665039   363488.06250000 288674.09375000 
0.16900    13454089.00000000 8753165.00000000 21690984.00000000 3093.33691406   354029.56250000 281105.03125000 
0.17000    13215517.00000000 8600883.00000000 21309902.00000000 3012.30371094   344735.37500000 273670.84375000 
