# SAXS profile: number of points = 501, q_min = 0, q_max = 0.5, delta_q = 0.001
#    q    intensity 
0.00000    162236672.00000000 101201920.00000000 256271296.00000000 100638.29687500 8081414.00000000 6382712.00000000 
0.00100    162210224.00000000 101185216.00000000 256229136.00000000 100616.57812500 8079895.50000000 6381504.50000000 
0.00200    162131216.00000000 101135128.00000000 256102432.00000000 100551.17968750 8075233.00000000 6377825.50000000 
0.00300    161998400.00000000 101051360.00000000 255890368.00000000 100443.32812500 8067471.00000000 6371688.50000000 
0.00400    161810160.00000000 100935328.00000000 255592720.00000000 100291.72656250 8056643.00000000 6363154.50000000 
0.00500    161567824.00000000 100785200.00000000 255211520.00000000 100097.53906250 8042744.50000000 6352216.50000000 
0.00600    161272240.00000000 100601800.00000000 254747712.00000000 99860.64062500  8025760.50000000 6338825.50000000 
0.00700    160922544.00000000 100385584.00000000 254198320.00000000 99581.67968750  8005720.00000000 6323063.00000000 
0.00800    160521504.00000000 100137096.00000000 253567104.00000000 99260.08593750  7982689.00000000 6304909.50000000 
0.00900    160068048.00000000 99856872.00000000 252854384.00000000 98897.46875000  7956676.00000000 6284388.50000000 
0.01000    159560704.00000000 99544056.00000000 252060304.00000000 98493.39843750  7927699.00000000 6261589.00000000 
0.01100    159005504.00000000 99199792.00000000 251183952.00000000 98049.00781250  7895810.50000000 6236454.00000000 
0.01200    158399072.00000000 98824136.00000000 250227856.00000000 97564.83593750  7861034.50000000 6209078.00000000 
0.01300    157742464.00000000 98417816.00000000 249195424.00000000 97041.17968750  7823382.50000000 6179395.00000000 
0.01400    157037360.00000000 97980496.00000000 248085376.00000000 96478.87500000  7782974.00000000 6147523.00000000 
0.01500    156283664.00000000 97513400.00000000 246897024.00000000 95878.46875000  7739786.00000000 6113532.00000000 
0.01600    155479728.00000000 97016272.00000000 245634624.00000000 95241.06250000  7693886.50000000 6077383.50000000 
0.01700    154630096.00000000 96490600.00000000 244297712.00000000 94567.56250000  7645374.50000000 6039147.50000000 
0.01800    153735296.00000000 95935576.00000000 242887952.00000000 93858.15625000  7594249.00000000 5998854.50000000 
0.01900    152794832.00000000 95353664.00000000 241408832.00000000 93114.69531250  7540597.00000000 5956593.50000000 
0.02000    151811648.00000000 94743760.00000000 239859216.00000000 92337.27343750  7484505.00000000 5912383.00000000 
0.02100    150783904.00000000 94107520.00000000 238242048.00000000 91527.09375000  7425966.00000000 5866243.50000000 
0.02200    149713248.00000000 93444936.00000000 236557728.00000000 90685.32812500  7365082.50000000 5818263.50000000 
0.02300    148602768.00000000 92756728.00000000 234809168.00000000 89812.75000000  7301922.50000000 5768557.00000000 
0.02400    147452608.00000000 92043880.00000000 232997504.00000000 88911.03125000  7236576.00000000 5717044.50000000 
0.02500    146262480.00000000 91307280.00000000 231125696.00000000 87980.67187500  7169117.00000000 5663861.00000000 
0.02600    145035696.00000000 90547216.00000000 229194160.00000000 87023.18750000  7099565.00000000 5609085.00000000 
0.02700    143773488.00000000 89765064.00000000 227205120.00000000 86039.67187500  7028065.00000000 5552755.00000000 
0.02800    142474112.00000000 88960000.00000000 225161296.00000000 85031.19531250  6954682.00000000 5494894.50000000 
0.02900    141141104.00000000 88134640.00000000 223063232.00000000 83998.46875000  6879482.50000000 5435616.00000000 
0.03000    139777360.00000000 87289000.00000000 220914544.00000000 82943.73437500  6802539.00000000 5375003.50000000 
0.03100    138381200.00000000 86423752.00000000 218717072.00000000 81867.57031250  6723934.50000000 5313098.50000000 
0.03200    136954528.00000000 85540288.00000000 216470800.00000000 80771.41406250  6643789.00000000 5249887.00000000 
0.03300    135501280.00000000 84638584.00000000 214181680.00000000 79656.97656250  6562135.00000000 5185542.50000000 
0.03400    134019320.00000000 83720280.00000000 211849264.00000000 78524.57812500  6479082.50000000 5120098.50000000 
0.03500    132511648.00000000 82786360.00000000 209475440.00000000 77376.10937500  6394739.50000000 5053613.00000000 
0.03600    130979976.00000000 81836664.00000000 207063504.00000000 76212.37500000  6309161.00000000 4986182.00000000 
0.03700    129425952.00000000 80872696.00000000 204615360.00000000 75035.77343750  6222472.00000000 4917821.50000000 
0.03800    127850112.00000000 79895848.00000000 202133872.00000000 73846.19531250  6134687.00000000 4848654.00000000 
0.03900    126253312.00000000 78906440.00000000 199620320.00000000 72646.30468750  6045968.00000000 4778729.00000000 
0.04000    124639336.00000000 77905240.00000000 197077216.00000000 71436.18750000  5956336.50000000 4708096.50000000 
0.04100    123006832.00000000 76893016.00000000 194506928.00000000 70217.59375000  5865970.00000000 4636831.50000000 
0.04200    121359632.00000000 75871240.00000000 191910752.00000000 68991.40625000  5774888.50000000 4565048.50000000 
0.04300    119697408.00000000 74840376.00000000 189292304.00000000 67759.35937500  5683161.00000000 4492771.00000000 
0.04400    118022344.00000000 73801048.00000000 186654576.00000000 66523.17968750  5590958.00000000 4420048.50000000 
0.04500    116335648.00000000 72755592.00000000 183999120.00000000 65283.28125000  5498299.00000000 4347038.00000000 
0.04600    114639752.00000000 71703448.00000000 181325904.00000000 64040.90234375  5405280.50000000 4273703.00000000 
0.04700    112933944.00000000 70645488.00000000 178640048.00000000 62797.37890625  5311969.00000000 4200146.50000000 
0.04800    111221728.00000000 69582976.00000000 175941376.00000000 61554.05468750  5218490.00000000 4126433.50000000 
0.04900    109503696.00000000 68516608.00000000 173234720.00000000 60311.91015625  5124880.50000000 4052619.75000000 
0.05000    107780704.00000000 67447304.00000000 170519968.00000000 59072.20703125  5031234.50000000 3978803.50000000 
0.05100    106054752.00000000 66375948.00000000 167800880.00000000 57835.57812500  4937690.00000000 3905007.75000000 
0.05200    104327032.00000000 65303340.00000000 165077872.00000000 56603.58984375  4844221.00000000 3831314.75000000 
0.05300    102599224.00000000 64230460.00000000 162353536.00000000 55377.18750000  4750956.50000000 3757779.00000000 
0.05400    100871384.00000000 63157928.00000000 159631728.00000000 54157.26171875  4657971.50000000 3684458.25000000 
0.05500    99145736.00000000 62086292.00000000 156911840.00000000 52944.68750000  4565332.00000000 3611402.00000000 
0.05600    97423296.00000000 61016824.00000000 154197200.00000000 51740.78125000  4473122.00000000 3538683.75000000 
0.05700    95705976.00000000 59949872.00000000 151490464.00000000 50546.32421875  4381383.00000000 3466313.75000000 
0.05800    93993176.00000000 58886652.00000000 148791280.00000000 49361.93750000  4290182.50000000 3394403.00000000 
0.05900    92288608.00000000 57827316.00000000 146103648.00000000 48188.64843750  4199625.50000000 3322976.75000000 
0.06000    90591064.00000000 56772844.00000000 143427712.00000000 47027.28125000  4109723.00000000 3252061.25000000 
0.06100    88903088.00000000 55723960.00000000 140765440.00000000 45878.48828125  4020563.25000000 3181709.00000000 
0.06200    87225224.00000000 54681008.00000000 138120672.00000000 44743.26562500  3932202.00000000 3111995.00000000 
0.06300    85558040.00000000 53645148.00000000 135491936.00000000 43622.11328125  3844660.00000000 3042947.25000000 
0.06400    83903464.00000000 52616552.00000000 132882968.00000000 42515.38281250  3758019.25000000 2974597.75000000 
0.06500    82261696.00000000 51595868.00000000 130293888.00000000 41424.41796875  3672326.50000000 2906994.00000000 
0.06600    80634016.00000000 50583932.00000000 127727552.00000000 40349.28125000  3587651.75000000 2840175.25000000 
0.06700    79021032.00000000 49581308.00000000 125183936.00000000 39290.46093750  3504000.75000000 2774178.25000000 
0.06800    77424192.00000000 48588188.00000000 122664752.00000000 38248.55468750  3421431.25000000 2709014.75000000 
0.06900    75843760.00000000 47605384.00000000 120172128.00000000 37224.16796875  3339992.25000000 2644736.25000000 
0.07000    74280696.00000000 46633176.00000000 117706608.00000000 36217.75781250  3259692.50000000 2581380.50000000 
0.07100    72735432.00000000 45671960.00000000 115269248.00000000 35229.22656250  3180599.75000000 2518964.75000000 
0.07200    71209680.00000000 44722556.00000000 112861480.00000000 34259.53906250  3102731.50000000 2457497.00000000 
0.07300    69703464.00000000 43785152.00000000 110484936.00000000 33308.73046875  3026118.50000000 2397022.50000000 
0.07400    68216864.00000000 42860012.00000000 108139864.00000000 32376.87304688  2950778.00000000 2337560.25000000 
0.07500    66750892.00000000 41947772.00000000 105826832.00000000 31464.62890625  2876757.25000000 2279119.00000000 
0.07600    65306312.00000000 41048836.00000000 103547024.00000000 30571.81054688  2804072.50000000 2221736.25000000 
0.07700    63883772.00000000 40162764.00000000 101302200.00000000 29698.65820312  2732712.25000000 2165392.50000000 
0.07800    62483128.00000000 39290892.00000000 99092032.00000000 28845.17773438  2662738.00000000 2110147.75000000 
0.07900    61105500.00000000 38432740.00000000 96916624.00000000 28011.68554688  2594138.75000000 2055977.00000000 
0.08000    59750292.00000000 37588972.00000000 94778656.00000000 27198.28320312  2526939.00000000 2002894.00000000 
0.08100    58419104.00000000 36759720.00000000 92676248.00000000 26404.83007812  2461133.50000000 1950917.00000000 
0.08200    57111324.00000000 35944712.00000000 90612216.00000000 25631.23632812  2396730.25000000 1900058.37500000 
0.08300    55827432.00000000 35144876.00000000 88585192.00000000 24877.56054688  2333763.75000000 1850312.75000000 
0.08400    54567764.00000000 34359896.00000000 86596752.00000000 24143.74023438  2272202.25000000 1801686.50000000 
0.08500    53332796.00000000 33590076.00000000 84645960.00000000 23429.73437500  2212058.75000000 1754170.62500000 
0.08600    52121900.00000000 32835488.00000000 82734496.00000000 22735.20703125  2153334.75000000 1707780.62500000 
0.08700    50936192.00000000 32096342.00000000 80861592.00000000 22060.11328125  2096026.87500000 1662498.62500000 
0.08800    49774980.00000000 31372262.00000000 79027984.00000000 21404.30468750  2040136.12500000 1618327.75000000 
0.08900    48638760.00000000 30664002.00000000 77233472.00000000 20767.71679688  1985647.12500000 1575265.50000000 
0.09000    47527288.00000000 29970856.00000000 75478256.00000000 20149.87109375  1932554.37500000 1533305.12500000 
0.09100    46440932.00000000 29293260.00000000 73762232.00000000 19550.33007812  1880855.75000000 1492437.50000000 
0.09200    45379432.00000000 28631120.00000000 72085072.00000000 18969.42382812  1830530.50000000 1452656.50000000 
0.09300    44342728.00000000 27984258.00000000 70447800.00000000 18406.58203125  1781566.00000000 1413943.87500000 
0.09400    43330456.00000000 27352890.00000000 68848672.00000000 17861.11914062  1733933.00000000 1376284.37500000 
0.09500    42343348.00000000 26736682.00000000 67288392.00000000 17333.28906250  1687654.37500000 1339675.75000000 
0.09600    41380012.00000000 26135838.00000000 65767040.00000000 16822.44726562  1642677.25000000 1304110.87500000 
0.09700    40441324.00000000 25549992.00000000 64283428.00000000 16328.32128906  1598993.12500000 1269550.62500000 
0.09800    39526636.00000000 24979158.00000000 62838516.00000000 15850.35937500  1556581.37500000 1236009.25000000 
0.09900    38635892.00000000 24423180.00000000 61430744.00000000 15388.67773438  1515423.75000000 1203448.25000000 
0.10000    37768848.00000000 23881736.00000000 60060156.00000000 14942.27929688  1475492.87500000 1171848.62500000 
0.10100    36924724.00000000 23354898.00000000 58726392.00000000 14511.25097656  1436766.75000000 1141211.87500000 
0.10200    36103824.00000000 22842292.00000000 57429200.00000000 14094.99218750  1399231.00000000 1111502.25000000 
0.10300    35305856.00000000 22344028.00000000 56167764.00000000 13692.98925781  1362849.00000000 1082707.12500000 
0.10400    34530056.00000000 21859686.00000000 54941592.00000000 13305.02636719  1327596.50000000 1054811.25000000 
0.10500    33776664.00000000 21389092.00000000 53750500.00000000 12930.59277344  1293460.50000000 1027778.06250000 
0.10600    33044228.00000000 20931974.00000000 52593316.00000000 12569.34667969  1260392.00000000 1001596.06250000 
0.10700    32333724.00000000 20488104.00000000 51470184.00000000 12220.79003906  1228382.12500000 976244.31250000 
0.10800    31643964.00000000 20057382.00000000 50379876.00000000 11884.46777344  1197395.75000000 951699.81250000 
0.10900    30974514.00000000 19639370.00000000 49321844.00000000 11560.00195312  1167397.62500000 927941.06250000 
0.11000    30325496.00000000 19233870.00000000 48295528.00000000 11247.09375000  1138381.25000000 904951.18750000 
0.11100    29696052.00000000 18840668.00000000 47300520.00000000 10945.23632812  1110293.75000000 882700.25000000 
0.11200    29085698.00000000 18459614.00000000 46335764.00000000 10653.94824219  1083127.50000000 861163.37500000 
0.11300    28494370.00000000 18090112.00000000 45400908.00000000 10372.87402344  1056832.87500000 840327.06250000 
0.11400    27921280.00000000 17732328.00000000 44494868.00000000 10101.70898438  1031398.25000000 820159.43750000 
0.11500    27366162.00000000 17385564.00000000 43617224.00000000 9839.97167969   1006794.56250000 800654.43750000 
0.11600    26828236.00000000 17049746.00000000 42767152.00000000 9587.24804688   982984.18750000 781771.93750000 
0.11700    26307278.00000000 16724558.00000000 41944012.00000000 9343.19140625   959943.25000000 763501.31250000 
0.11800    25802830.00000000 16409583.00000000 41146488.00000000 9107.39550781   937637.68750000 745808.50000000 
0.11900    25314410.00000000 16104568.00000000 40374344.00000000 8879.60644531   916052.81250000 728679.12500000 
0.12000    24841492.00000000 15809362.00000000 39626896.00000000 8659.28515625   895148.18750000 712097.18750000 
0.12100    24383740.00000000 15523541.00000000 38903360.00000000 8446.22851562   874911.43750000 696033.25000000 
0.12200    23940414.00000000 15246933.00000000 38202820.00000000 8240.06445312   855298.37500000 680470.06250000 
0.12300    23511138.00000000 14979060.00000000 37524516.00000000 8040.47412109   836298.31250000 665382.25000000 
0.12400    23095478.00000000 14719761.00000000 36867876.00000000 7847.11132812   817875.68750000 650754.50000000 
0.12500    22693070.00000000 14468769.00000000 36231960.00000000 7659.67578125   800009.62500000 636568.06250000 
0.12600    22303344.00000000 14225632.00000000 35616108.00000000 7477.99072266   782681.18750000 622800.18750000 
0.12700    21925682.00000000 13990203.00000000 35019536.00000000 7301.56298828   765855.43750000 609437.25000000 
0.12800    21560026.00000000 13762086.00000000 34441700.00000000 7130.26025391   749515.00000000 596452.18750000 
0.12900    21205436.00000000 13541156.00000000 33881976.00000000 6963.81103516   733642.00000000 583836.81250000 
0.13000    20861888.00000000 13327008.00000000 33339356.00000000 6801.93212891   718201.50000000 571568.56250000 
0.13100    20528690.00000000 13119391.00000000 32813014.00000000 6644.41943359   703187.50000000 559632.18750000 
0.13200    20205498.00000000 12918081.00000000 32302652.00000000 6491.01171875   688569.87500000 548009.18750000 
0.13300    19891684.00000000 12722771.00000000 31807690.00000000 6341.59326172   674333.43750000 536685.00000000 
0.13400    19587222.00000000 12533176.00000000 31326544.00000000 6195.79199219   660456.87500000 525649.93750000 
0.13500    19291462.00000000 12349080.00000000 30859840.00000000 6053.58349609   646921.68750000 514879.56250000 
0.13600    19004126.00000000 12170225.00000000 30406164.00000000 5914.72021484   633709.75000000 504372.87500000 
0.13700    18724678.00000000 11996372.00000000 29965340.00000000 5779.00585938   620812.12500000 494106.75000000 
0.13800    18452842.00000000 11827351.00000000 29536298.00000000 5646.34130859   608201.50000000 484070.53125000 
0.13900    18188060.00000000 11662691.00000000 29118794.00000000 5516.57958984   595869.81250000 474255.40625000 
0.14000    17930418.00000000 11502484.00000000 28711996.00000000 5389.54052734   583804.25000000 464645.28125000 
0.14100    17678948.00000000 11346326.00000000 28315592.00000000 5265.16406250   571984.12500000 455233.59375000 
0.14200    17433908.00000000 11193981.00000000 27929048.00000000 5143.24658203   560399.56250000 446008.18750000 
0.14300    17194656.00000000 11045385.00000000 27551694.00000000 5023.73974609   549038.12500000 436958.78125000 
0.14400    16960910.00000000 10900173.00000000 27183030.00000000 4906.53271484   537890.12500000 428079.12500000 
0.14500    16732412.00000000 10758313.00000000 26822938.00000000 4791.54052734   526944.06250000 419359.40625000 
0.14600    16508992.00000000 10619496.00000000 26470430.00000000 4678.72949219   516191.09375000 410785.46875000 
0.14700    16290098.00000000 10483625.00000000 26125510.00000000 4567.97998047   505621.03125000 402360.59375000 
0.14800    16075627.00000000 10350486.00000000 25787340.00000000 4459.19042969   495222.25000000 394071.96875000 
0.14900    15865347.00000000 10219909.00000000 25455638.00000000 4352.36181641   484988.15625000 385911.18750000 
0.15000    15658981.00000000 10091869.00000000 25130358.00000000 4247.43457031   474912.93750000 377878.75000000 
0.15100    15456158.00000000 9965987.00000000 24810768.00000000 4144.36572266   464989.31250000 369963.50000000 
0.15200    15256876.00000000 9842279.00000000 24496656.00000000 4043.15551758   455211.28125000 362163.59375000 
0.15300    15060952.00000000 9720632.00000000 24187428.00000000 3943.69287109   445571.84375000 354474.87500000 
0.15400    14867891.00000000 9600753.00000000 23883236.00000000 3845.97363281   436065.96875000 346889.40625000 
0.15500    14677669.00000000 9482690.00000000 23583316.00000000 3749.99511719   426691.50000000 339407.43750000 
0.15600    14490178.00000000 9366240.00000000 23287690.00000000 3655.71875000   417436.75000000 332019.65625000 
0.15700    14305272.00000000 9251359.00000000 22996120.00000000 3563.18261719   408311.56250000 324732.59375000 
0.15800    14122598.00000000 9137849.00000000 22707884.00000000 3472.30957031   399294.96875000 317537.50000000 
0.15900    13942157.00000000 9025740.00000000 22423254.00000000 3383.14038086   390399.68750000 310434.78125000 
0.16000    13763803.00000000 8914798.00000000 22141792.00000000 3295.63574219   381616.09375000 303414.65625000 
0.16100    13587425.00000000 8805132.00000000 21863536.00000000 3209.82592773   372943.71875000 296489.93750000 
0.16200    13412840.00000000 8696442.00000000 21587874.00000000 3125.70434570   364382.75000000 289649.00000000 
0.16300    13239903.00000000 8588816.00000000 21315026.00000000 3043.24804688   355928.65625000 282893.31250000 
0.16400    13068610.00000000 8482138.00000000 21044526.00000000 2962.47998047   347583.21875000 276220.46875000 
0.16500    12898944.00000000 8376324.00000000 20776472.00000000 2883.39843750   339342.40625000 269633.59375000 
0.16600    12730576.00000000 8271317.50000000 20510430.00000000 2806.03588867   331207.43750000 263130.87500000 
0.16700    12563624.00000000 8167158.50000000 20246452.00000000 2730.31201172   323178.18750000 256706.06250000 
0.16800    12397943.00000000 8063696.50000000 19984552.00000000 2656.30322266   315250.65625000 250368.26562500 
0.16900    12233542.00000000 7960973.50000000 19724676.00000000 2584.02563477   307435.65625000 244114.76562500 
0.17000    12070268.00000000 7858888.50000000 19466272.00000000 2513.45849609   299722.37500000 237942.48437500 
