# SAXS profile: number of points = 501, q_min = 0, q_max = 0.5, delta_q = 0.001
#    q    intensity 
0.00000    162234384.00000000 101202320.00000000 256270672.00000000 106851.34375000 8327191.50000000 6576784.50000000 
0.00100    162204768.00000000 101181824.00000000 256219056.00000000 106824.02343750 8325251.00000000 6575268.00000000 
0.00200    162109312.00000000 101121512.00000000 256066432.00000000 106740.12500000 8319393.00000000 6570684.50000000 
0.00300    161948576.00000000 101020816.00000000 255810064.00000000 106600.44531250 8309706.50000000 6563056.00000000 
0.00400    161719536.00000000 100880328.00000000 255451536.00000000 106406.18750000 8296081.00000000 6552392.00000000 
0.00500    161425856.00000000 100699808.00000000 254992000.00000000 106156.43750000 8278687.50000000 6538719.50000000 
0.00600    161067184.00000000 100478584.00000000 254428656.00000000 105852.75000000 8257502.50000000 6521987.50000000 
0.00700    160647024.00000000 100220040.00000000 253770416.00000000 105495.09375000 8232498.00000000 6502360.50000000 
0.00800    160158224.00000000 99921536.00000000 253010928.00000000 105083.28125000 8203787.50000000 6479765.50000000 
0.00900    159611888.00000000 99585632.00000000 252152448.00000000 104619.58593750 8171366.00000000 6454312.50000000 
0.01000    159004048.00000000 99211080.00000000 251198096.00000000 104104.13281250 8135336.00000000 6425964.50000000 
0.01100    158336320.00000000 98799272.00000000 250146992.00000000 103537.28906250 8095724.00000000 6394808.00000000 
0.01200    157608752.00000000 98350096.00000000 249002752.00000000 102921.05468750 8052590.50000000 6360933.50000000 
0.01300    156821040.00000000 97865384.00000000 247766384.00000000 102256.35937500 8006028.00000000 6324315.00000000 
0.01400    155973888.00000000 97344048.00000000 246440032.00000000 101544.30468750 7956131.50000000 6285058.50000000 
0.01500    155071728.00000000 96788176.00000000 245024400.00000000 100785.68750000 7902930.50000000 6243212.50000000 
0.01600    154116160.00000000 96198800.00000000 243523152.00000000 99982.45312500  7846526.50000000 6198895.50000000 
0.01700    153106336.00000000 95576384.00000000 241936704.00000000 99135.44531250  7787049.00000000 6152114.50000000 
0.01800    152042592.00000000 94921744.00000000 240266704.00000000 98246.75781250  7724554.00000000 6102954.50000000 
0.01900    150927664.00000000 94234560.00000000 238517984.00000000 97317.16406250  7659124.00000000 6051549.50000000 
0.02000    149766048.00000000 93517888.00000000 236691696.00000000 96348.87500000  7590909.50000000 5997870.00000000 
0.02100    148554720.00000000 92771616.00000000 234788912.00000000 95343.60937500  7519990.00000000 5942090.50000000 
0.02200    147298752.00000000 91996248.00000000 232815488.00000000 94302.00000000  7446510.00000000 5884246.50000000 
0.02300    145995088.00000000 91194328.00000000 230771600.00000000 93227.19531250  7370463.50000000 5824492.00000000 
0.02400    144652336.00000000 90364936.00000000 228659296.00000000 92120.21093750  7292133.50000000 5762841.00000000 
0.02500    143267248.00000000 89509496.00000000 226484064.00000000 90982.61718750  7211536.50000000 5699441.00000000 
0.02600    141843200.00000000 88631584.00000000 224246544.00000000 89817.26562500  7128802.00000000 5634340.50000000 
0.02700    140381328.00000000 87729328.00000000 221949952.00000000 88625.14062500  7044096.50000000 5567675.50000000 
0.02800    138886064.00000000 86805392.00000000 219598592.00000000 87408.61718750  6957469.00000000 5499537.00000000 
0.02900    137356240.00000000 85860408.00000000 217194320.00000000 86168.80468750  6869114.50000000 5429966.00000000 
0.03000    135794368.00000000 84896256.00000000 214740640.00000000 84907.65625000  6779070.50000000 5359127.00000000 
0.03100    134203040.00000000 83912896.00000000 212239216.00000000 83628.31250000  6687548.00000000 5287096.00000000 
0.03200    132585816.00000000 82913024.00000000 209695312.00000000 82331.16406250  6594673.00000000 5213976.50000000 
0.03300    130942472.00000000 81897688.00000000 207110576.00000000 81019.43750000  6500513.00000000 5139860.50000000 
0.03400    129274768.00000000 80866040.00000000 204488240.00000000 79694.25000000  6405199.50000000 5064821.50000000 
0.03500    127586224.00000000 79821744.00000000 201833008.00000000 78356.81250000  6308954.00000000 4988987.50000000 
0.03600    125876904.00000000 78764216.00000000 199143088.00000000 77010.59375000  6211722.50000000 4912504.50000000 
0.03700    124151456.00000000 77696448.00000000 196427872.00000000 75656.17187500  6113822.00000000 4835381.50000000 
0.03800    122409472.00000000 76619184.00000000 193688784.00000000 74295.96875000  6015272.00000000 4757757.00000000 
0.03900    120653848.00000000 75532192.00000000 190924352.00000000 72931.59375000  5916196.50000000 4679725.50000000 
0.04000    118886720.00000000 74437472.00000000 188143056.00000000 71564.33593750  5816715.00000000 4601333.50000000 
0.04100    117109240.00000000 73335976.00000000 185345072.00000000 70197.07031250  5716934.00000000 4522786.00000000 
0.04200    115324032.00000000 72229896.00000000 182533616.00000000 68830.01562500  5616966.50000000 4444010.00000000 
0.04300    113532520.00000000 71118928.00000000 179712816.00000000 67464.85937500  5517002.00000000 4365207.00000000 
0.04400    111736328.00000000 70004864.00000000 176882384.00000000 66104.34375000  5417031.00000000 4286437.50000000 
0.04500    109938040.00000000 68889128.00000000 174049968.00000000 64748.14453125  5317265.00000000 4207781.00000000 
0.04600    108137856.00000000 67773288.00000000 171215200.00000000 63399.48437500  5217678.00000000 4129292.50000000 
0.04700    106339160.00000000 66655920.00000000 168381440.00000000 62058.86718750  5118506.50000000 4051088.25000000 
0.04800    104543784.00000000 65540676.00000000 165550672.00000000 60727.77343750  5019792.50000000 3973236.00000000 
0.04900    102751248.00000000 64427680.00000000 162724784.00000000 59407.23437500  4921580.50000000 3895787.25000000 
0.05000    100964864.00000000 63317652.00000000 159908416.00000000 58098.99218750  4823998.50000000 3818843.25000000 
0.05100    99185656.00000000 62211604.00000000 157102896.00000000 56803.89453125  4727108.50000000 3742415.25000000 
0.05200    97414456.00000000 61110712.00000000 154310144.00000000 55522.44140625  4631009.50000000 3666633.50000000 
0.05300    95654032.00000000 60015296.00000000 151532800.00000000 54256.48828125  4535821.00000000 3591513.00000000 
0.05400    93904152.00000000 58926928.00000000 148772640.00000000 53006.74609375  4441527.00000000 3517106.00000000 
0.05500    92167336.00000000 57846144.00000000 146030816.00000000 51773.53125000  4348260.00000000 3443484.25000000 
0.05600    90443488.00000000 56773012.00000000 143312000.00000000 50558.34375000  4256035.50000000 3370719.25000000 
0.05700    88735944.00000000 55709280.00000000 140616800.00000000 49360.89843750  4164955.25000000 3298800.00000000 
0.05800    87043024.00000000 54655088.00000000 137945312.00000000 48183.16406250  4075053.50000000 3227826.50000000 
0.05900    85369072.00000000 53611576.00000000 135300480.00000000 47024.78125000  3986378.75000000 3157797.00000000 
0.06000    83712296.00000000 52578464.00000000 132684864.00000000 45886.83203125  3898930.50000000 3088762.50000000 
0.06100    82074776.00000000 51557292.00000000 130098880.00000000 44769.41796875  3812841.00000000 3020753.75000000 
0.06200    80457152.00000000 50548480.00000000 127544064.00000000 43672.63671875  3728108.50000000 2953819.50000000 
0.06300    78859896.00000000 49552152.00000000 125021264.00000000 42597.63281250  3644763.75000000 2887980.00000000 
0.06400    77284800.00000000 48569004.00000000 122531848.00000000 41544.15625000  3562818.50000000 2823225.00000000 
0.06500    75731704.00000000 47599484.00000000 120077424.00000000 40512.66015625  3482312.75000000 2759596.50000000 
0.06600    74201888.00000000 46643520.00000000 117659280.00000000 39502.85937500  3403289.00000000 2697139.00000000 
0.06700    72694848.00000000 45702516.00000000 115276976.00000000 38515.23828125  3325728.50000000 2635834.50000000 
0.06800    71211976.00000000 44775552.00000000 112931944.00000000 37549.69531250  3249655.75000000 2575699.50000000 
0.06900    69752976.00000000 43864328.00000000 110626712.00000000 36606.23437500  3175104.00000000 2516732.75000000 
0.07000    68318928.00000000 42967684.00000000 108358872.00000000 35684.87890625  3102048.25000000 2458963.75000000 
0.07100    66910676.00000000 42086864.00000000 106130744.00000000 34785.55078125  3030505.75000000 2402406.50000000 
0.07200    65527300.00000000 41221844.00000000 103942736.00000000 33907.61328125  2960488.75000000 2347010.75000000 
0.07300    64169540.00000000 40372112.00000000 101795344.00000000 33051.54296875  2891976.75000000 2292817.75000000 
0.07400    62837124.00000000 39538956.00000000 99688032.00000000 32217.09179688  2824983.75000000 2239802.50000000 
0.07500    61531608.00000000 38721708.00000000 97621576.00000000 31403.26171875  2759483.25000000 2187957.00000000 
0.07600    60251448.00000000 37920404.00000000 95595872.00000000 30610.43750000  2695457.25000000 2137302.00000000 
0.07700    58997440.00000000 37135964.00000000 93612512.00000000 29838.24023438  2632910.00000000 2087794.12500000 
0.07800    57769764.00000000 36367008.00000000 91669384.00000000 29085.82617188  2571805.25000000 2039451.12500000 
0.07900    56567616.00000000 35614920.00000000 89767768.00000000 28353.40429688  2512171.50000000 1992234.00000000 
0.08000    55391736.00000000 34878648.00000000 87907040.00000000 27640.24023438  2453944.00000000 1946146.00000000 
0.08100    54241572.00000000 34158456.00000000 86086424.00000000 26946.14062500  2397112.75000000 1901151.00000000 
0.08200    53116980.00000000 33454764.00000000 84307304.00000000 26270.30664062  2341645.00000000 1857245.50000000 
0.08300    52017996.00000000 32766716.00000000 82567736.00000000 25612.61132812  2287550.00000000 1814398.87500000 
0.08400    50944264.00000000 32094372.00000000 80868600.00000000 24972.44140625  2234753.25000000 1772613.00000000 
0.08500    49895464.00000000 31438402.00000000 79208296.00000000 24349.38671875  2183289.50000000 1731843.12500000 
0.08600    48871228.00000000 30797116.00000000 77587928.00000000 23742.92578125  2133085.00000000 1692074.75000000 
0.08700    47871560.00000000 30171522.00000000 76006536.00000000 23152.48242188  2084114.75000000 1653289.87500000 
0.08800    46896008.00000000 29561022.00000000 74462208.00000000 22577.71093750  2036362.50000000 1615458.12500000 
0.08900    45943888.00000000 28965432.00000000 72956272.00000000 22018.07031250  1989773.00000000 1578587.12500000 
0.09000    45015412.00000000 28384748.00000000 71487368.00000000 21473.11523438  1944348.75000000 1542594.37500000 
0.09100    44109424.00000000 27818468.00000000 70054960.00000000 20942.23437500  1900052.62500000 1507504.75000000 
0.09200    43226184.00000000 27266426.00000000 68658400.00000000 20425.21679688  1856837.25000000 1473270.75000000 
0.09300    42364928.00000000 26728510.00000000 67296536.00000000 19921.39453125  1814673.25000000 1439877.75000000 
0.09400    41525236.00000000 26204202.00000000 65969676.00000000 19430.05664062  1773533.75000000 1407300.00000000 
0.09500    40706656.00000000 25693248.00000000 64676232.00000000 18951.24023438  1733394.50000000 1375515.37500000 
0.09600    39909076.00000000 25195420.00000000 63415540.00000000 18484.13476562  1694230.37500000 1344490.37500000 
0.09700    39132052.00000000 24710570.00000000 62187656.00000000 18028.56445312  1655991.62500000 1314220.00000000 
0.09800    38374456.00000000 24238366.00000000 60991412.00000000 17584.03320312  1618663.37500000 1284652.00000000 
0.09900    37636368.00000000 23778576.00000000 59825900.00000000 17150.12890625  1582230.12500000 1255780.50000000 
0.10000    36916652.00000000 23330528.00000000 58690048.00000000 16726.34960938  1546627.50000000 1227595.75000000 
0.10100    36215732.00000000 22894378.00000000 57584140.00000000 16312.45605469  1511842.75000000 1200050.87500000 
0.10200    35532596.00000000 22469382.00000000 56506760.00000000 15908.24707031  1477857.87500000 1173143.12500000 
0.10300    34867000.00000000 22055774.00000000 55456996.00000000 15513.02734375  1444642.25000000 1146846.75000000 
0.10400    34218412.00000000 21652962.00000000 54434124.00000000 15126.68261719  1412173.00000000 1121136.62500000 
0.10500    33586464.00000000 21260510.00000000 53438068.00000000 14749.08984375  1380429.12500000 1096005.87500000 
0.10600    32970252.00000000 20878386.00000000 52467032.00000000 14379.60351562  1349366.37500000 1071408.87500000 
0.10700    32369664.00000000 20506138.00000000 51521120.00000000 14018.16015625  1318978.00000000 1047358.25000000 
0.10800    31784232.00000000 20143542.00000000 50599444.00000000 13664.62011719  1289251.62500000 1023829.31250000 
0.10900    31213354.00000000 19790312.00000000 49701024.00000000 13318.50683594  1260156.87500000 1000799.56250000 
0.11000    30656742.00000000 19445984.00000000 48825468.00000000 12979.68847656  1231668.12500000 978259.18750000 
0.11100    30114188.00000000 19110714.00000000 47971792.00000000 12648.02441406  1203778.37500000 956188.56250000 
0.11200    29584380.00000000 18783762.00000000 47139348.00000000 12323.29199219  1176472.75000000 934574.68750000 
0.11300    29068078.00000000 18464918.00000000 46327724.00000000 12005.37207031  1149719.50000000 913401.43750000 
0.11400    28564080.00000000 18154252.00000000 45535864.00000000 11694.02050781  1123523.25000000 892668.00000000 
0.11500    28072478.00000000 17851252.00000000 44763424.00000000 11389.15722656  1097839.87500000 872351.31250000 
0.11600    27592426.00000000 17555600.00000000 44009924.00000000 11090.80371094  1072694.50000000 852441.87500000 
0.11700    27123852.00000000 17267340.00000000 43274644.00000000 10798.55175781  1048045.81250000 832936.50000000 
0.11800    26666078.00000000 16985886.00000000 42556356.00000000 10512.45898438  1023881.68750000 813819.81250000 
0.11900    26219258.00000000 16711262.00000000 41855160.00000000 10232.47656250  1000203.31250000 795081.12500000 
0.12000    25782690.00000000 16443072.00000000 41170508.00000000 9958.40332031   976995.93750000 776718.50000000 
0.12100    25356054.00000000 16181242.00000000 40502052.00000000 9690.31445312   954261.75000000 758720.68750000 
0.12200    24939230.00000000 15925422.00000000 39848832.00000000 9428.02636719   931973.43750000 741078.93750000 
0.12300    24531786.00000000 15675459.00000000 39210100.00000000 9171.52343750   910133.87500000 723801.62500000 
0.12400    24133218.00000000 15431149.00000000 38586036.00000000 8920.78906250   888738.43750000 706857.68750000 
0.12500    23743738.00000000 15192304.00000000 37975332.00000000 8675.59277344   867767.43750000 690258.00000000 
0.12600    23362668.00000000 14958814.00000000 37378676.00000000 8436.23730469   847228.12500000 673992.31250000 
0.12700    22989872.00000000 14730365.00000000 36794652.00000000 8202.49511719   827106.50000000 658063.68750000 
0.12800    22625200.00000000 14506909.00000000 36223192.00000000 7974.18847656   807390.93750000 642453.81250000 
0.12900    22267918.00000000 14288107.00000000 35663840.00000000 7751.50439453   788097.75000000 627163.31250000 
0.13000    21918394.00000000 14073956.00000000 35116276.00000000 7534.40429688   769207.12500000 612200.18750000 
0.13100    21576062.00000000 13864089.00000000 34580072.00000000 7322.63574219   750713.50000000 597547.75000000 
0.13200    21240676.00000000 13658702.00000000 34054748.00000000 7116.40527344   732621.87500000 583205.25000000 
0.13300    20912520.00000000 13457328.00000000 33540272.00000000 6915.63330078   714919.75000000 569174.87500000 
0.13400    20590696.00000000 13260100.00000000 33036006.00000000 6720.17480469   697606.68750000 555444.31250000 
0.13500    20275302.00000000 13066599.00000000 32541738.00000000 6530.09375000   680671.00000000 542015.31250000 
0.13600    19966222.00000000 12876827.00000000 32057160.00000000 6345.32373047   664127.37500000 528884.50000000 
0.13700    19663342.00000000 12690699.00000000 31582072.00000000 6165.84033203   647953.31250000 516052.53125000 
0.13800    19365976.00000000 12508031.00000000 31115952.00000000 5991.58349609   632159.00000000 503511.40625000 
0.13900    19074626.00000000 12328752.00000000 30658462.00000000 5822.50781250   616730.56250000 491262.21875000 
0.14000    18788898.00000000 12152741.00000000 30209632.00000000 5658.50537109   601672.25000000 479297.21875000 
0.14100    18508384.00000000 11979860.00000000 29769056.00000000 5499.59521484   586971.93750000 467620.00000000 
0.14200    18233118.00000000 11810081.00000000 29336290.00000000 5345.73095703   572628.93750000 456218.78125000 
0.14300    17963088.00000000 11643193.00000000 28911724.00000000 5196.71923828   558647.87500000 445098.15625000 
0.14400    17697702.00000000 11479185.00000000 28494122.00000000 5052.61621094   545002.93750000 434247.62500000 
0.14500    17437316.00000000 11317853.00000000 28084158.00000000 4913.30859375   531719.43750000 423670.50000000 
0.14600    17181694.00000000 11159365.00000000 27681114.00000000 4778.70849609   518766.96875000 413358.96875000 
0.14700    16930544.00000000 11003344.00000000 27285262.00000000 4648.69335938   506156.40625000 403310.59375000 
0.14800    16683554.00000000 10849853.00000000 26895906.00000000 4523.21728516   493871.21875000 393521.09375000 
0.14900    16441024.00000000 10698762.00000000 26512926.00000000 4402.19677734   481910.43750000 383985.96875000 
0.15000    16202605.00000000 10550046.00000000 26136114.00000000 4285.43945312   470270.90625000 374701.31250000 
0.15100    15968245.00000000 10403568.00000000 25765530.00000000 4172.93505859   458943.40625000 365658.71875000 
0.15200    15737885.00000000 10259385.00000000 25400884.00000000 4064.59423828   447924.84375000 356866.40625000 
0.15300    15511217.00000000 10117317.00000000 25041684.00000000 3960.19262695   437210.25000000 348303.12500000 
0.15400    15288268.00000000 9977258.00000000 24688290.00000000 3859.69750977   426785.56250000 339972.21875000 
0.15500    15068862.00000000 9839240.00000000 24340198.00000000 3762.93505859   416654.21875000 331869.28125000 
0.15600    14852951.00000000 9703139.00000000 23997310.00000000 3669.88232422   406796.43750000 323984.31250000 
0.15700    14640544.00000000 9568857.00000000 23659562.00000000 3580.36132812   397218.59375000 316318.84375000 
0.15800    14431109.00000000 9436523.00000000 23326424.00000000 3494.15063477   387904.31250000 308860.59375000 
0.15900    14225163.00000000 9305890.00000000 22998264.00000000 3411.28198242   378855.09375000 301604.62500000 
0.16000    14022105.00000000 9176911.00000000 22674624.00000000 3331.53344727   370054.15625000 294550.31250000 
0.16100    13822098.00000000 9049703.00000000 22355656.00000000 3254.82275391   361497.93750000 287687.06250000 
0.16200    13625079.00000000 8924040.00000000 22040894.00000000 3180.98608398   353179.18750000 281010.59375000 
0.16300    13430739.00000000 8799920.00000000 21730196.00000000 3109.88867188   345090.87500000 274515.03125000 
0.16400    13239182.00000000 8677374.00000000 21423578.00000000 3041.42968750   337222.87500000 268194.25000000 
0.16500    13050218.00000000 8556254.00000000 21121154.00000000 2975.50439453   329568.68750000 262042.01562500 
0.16600    12863874.00000000 8436572.00000000 20822466.00000000 2911.95336914   322119.00000000 256051.17187500 
0.16700    12679862.00000000 8318258.50000000 20527286.00000000 2850.64208984   314870.56250000 250220.46875000 
0.16800    12498299.00000000 8201269.50000000 20235774.00000000 2791.50024414   307806.75000000 244533.12500000 
0.16900    12319071.00000000 8085695.50000000 19947930.00000000 2734.40039062   300928.93750000 238998.37500000 
0.17000    12142203.00000000 7971299.00000000 19663454.00000000 2679.17431641   294223.84375000 233596.50000000 
