# SAXS profile: number of points = 501, q_min = 0, q_max = 0.5, delta_q = 0.001
#    q    intensity 
0.00000    162235312.00000000 101201896.00000000 256270976.00000000 101763.82031250 8126526.00000000 6418312.50000000 
0.00100    162194032.00000000 101175480.00000000 256203904.00000000 101731.96875000 8124218.00000000 6416454.50000000 
0.00200    162069712.00000000 101095584.00000000 256002256.00000000 101635.78125000 8117054.50000000 6410856.00000000 
0.00300    161857344.00000000 100963432.00000000 255665968.00000000 101476.40625000 8105286.00000000 6401573.50000000 
0.00400    161558464.00000000 100778472.00000000 255196224.00000000 101252.67187500 8088837.00000000 6388633.50000000 
0.00500    161174896.00000000 100541424.00000000 254593456.00000000 100966.53125000 8067696.00000000 6371994.50000000 
0.00600    160706688.00000000 100251328.00000000 253856672.00000000 100617.86718750 8041981.00000000 6351745.50000000 
0.00700    160157216.00000000 99911464.00000000 252993296.00000000 100208.35937500 8011719.00000000 6327918.00000000 
0.00800    159521728.00000000 99521384.00000000 252000960.00000000 99737.64062500  7976981.50000000 6300551.50000000 
0.00900    158809968.00000000 99081088.00000000 250879552.00000000 99207.82812500  7937794.00000000 6269722.00000000 
0.01000    158019152.00000000 98591552.00000000 249634352.00000000 98618.60156250  7894258.50000000 6235442.00000000 
0.01100    157152272.00000000 98054048.00000000 248268528.00000000 97971.78906250  7846506.50000000 6197833.50000000 
0.01200    156207904.00000000 97468520.00000000 246780768.00000000 97270.67187500  7794573.00000000 6156940.00000000 
0.01300    155186800.00000000 96837520.00000000 245176704.00000000 96514.11718750  7738621.00000000 6112843.50000000 
0.01400    154094704.00000000 96161152.00000000 243458848.00000000 95705.10156250  7678704.00000000 6065699.00000000 
0.01500    152932976.00000000 95442176.00000000 241630336.00000000 94845.32031250  7614999.00000000 6015516.00000000 
0.01600    151703504.00000000 94680376.00000000 239693424.00000000 93935.49218750  7547561.00000000 5962399.50000000 
0.01700    150405840.00000000 93878208.00000000 237653648.00000000 92979.50781250  7476557.50000000 5906504.00000000 
0.01800    149046496.00000000 93035632.00000000 235513360.00000000 91976.85937500  7402149.50000000 5847910.00000000 
0.01900    147626976.00000000 92155832.00000000 233277568.00000000 90931.85156250  7324479.00000000 5786728.00000000 
0.02000    146146192.00000000 91239712.00000000 230948992.00000000 89845.43750000  7243651.50000000 5723075.00000000 
0.02100    144610608.00000000 90288888.00000000 228530816.00000000 88720.67968750  7159879.00000000 5657098.00000000 
0.02200    143020464.00000000 89304768.00000000 226030416.00000000 87557.94531250  7073239.50000000 5588834.50000000 
0.02300    141382112.00000000 88288992.00000000 223448848.00000000 86361.35156250  6983956.00000000 5518534.00000000 
0.02400    139695232.00000000 87243616.00000000 220792624.00000000 85133.10156250  6892195.50000000 5446251.00000000 
0.02500    137962656.00000000 86170936.00000000 218066288.00000000 83874.66406250  6798103.00000000 5372106.00000000 
0.02600    136189152.00000000 85071856.00000000 215274320.00000000 82588.62500000  6701886.00000000 5296325.50000000 
0.02700    134377040.00000000 83948296.00000000 212421168.00000000 81278.01562500  6603643.00000000 5218903.00000000 
0.02800    132528784.00000000 82802832.00000000 209509808.00000000 79945.10937500  6503609.50000000 5140105.00000000 
0.02900    130647928.00000000 81637144.00000000 206549456.00000000 78591.97656250  6401950.50000000 5060008.50000000 
0.03000    128737760.00000000 80453064.00000000 203540864.00000000 77220.54687500  6298810.50000000 4978740.00000000 
0.03100    126801000.00000000 79251944.00000000 200491712.00000000 75834.60937500  6194432.50000000 4896458.00000000 
0.03200    124839864.00000000 78036304.00000000 197403856.00000000 74435.25781250  6088878.00000000 4813314.50000000 
0.03300    122859472.00000000 76807832.00000000 194283744.00000000 73026.31250000  5982441.50000000 4729397.00000000 
0.03400    120862152.00000000 75567976.00000000 191134736.00000000 71608.48437500  5875183.00000000 4644881.00000000 
0.03500    118849376.00000000 74319584.00000000 187965616.00000000 70185.64843750  5767373.00000000 4559924.00000000 
0.03600    116824528.00000000 73064328.00000000 184777472.00000000 68759.10937500  5659159.50000000 4474587.50000000 
0.03700    114792648.00000000 71803984.00000000 181576256.00000000 67331.77343750  5550606.50000000 4389061.00000000 
0.03800    112754264.00000000 70539216.00000000 178363776.00000000 65904.70312500  5442000.00000000 4303427.00000000 
0.03900    110713872.00000000 69272184.00000000 175149632.00000000 64480.85546875  5333399.00000000 4217841.50000000 
0.04000    108674224.00000000 68005280.00000000 171933984.00000000 63061.70703125  5225019.00000000 4132351.75000000 
0.04100    106636232.00000000 66740104.00000000 168723232.00000000 61650.01171875  5117000.00000000 4047189.50000000 
0.04200    104604584.00000000 65478312.00000000 165519840.00000000 60247.44140625  5009488.00000000 3962370.25000000 
0.04300    102580320.00000000 64220972.00000000 162329440.00000000 58855.22656250  4902551.00000000 3878062.50000000 
0.04400    100566832.00000000 62970504.00000000 159154784.00000000 57475.82812500  4796415.00000000 3794379.75000000 
0.04500    98566488.00000000 61727592.00000000 156002768.00000000 56110.50781250  4691199.50000000 3711375.75000000 
0.04600    96581992.00000000 60493940.00000000 152873008.00000000 54760.66796875  4586912.00000000 3629151.50000000 
0.04700    94615080.00000000 59271256.00000000 149769904.00000000 53428.22656250  4483868.00000000 3547837.75000000 
0.04800    92666872.00000000 58060568.00000000 146698944.00000000 52114.60937500  4381967.50000000 3467484.00000000 
0.04900    90741136.00000000 56863592.00000000 143662992.00000000 50820.75000000  4281477.00000000 3388194.00000000 
0.05000    88839032.00000000 55680872.00000000 140661552.00000000 49547.30468750  4182412.75000000 3310026.00000000 
0.05100    86962512.00000000 54513424.00000000 137702864.00000000 48296.99218750  4084868.50000000 3233062.75000000 
0.05200    85112456.00000000 53363280.00000000 134784016.00000000 47069.21093750  3988912.75000000 3157361.25000000 
0.05300    83291328.00000000 52230492.00000000 131913160.00000000 45865.71484375  3894681.75000000 3082991.50000000 
0.05400    81501176.00000000 51116328.00000000 129087936.00000000 44686.85546875  3802201.25000000 3010010.50000000 
0.05500    79741600.00000000 50021884.00000000 126312800.00000000 43534.02343750  3711543.50000000 2938471.25000000 
0.05600    78015192.00000000 48947376.00000000 123589176.00000000 42406.72656250  3622772.25000000 2868429.50000000 
0.05700    76323056.00000000 47894528.00000000 120919184.00000000 41306.87109375  3535906.00000000 2799858.75000000 
0.05800    74666016.00000000 46862820.00000000 118303400.00000000 40233.41796875  3451041.25000000 2732861.75000000 
0.05900    73044088.00000000 45853384.00000000 115745256.00000000 39187.60937500  3368138.00000000 2667450.50000000 
0.06000    71459024.00000000 44866536.00000000 113244272.00000000 38168.99218750  3287305.00000000 2603638.00000000 
0.06100    69912528.00000000 43903588.00000000 110802192.00000000 37178.64062500  3208523.50000000 2541446.25000000 
0.06200    68402760.00000000 42963540.00000000 108419736.00000000 36216.25390625  3131823.75000000 2480900.00000000 
0.06300    66931516.00000000 42047412.00000000 106097712.00000000 35281.35156250  3057194.25000000 2421994.25000000 
0.06400    65498584.00000000 41155408.00000000 103836800.00000000 34374.38671875  2984664.00000000 2364724.75000000 
0.06500    64105368.00000000 40287412.00000000 101637552.00000000 33494.84765625  2914233.75000000 2309114.00000000 
0.06600    62750404.00000000 39443760.00000000 99499400.00000000 32642.60937500  2845853.75000000 2255152.75000000 
0.06700    61435304.00000000 38624956.00000000 97423120.00000000 31817.75781250  2779564.50000000 2202823.00000000 
0.06800    60158716.00000000 37829656.00000000 95408648.00000000 31019.14062500  2715327.75000000 2152093.25000000 
0.06900    58921032.00000000 37059104.00000000 93455480.00000000 30247.00195312  2653141.00000000 2102984.00000000 
0.07000    57721984.00000000 36312436.00000000 91563496.00000000 29500.75976562  2592923.50000000 2055448.00000000 
0.07100    56561528.00000000 35589648.00000000 89731072.00000000 28779.25390625  2534708.75000000 2009508.50000000 
0.07200    55438128.00000000 34890616.00000000 87959608.00000000 28082.68945312  2478397.00000000 1965050.75000000 
0.07300    54353048.00000000 34214980.00000000 86246224.00000000 27410.10351562  2424016.00000000 1922119.00000000 
0.07400    53304464.00000000 33562376.00000000 84591664.00000000 26760.82421875  2371486.50000000 1880664.00000000 
0.07500    52291476.00000000 32932192.00000000 82994496.00000000 26134.19335938  2320765.00000000 1840640.00000000 
0.07600    51314976.00000000 32324480.00000000 81453168.00000000 25529.47070312  2271824.25000000 1802000.25000000 
0.07700    50372496.00000000 31738592.00000000 79967304.00000000 24946.22851562  2224594.25000000 1764735.12500000 
0.07800    49463968.00000000 31173616.00000000 78534056.00000000 24383.02539062  2179030.25000000 1728759.50000000 
0.07900    48588704.00000000 30629720.00000000 77153400.00000000 23839.72070312  2135065.75000000 1694077.12500000 
0.08000    47745116.00000000 30105734.00000000 75824368.00000000 23315.26953125  2092640.25000000 1660611.50000000 
0.08100    46932992.00000000 29601204.00000000 74543560.00000000 22808.79687500  2051731.62500000 1628334.37500000 
0.08200    46150944.00000000 29115978.00000000 73311744.00000000 22319.64843750  2012247.25000000 1597185.00000000 
0.08300    45398360.00000000 28648754.00000000 72125512.00000000 21846.86718750  1974145.50000000 1567144.12500000 
0.08400    44673500.00000000 28199404.00000000 70983176.00000000 21389.89257812  1937355.87500000 1538111.37500000 
0.08500    43975848.00000000 27767106.00000000 69885256.00000000 20947.54296875  1901818.37500000 1510099.62500000 
0.08600    43304232.00000000 27350854.00000000 68827480.00000000 20519.40625000  1867473.00000000 1483024.25000000 
0.08700    42657320.00000000 26950448.00000000 67809536.00000000 20104.65039062  1834267.50000000 1456843.12500000 
0.08800    42033980.00000000 26565010.00000000 66829604.00000000 19702.36523438  1802140.25000000 1431509.37500000 
0.08900    41433256.00000000 26193812.00000000 65885044.00000000 19311.89648438  1771013.25000000 1406978.12500000 
0.09000    40854124.00000000 25836384.00000000 64975348.00000000 18932.63281250  1740850.00000000 1383212.25000000 
0.09100    40295464.00000000 25491438.00000000 64096984.00000000 18563.64648438  1711603.62500000 1360148.00000000 
0.09200    39756256.00000000 25159082.00000000 63249744.00000000 18204.34765625  1683173.62500000 1337747.87500000 
0.09300    39235004.00000000 24838146.00000000 62431748.00000000 17854.15625000  1655544.75000000 1315978.25000000 
0.09400    38730868.00000000 24527886.00000000 61640348.00000000 17512.47656250  1628639.50000000 1294785.50000000 
0.09500    38242788.00000000 24227686.00000000 60874860.00000000 17178.72070312  1602425.12500000 1274116.87500000 
0.09600    37769704.00000000 23937188.00000000 60132932.00000000 16852.25390625  1576835.75000000 1253962.00000000 
0.09700    37310940.00000000 23655394.00000000 59413836.00000000 16532.63867188  1551840.50000000 1234267.37500000 
0.09800    36864756.00000000 23381724.00000000 58715212.00000000 16219.30371094  1527380.37500000 1214998.62500000 
0.09900    36430932.00000000 23115854.00000000 58035092.00000000 15912.00292969  1503416.37500000 1196113.62500000 
0.10000    36008244.00000000 22856852.00000000 57373212.00000000 15610.09375000  1479908.75000000 1177581.87500000 
0.10100    35595560.00000000 22604254.00000000 56727304.00000000 15313.09667969  1456818.25000000 1159380.50000000 
0.10200    35192084.00000000 22357480.00000000 56096388.00000000 15020.82226562  1434098.75000000 1141476.25000000 
0.10300    34797240.00000000 22116200.00000000 55478512.00000000 14732.95898438  1411724.50000000 1123831.62500000 
0.10400    34409652.00000000 21879674.00000000 54872796.00000000 14449.12792969  1389667.00000000 1106441.62500000 
0.10500    34029848.00000000 21647528.00000000 54278352.00000000 14169.16601562  1367894.50000000 1089266.50000000 
0.10600    33655592.00000000 21419130.00000000 53693304.00000000 13892.85644531  1346371.75000000 1072282.75000000 
0.10700    33287090.00000000 21194118.00000000 53117288.00000000 13619.75878906  1325083.75000000 1055473.62500000 
0.10800    32923218.00000000 20972192.00000000 52548776.00000000 13349.89257812  1303987.75000000 1038828.43750000 
0.10900    32563846.00000000 20752788.00000000 51986812.00000000 13083.18750000  1283101.37500000 1022320.62500000 
0.11000    32208206.00000000 20535826.00000000 51430592.00000000 12819.34765625  1262368.37500000 1005939.37500000 
0.11100    31855346.00000000 20320738.00000000 50879400.00000000 12558.28613281  1241783.37500000 989679.25000000 
0.11200    31505516.00000000 20106864.00000000 50332184.00000000 12300.05371094  1221343.62500000 973518.12500000 
0.11300    31157928.00000000 19894612.00000000 49788544.00000000 12044.45605469  1201029.87500000 957450.43750000 
0.11400    30812090.00000000 19683210.00000000 49247796.00000000 11791.53125000  1180847.12500000 941471.06250000 
0.11500    30467854.00000000 19472790.00000000 48708784.00000000 11541.35156250  1160761.87500000 925571.43750000 
0.11600    30124758.00000000 19262802.00000000 48171828.00000000 11293.81347656  1140786.62500000 909744.93750000 
0.11700    29782518.00000000 19053356.00000000 47635916.00000000 11048.94824219  1120904.75000000 893992.87500000 
0.11800    29440936.00000000 18844054.00000000 47100672.00000000 10806.86816406  1101126.00000000 878298.43750000 
0.11900    29099622.00000000 18634696.00000000 46566220.00000000 10567.46484375  1081436.37500000 862680.93750000 
0.12000    28758668.00000000 18425362.00000000 46031256.00000000 10330.95800781  1061849.75000000 847129.93750000 
0.12100    28417758.00000000 18215940.00000000 45497016.00000000 10097.28320312  1042359.31250000 831649.37500000 
0.12200    28076766.00000000 18006118.00000000 44961764.00000000 9866.58886719   1022962.12500000 816243.93750000 
0.12300    27735888.00000000 17796138.00000000 44426136.00000000 9638.96679688   1003678.25000000 800906.37500000 
0.12400    27394582.00000000 17585706.00000000 43889912.00000000 9414.43359375   984493.37500000 785650.68750000 
0.12500    27053134.00000000 17374922.00000000 43353148.00000000 9193.16210938   965429.12500000 770480.68750000 
0.12600    26711544.00000000 17163784.00000000 42815524.00000000 8975.12109375   946492.75000000 755398.93750000 
0.12700    26369552.00000000 16952180.00000000 42277340.00000000 8760.51660156   927679.12500000 740409.37500000 
0.12800    26027406.00000000 16740286.00000000 41738540.00000000 8549.34472656   908998.06250000 725520.31250000 
0.12900    25685294.00000000 16528007.00000000 41199356.00000000 8341.73730469   890463.62500000 710743.56250000 
0.13000    25342998.00000000 16315359.00000000 40659368.00000000 8137.78320312   872074.93750000 696074.62500000 
0.13100    25000718.00000000 16102340.00000000 40118804.00000000 7937.47607422   853859.68750000 681523.56250000 
0.13200    24658826.00000000 15889426.00000000 39578896.00000000 7740.93847656   835805.62500000 667108.12500000 
0.13300    24316858.00000000 15676213.00000000 39039260.00000000 7548.26025391   817929.06250000 652820.75000000 
0.13400    23975696.00000000 15462890.00000000 38498852.00000000 7359.41015625   800245.31250000 638685.81250000 
0.13500    23634842.00000000 15249834.00000000 37959816.00000000 7174.64941406   782757.06250000 624697.81250000 
0.13600    23294562.00000000 15036864.00000000 37421292.00000000 6993.71972656   765466.18750000 610864.62500000 
0.13700    22955266.00000000 14824125.00000000 36883788.00000000 6816.87304688   748392.93750000 597201.37500000 
0.13800    22616930.00000000 14611690.00000000 36347208.00000000 6644.03710938   731535.37500000 583698.75000000 
0.13900    22279748.00000000 14399731.00000000 35812596.00000000 6475.26416016   714911.81250000 570377.50000000 
0.14000    21943852.00000000 14188455.00000000 35279576.00000000 6310.51171875   698519.62500000 557245.37500000 
0.14100    21609606.00000000 13977813.00000000 34748368.00000000 6149.82275391   682370.81250000 544294.31250000 
0.14200    21277080.00000000 13767823.00000000 34219896.00000000 5993.16601562   666468.87500000 531544.00000000 
0.14300    20946186.00000000 13558865.00000000 33693872.00000000 5840.51757812   650830.00000000 518989.50000000 
0.14400    20617266.00000000 13350910.00000000 33170788.00000000 5691.83105469   635438.25000000 506639.65625000 
0.14500    20290762.00000000 13144073.00000000 32650968.00000000 5547.10009766   620313.12500000 494499.71875000 
0.14600    19966514.00000000 12938516.00000000 32134426.00000000 5406.24511719   605456.68750000 482570.84375000 
0.14700    19644854.00000000 12734376.00000000 31621552.00000000 5269.18164062   590870.56250000 470854.56250000 
0.14800    19325636.00000000 12531551.00000000 31112450.00000000 5135.99511719   576562.31250000 459355.75000000 
0.14900    19009202.00000000 12330299.00000000 30607886.00000000 5006.43017578   562523.87500000 448077.46875000 
0.15000    18695774.00000000 12130787.00000000 30107864.00000000 4880.45019531   548763.87500000 437016.06250000 
0.15100    18385348.00000000 11932925.00000000 29611876.00000000 4758.02978516   535282.81250000 426179.12500000 
0.15200    18078184.00000000 11736893.00000000 29121134.00000000 4639.11914062   522080.50000000 415563.40625000 
0.15300    17774258.00000000 11542866.00000000 28635428.00000000 4523.50683594   509156.18750000 405176.46875000 
0.15400    17473860.00000000 11350709.00000000 28154666.00000000 4411.14501953   496507.75000000 395005.15625000 
0.15500    17176606.00000000 11160694.00000000 27679438.00000000 4301.93798828   484134.06250000 385058.46875000 
0.15600    16883144.00000000 10972683.00000000 27209766.00000000 4195.73535156   472033.37500000 375329.46875000 
0.15700    16593591.00000000 10787053.00000000 26745814.00000000 4092.57934570   460208.65625000 365820.12500000 
0.15800    16307495.00000000 10603500.00000000 26287346.00000000 3992.11303711   448647.78125000 356525.65625000 
0.15900    16025307.00000000 10422326.00000000 25835034.00000000 3894.47656250   437354.09375000 347446.03125000 
0.16000    15746814.00000000 10243490.00000000 25388648.00000000 3799.46069336   426318.62500000 338576.28125000 
0.16100    15472324.00000000 10067006.00000000 24948728.00000000 3706.93676758   415543.62500000 329916.90625000 
0.16200    15201739.00000000 9892921.00000000 24514560.00000000 3616.81347656   405019.87500000 321458.34375000 
0.16300    14935183.00000000 9721260.00000000 24086742.00000000 3528.98730469   394743.78125000 313204.87500000 
0.16400    14672592.00000000 9552082.00000000 23665128.00000000 3443.39599609   384710.96875000 305147.43750000 
0.16500    14413918.00000000 9385381.00000000 23249896.00000000 3359.88549805   374916.21875000 297282.96875000 
0.16600    14159270.00000000 9221211.00000000 22840908.00000000 3278.38354492   365354.56250000 289606.62500000 
0.16700    13908637.00000000 9059420.00000000 22438412.00000000 3198.77441406   356019.96875000 282114.53125000 
0.16800    13661962.00000000 8900287.00000000 22042062.00000000 3120.98291016   346902.03125000 274801.25000000 
0.16900    13419334.00000000 8743617.00000000 21652070.00000000 3044.97363281   338004.75000000 267670.37500000 
0.17000    13180698.00000000 8589279.00000000 21268450.00000000 2970.58251953   329314.25000000 260704.70312500 
