# SAXS profile: number of points = 501, q_min = 0, q_max = 0.5, delta_q = 0.001
#    q    intensity 
0.00000    162233264.00000000 101202176.00000000 256270608.00000000 104296.25000000 8227001.50000000 6497638.50000000 
0.00100    162190432.00000000 101172856.00000000 256197168.00000000 104259.79687500 8224378.00000000 6495602.00000000 
0.00200    162055232.00000000 101086144.00000000 255978000.00000000 104153.05468750 8216569.00000000 6489477.50000000 
0.00300    161825056.00000000 100942264.00000000 255612144.00000000 103974.21875000 8203599.00000000 6479252.50000000 
0.00400    161498416.00000000 100741208.00000000 255099952.00000000 103725.17187500 8185448.50000000 6465002.00000000 
0.00500    161077392.00000000 100482512.00000000 254442480.00000000 103405.03906250 8162203.00000000 6446721.50000000 
0.00600    160569184.00000000 100167904.00000000 253643872.00000000 103015.50781250 8133875.50000000 6424414.00000000 
0.00700    159965792.00000000 99798912.00000000 252703536.00000000 102558.16406250 8100604.50000000 6398250.00000000 
0.00800    159277376.00000000 99375672.00000000 251623904.00000000 102033.79687500 8062385.00000000 6368247.50000000 
0.00900    158506496.00000000 98898272.00000000 250407264.00000000 101443.05468750 8019381.50000000 6334394.00000000 
0.01000    157649920.00000000 98367320.00000000 249057184.00000000 100788.44531250 7971714.00000000 6296866.50000000 
0.01100    156705536.00000000 97784344.00000000 247575040.00000000 100070.89062500 7919369.50000000 6255731.50000000 
0.01200    155680848.00000000 97151976.00000000 245965552.00000000 99293.32812500  7862563.50000000 6211019.50000000 
0.01300    154577040.00000000 96469648.00000000 244231024.00000000 98456.02343750  7801473.50000000 6162992.50000000 
0.01400    153397808.00000000 95740664.00000000 242374752.00000000 97562.77343750  7736096.00000000 6111557.00000000 
0.01500    152144192.00000000 94966240.00000000 240403232.00000000 96614.29687500  7666758.50000000 6056994.00000000 
0.01600    150817600.00000000 94146448.00000000 238318000.00000000 95614.49218750  7593458.00000000 5999341.00000000 
0.01700    149423632.00000000 93284032.00000000 236125072.00000000 94564.71093750  7516498.50000000 5938806.50000000 
0.01800    147962496.00000000 92380896.00000000 233827024.00000000 93467.03906250  7435961.50000000 5875440.50000000 
0.01900    146438992.00000000 91439040.00000000 231432224.00000000 92326.48437500  7352109.50000000 5809427.50000000 
0.02000    144855296.00000000 90460176.00000000 228942272.00000000 91142.20312500  7265039.50000000 5740909.00000000 
0.02100    143215280.00000000 89446056.00000000 226362672.00000000 89919.72656250  7174960.50000000 5670018.50000000 
0.02200    141523328.00000000 88398080.00000000 223698384.00000000 88661.34375000  7082144.50000000 5596939.50000000 
0.02300    139780944.00000000 87319688.00000000 220956768.00000000 87368.59375000  6986719.00000000 5521770.00000000 
0.02400    137990800.00000000 86212120.00000000 218140448.00000000 86046.38281250  6888841.50000000 5444773.50000000 
0.02500    136158064.00000000 85077264.00000000 215257584.00000000 84696.47656250  6788816.00000000 5365989.00000000 
0.02600    134285296.00000000 83918168.00000000 212311392.00000000 83321.32031250  6686777.00000000 5285618.00000000 
0.02700    132378432.00000000 82736488.00000000 209307824.00000000 81924.88281250  6583031.00000000 5203909.50000000 
0.02800    130438240.00000000 81534512.00000000 206255664.00000000 80509.30468750  6477647.00000000 5120900.50000000 
0.02900    128469928.00000000 80314336.00000000 203155840.00000000 79078.10156250  6370942.00000000 5036889.50000000 
0.03000    126475768.00000000 79077568.00000000 200013968.00000000 77633.64062500  6263018.00000000 4951830.00000000 
0.03100    124460312.00000000 77828128.00000000 196838704.00000000 76179.94531250  6154160.00000000 4866134.50000000 
0.03200    122426392.00000000 76567216.00000000 193637680.00000000 74717.98437500  6044535.00000000 4779727.50000000 
0.03300    120377976.00000000 75297016.00000000 190410272.00000000 73251.41406250  5934386.00000000 4692884.50000000 
0.03400    118318032.00000000 74018856.00000000 187164016.00000000 71783.07031250  5823829.50000000 4605757.50000000 
0.03500    116250224.00000000 72734672.00000000 183904288.00000000 70314.54687500  5713050.50000000 4518438.00000000 
0.03600    114178320.00000000 71447184.00000000 180638896.00000000 68848.61718750  5602285.00000000 4431127.00000000 
0.03700    112103800.00000000 70158640.00000000 177367600.00000000 67388.82812500  5491686.50000000 4343883.50000000 
0.03800    110031152.00000000 68870920.00000000 174101952.00000000 65935.92187500  5381453.50000000 4256917.50000000 
0.03900    107963960.00000000 67585992.00000000 170842112.00000000 64492.69140625  5271672.50000000 4170331.25000000 
0.04000    105903808.00000000 66305004.00000000 167592160.00000000 63061.38281250  5162583.00000000 4084313.25000000 
0.04100    103855576.00000000 65030376.00000000 164362192.00000000 61643.71484375  5054301.00000000 3998849.75000000 
0.04200    101819288.00000000 63763864.00000000 161148992.00000000 60241.60937500  4947001.50000000 3914174.25000000 
0.04300    99799600.00000000 62507228.00000000 157959744.00000000 58857.58984375  4840788.50000000 3830360.25000000 
0.04400    97798144.00000000 61260568.00000000 154802192.00000000 57491.99218750  4735775.00000000 3747477.25000000 
0.04500    95817256.00000000 60027236.00000000 151676128.00000000 56146.90625000  4632106.00000000 3665624.25000000 
0.04600    93858600.00000000 58807644.00000000 148586000.00000000 54823.29687500  4529890.00000000 3584912.75000000 
0.04700    91926320.00000000 57603588.00000000 145533984.00000000 53522.80468750  4429215.00000000 3505452.50000000 
0.04800    90020976.00000000 56415352.00000000 142524944.00000000 52246.38281250  4330208.00000000 3427231.00000000 
0.04900    88143208.00000000 55244956.00000000 139561904.00000000 50994.95312500  4232914.00000000 3350396.50000000 
0.05000    86297768.00000000 54093820.00000000 136645872.00000000 49769.32031250  4137456.75000000 3274995.75000000 
0.05100    84483496.00000000 52962088.00000000 133780480.00000000 48570.59375000  4043861.50000000 3201058.50000000 
0.05200    82703528.00000000 51850776.00000000 130968160.00000000 47398.76171875  3952185.50000000 3128636.00000000 
0.05300    80957400.00000000 50761436.00000000 128209336.00000000 46254.46093750  3862526.50000000 3057787.50000000 
0.05400    79247920.00000000 49694164.00000000 125507872.00000000 45138.71093750  3774897.75000000 2988549.00000000 
0.05500    77575128.00000000 48649860.00000000 122864448.00000000 44051.03906250  3689339.25000000 2920910.75000000 
0.05600    75940600.00000000 47628272.00000000 120280144.00000000 42991.38281250  3605857.50000000 2854924.50000000 
0.05700    74343408.00000000 46630944.00000000 117755896.00000000 41960.69921875  3524506.75000000 2790634.00000000 
0.05800    72786312.00000000 45657864.00000000 115294192.00000000 40958.37500000  3445266.25000000 2728002.75000000 
0.05900    71268088.00000000 44709348.00000000 112894656.00000000 39984.14453125  3368173.25000000 2667058.50000000 
0.06000    69790720.00000000 43785584.00000000 110557296.00000000 39037.88281250  3293197.75000000 2607785.75000000 
0.06100    68352880.00000000 42887076.00000000 108283880.00000000 38119.83593750  3220367.00000000 2550211.50000000 
0.06200    66954768.00000000 42013280.00000000 106074128.00000000 37228.76562500  3149627.50000000 2494293.75000000 
0.06300    65596876.00000000 41164348.00000000 103926456.00000000 36364.07421875  3080950.25000000 2440010.25000000 
0.06400    64278752.00000000 40340432.00000000 101842592.00000000 35526.46484375  3014353.25000000 2387352.75000000 
0.06500    63000448.00000000 39541308.00000000 99821704.00000000 34714.01953125  2949799.25000000 2336308.25000000 
0.06600    61761984.00000000 38767048.00000000 97862384.00000000 33926.80468750  2887226.25000000 2286855.75000000 
0.06700    60561824.00000000 38017116.00000000 95965392.00000000 33164.26171875  2826608.00000000 2238928.00000000 
0.06800    59400564.00000000 37291732.00000000 94130080.00000000 32425.44531250  2767905.50000000 2192538.00000000 
0.06900    58276584.00000000 36589708.00000000 92352984.00000000 31709.56445312  2711056.75000000 2147596.25000000 
0.07000    57189848.00000000 35911084.00000000 90635248.00000000 31015.89453125  2656021.25000000 2104113.75000000 
0.07100    56139336.00000000 35255064.00000000 88975200.00000000 30343.34765625  2602747.75000000 2062019.12500000 
0.07200    55123912.00000000 34621684.00000000 87371328.00000000 29691.59179688  2551168.50000000 2021272.75000000 
0.07300    54143812.00000000 34010024.00000000 85822712.00000000 29059.62109375  2501219.75000000 1981835.87500000 
0.07400    53196916.00000000 33420192.00000000 84327256.00000000 28446.18750000  2452883.00000000 1943644.12500000 
0.07500    52282988.00000000 32850580.00000000 82884344.00000000 27851.05078125  2406023.00000000 1906663.25000000 
0.07600    51400340.00000000 32301306.00000000 81491816.00000000 27273.09179688  2360676.25000000 1870846.25000000 
0.07700    50548476.00000000 31771360.00000000 80148088.00000000 26711.53906250  2316674.00000000 1836128.62500000 
0.07800    49725676.00000000 31260114.00000000 78851312.00000000 26165.41210938  2274048.25000000 1802490.50000000 
0.07900    48931668.00000000 30766912.00000000 77599048.00000000 25634.33984375  2232670.25000000 1769843.37500000 
0.08000    48164432.00000000 30291010.00000000 76390376.00000000 25117.14062500  2192517.25000000 1738171.00000000 
0.08100    47423868.00000000 29832022.00000000 75224368.00000000 24613.16406250  2153503.75000000 1707399.62500000 
0.08200    46707984.00000000 29388780.00000000 74097456.00000000 24121.71093750  2115538.00000000 1677502.50000000 
0.08300    46015880.00000000 28960648.00000000 73008928.00000000 23642.19921875  2078651.87500000 1648412.75000000 
0.08400    45346724.00000000 28547202.00000000 71956200.00000000 23173.75976562  2042718.25000000 1620101.00000000 
0.08500    44698660.00000000 28147496.00000000 70939224.00000000 22715.77539062  2007672.62500000 1592520.87500000 
0.08600    44071420.00000000 27760960.00000000 69953328.00000000 22267.90429688  1973520.87500000 1565612.12500000 
0.08700    43463172.00000000 27386712.00000000 68999384.00000000 21829.18554688  1940159.37500000 1539341.87500000 
0.08800    42873132.00000000 27024066.00000000 68073432.00000000 21399.42382812  1907544.62500000 1513676.87500000 
0.08900    42300440.00000000 26672406.00000000 67176280.00000000 20977.82421875  1875628.50000000 1488565.12500000 
0.09000    41743868.00000000 26331100.00000000 66304984.00000000 20564.13476562  1844387.00000000 1463954.75000000 
0.09100    41201968.00000000 25999530.00000000 65456796.00000000 20158.08789062  1813762.12500000 1439879.62500000 
0.09200    40674388.00000000 25676886.00000000 64631564.00000000 19758.94726562  1783701.50000000 1416230.00000000 
0.09300    40160192.00000000 25362746.00000000 63826976.00000000 19366.54101562  1754184.50000000 1393000.12500000 
0.09400    39657648.00000000 25056418.00000000 63041872.00000000 18980.33789062  1725149.62500000 1370172.50000000 
0.09500    39166504.00000000 24757190.00000000 62275272.00000000 18600.34765625  1696589.87500000 1347691.62500000 
0.09600    38686156.00000000 24464946.00000000 61525144.00000000 18226.44335938  1668445.37500000 1325556.62500000 
0.09700    38215004.00000000 24178564.00000000 60790028.00000000 17858.13281250  1640737.75000000 1303739.00000000 
0.09800    37753016.00000000 23897962.00000000 60070132.00000000 17494.86328125  1613382.50000000 1282212.25000000 
0.09900    37299152.00000000 23622520.00000000 59362332.00000000 17137.22656250  1586400.37500000 1260971.50000000 
0.10000    36852924.00000000 23351748.00000000 58666912.00000000 16784.63867188  1559734.62500000 1239981.25000000 
0.10100    36413616.00000000 23085452.00000000 57981960.00000000 16437.14062500  1533380.62500000 1219225.37500000 
0.10200    35980196.00000000 22822854.00000000 57307348.00000000 16094.54589844  1507326.00000000 1198720.37500000 
0.10300    35552872.00000000 22563864.00000000 56641076.00000000 15756.92773438  1481551.25000000 1178402.37500000 
0.10400    35129876.00000000 22307990.00000000 55983208.00000000 15423.98925781  1456050.00000000 1158298.37500000 
0.10500    34712508.00000000 22054922.00000000 55332740.00000000 15095.98632812  1430812.62500000 1138392.75000000 
0.10600    34298996.00000000 21804390.00000000 54688460.00000000 14772.65625000  1405805.50000000 1118680.75000000 
0.10700    33889312.00000000 21556304.00000000 54050152.00000000 14454.25292969  1381067.75000000 1099135.12500000 
0.10800    33483310.00000000 21310004.00000000 53417304.00000000 14140.39648438  1356538.25000000 1079776.25000000 
0.10900    33080022.00000000 21065782.00000000 52789212.00000000 13831.41308594  1332242.62500000 1060586.12500000 
0.11000    32680020.00000000 20822876.00000000 52165356.00000000 13527.25390625  1308196.87500000 1041580.62500000 
0.11100    32282568.00000000 20581522.00000000 51545448.00000000 13227.91992188  1284365.75000000 1022731.06250000 
0.11200    31887266.00000000 20341362.00000000 50929108.00000000 12933.38476562  1260762.75000000 1004049.75000000 
0.11300    31494534.00000000 20102378.00000000 50315708.00000000 12643.87011719  1237393.25000000 985550.31250000 
0.11400    31103614.00000000 19864356.00000000 49705256.00000000 12359.32128906  1214242.00000000 967212.18750000 
0.11500    30714518.00000000 19627096.00000000 49097400.00000000 12079.62011719  1191327.12500000 949054.12500000 
0.11600    30327226.00000000 19390788.00000000 48491736.00000000 11804.95898438  1168651.62500000 931068.37500000 
0.11700    29941774.00000000 19155272.00000000 47889120.00000000 11535.10351562  1146211.87500000 913261.00000000 
0.11800    29558178.00000000 18920344.00000000 47287528.00000000 11270.44335938  1124005.25000000 895629.50000000 
0.11900    29175858.00000000 18686070.00000000 46688864.00000000 11010.87402344  1102050.25000000 878187.75000000 
0.12000    28795168.00000000 18452454.00000000 46092072.00000000 10756.19921875  1080349.75000000 860928.87500000 
0.12100    28416058.00000000 18219446.00000000 45497448.00000000 10506.74121094  1058895.50000000 843865.56250000 
0.12200    28038694.00000000 17987158.00000000 44904672.00000000 10262.12011719  1037695.18750000 827000.62500000 
0.12300    27662834.00000000 17755324.00000000 44313892.00000000 10022.66308594  1016766.00000000 810331.81250000 
0.12400    27288740.00000000 17524292.00000000 43725592.00000000 9788.15527344   996101.50000000 793867.81250000 
0.12500    26916170.00000000 17293954.00000000 43139360.00000000 9558.57812500   975702.93750000 777611.12500000 
0.12600    26545324.00000000 17064322.00000000 42555456.00000000 9334.13378906   955591.18750000 761564.81250000 
0.12700    26176472.00000000 16835440.00000000 41974056.00000000 9114.36621094   935747.93750000 745730.68750000 
0.12800    25809680.00000000 16607322.00000000 41395436.00000000 8899.53808594   916195.50000000 730124.25000000 
0.12900    25444614.00000000 16380253.00000000 40819120.00000000 8689.40527344   896922.00000000 714730.18750000 
0.13000    25081646.00000000 16154092.00000000 40245648.00000000 8484.07910156   877940.56250000 699559.93750000 
0.13100    24720918.00000000 15928700.00000000 39675612.00000000 8283.38964844   859239.81250000 684621.62500000 
0.13200    24362500.00000000 15704601.00000000 39108568.00000000 8087.20654297   840839.75000000 669905.37500000 
0.13300    24006512.00000000 15481646.00000000 38544192.00000000 7895.52343750   822728.68750000 655416.68750000 
0.13400    23652636.00000000 15259741.00000000 37983816.00000000 7708.21044922   804922.43750000 641164.31250000 
0.13500    23301544.00000000 15039245.00000000 37427120.00000000 7525.22851562   787402.31250000 627140.43750000 
0.13600    22952892.00000000 14819974.00000000 36874092.00000000 7346.49023438   770179.56250000 613350.43750000 
0.13700    22607192.00000000 14602111.00000000 36325012.00000000 7171.72753906   753248.12500000 599790.37500000 
0.13800    22263912.00000000 14385847.00000000 35779636.00000000 7000.92187500   736605.87500000 586463.18750000 
0.13900    21923750.00000000 14170977.00000000 35238740.00000000 6834.15380859   720262.56250000 573365.62500000 
0.14000    21586572.00000000 13957763.00000000 34702548.00000000 6671.10693359   704218.93750000 560504.43750000 
0.14100    21252400.00000000 13746207.00000000 34170840.00000000 6511.73388672   688449.87500000 547875.18750000 
0.14200    20921400.00000000 13536337.00000000 33643560.00000000 6355.93896484   672974.31250000 535467.00000000 
0.14300    20593652.00000000 13328331.00000000 33121068.00000000 6203.60986328   657779.68750000 523291.78125000 
0.14400    20268800.00000000 13122030.00000000 32603176.00000000 6054.61718750   642870.62500000 511333.53125000 
0.14500    19947602.00000000 12917687.00000000 32090754.00000000 5908.88232422   628238.93750000 499606.34375000 
0.14600    19629732.00000000 12715230.00000000 31583172.00000000 5766.40380859   613882.50000000 488094.15625000 
0.14700    19315146.00000000 12514812.00000000 31081186.00000000 5626.94677734   599794.87500000 476809.65625000 
0.14800    19004154.00000000 12316402.00000000 30584084.00000000 5490.41748047   585977.31250000 465730.84375000 
0.14900    18696468.00000000 12119952.00000000 30092392.00000000 5356.79199219   572419.87500000 454867.87500000 
0.15000    18392334.00000000 11925694.00000000 29606306.00000000 5226.01123047   559127.81250000 444215.68750000 
0.15100    18091768.00000000 11733498.00000000 29125536.00000000 5097.90820312   546085.31250000 433768.21875000 
0.15200    17794978.00000000 11543497.00000000 28650522.00000000 4972.54101562   533299.18750000 423525.12500000 
0.15300    17501700.00000000 11355754.00000000 28181154.00000000 4849.75000000   520754.34375000 413479.03125000 
0.15400    17211962.00000000 11170012.00000000 27717254.00000000 4729.44189453   508460.43750000 403632.09375000 
0.15500    16925830.00000000 10986650.00000000 27258992.00000000 4611.54785156   496398.71875000 393978.75000000 
0.15600    16643502.00000000 10805406.00000000 26806630.00000000 4496.12939453   484572.00000000 384513.56250000 
0.15700    16364773.00000000 10626542.00000000 26360118.00000000 4383.09765625   472978.75000000 375236.59375000 
0.15800    16089664.00000000 10449791.00000000 25919198.00000000 4272.26806641   461607.87500000 366137.34375000 
0.15900    15818164.00000000 10275365.00000000 25484006.00000000 4163.73925781   450458.87500000 357224.03125000 
0.16000    15550434.00000000 10103161.00000000 25054480.00000000 4057.41113281   439530.18750000 348483.46875000 
0.16100    15286205.00000000 9933291.00000000 24631102.00000000 3953.36743164   428816.96875000 339920.68750000 
0.16200    15025736.00000000 9765733.00000000 24213150.00000000 3851.41870117   418312.31250000 331524.09375000 
0.16300    14768849.00000000 9600348.00000000 23801048.00000000 3751.57763672   408011.06250000 323293.53125000 
0.16400    14515558.00000000 9437330.00000000 23394496.00000000 3653.87622070   397914.93750000 315232.09375000 
0.16500    14265856.00000000 9276428.00000000 22993814.00000000 3558.29614258   388019.65625000 307328.06250000 
0.16600    14019808.00000000 9117881.00000000 22599006.00000000 3464.76538086   378317.40625000 299584.65625000 
0.16700    13777186.00000000 8961571.00000000 22209384.00000000 3373.26904297   368812.43750000 291995.15625000 
0.16800    13537986.00000000 8807447.00000000 21825328.00000000 3283.81201172   359494.31250000 284554.03125000 
0.16900    13302589.00000000 8655600.00000000 21447424.00000000 3196.41430664   350365.71875000 277271.96875000 
0.17000    13070425.00000000 8505980.00000000 21074792.00000000 3111.01684570   341417.34375000 270128.96875000 
