# SAXS profile: number of points = 501, q_min = 0, q_max = 0.5, delta_q = 0.001
#    q    intensity 
0.00000    162230096.00000000 101202616.00000000 256269968.00000000 112074.22656250 8528296.00000000 6735635.50000000 
0.00100    162191616.00000000 101175496.00000000 256201968.00000000 112033.10937500 8525549.00000000 6733536.00000000 
0.00200    162068928.00000000 101095120.00000000 255999440.00000000 111912.08593750 8517408.00000000 6727085.50000000 
0.00300    161858896.00000000 100961544.00000000 255659232.00000000 111709.86718750 8503917.00000000 6716434.00000000 
0.00400    161551552.00000000 100774896.00000000 255183856.00000000 111428.21875000 8484971.00000000 6701575.50000000 
0.00500    161157808.00000000 100533520.00000000 254569088.00000000 111066.32031250 8460735.00000000 6682559.00000000 
0.00600    160684256.00000000 100241824.00000000 253826416.00000000 110626.65625000 8431201.00000000 6659333.50000000 
0.00700    160118352.00000000 99899352.00000000 252953584.00000000 110109.73437500 8396478.00000000 6632057.00000000 
0.00800    159477232.00000000 99506784.00000000 251948320.00000000 109517.35156250 8356682.00000000 6600753.00000000 
0.00900    158757872.00000000 99063744.00000000 250815200.00000000 108850.08593750 8311871.00000000 6565559.50000000 
0.01000    157958560.00000000 98569504.00000000 249556208.00000000 108111.18750000 8262111.50000000 6526450.50000000 
0.01100    157076400.00000000 98027680.00000000 248174384.00000000 107302.17968750 8207539.00000000 6483605.00000000 
0.01200    156117824.00000000 97438280.00000000 246673296.00000000 106424.55468750 8148419.50000000 6437076.50000000 
0.01300    155085408.00000000 96803728.00000000 245054496.00000000 105481.19531250 8084680.50000000 6386980.00000000 
0.01400    153982656.00000000 96124536.00000000 243321264.00000000 104474.10156250 8016559.00000000 6333464.00000000 
0.01500    152807360.00000000 95400928.00000000 241477824.00000000 103406.36718750 7944260.00000000 6276567.50000000 
0.01600    151564096.00000000 94635656.00000000 239526272.00000000 102280.25000000 7867887.50000000 6216522.00000000 
0.01700    150254432.00000000 93829792.00000000 237474032.00000000 101098.42187500 7787658.50000000 6153486.50000000 
0.01800    148882752.00000000 92985192.00000000 235320720.00000000 99864.89843750  7703707.00000000 6087475.50000000 
0.01900    147450240.00000000 92103224.00000000 233072320.00000000 98581.50000000  7616229.00000000 6018662.50000000 
0.02000    145960720.00000000 91185656.00000000 230731504.00000000 97252.17968750  7525485.50000000 5947249.50000000 
0.02100    144416576.00000000 90233080.00000000 228306816.00000000 95879.91406250  7431550.00000000 5873423.50000000 
0.02200    142819600.00000000 89248552.00000000 225799104.00000000 94467.66406250  7334719.00000000 5797218.00000000 
0.02300    141172160.00000000 88233208.00000000 223211840.00000000 93019.46875000  7235207.00000000 5718924.50000000 
0.02400    139480976.00000000 87189176.00000000 220554112.00000000 91537.73437500  7133128.00000000 5638615.00000000 
0.02500    137743776.00000000 86117640.00000000 217827680.00000000 90026.50781250  7028800.00000000 5556519.50000000 
0.02600    135969488.00000000 85021696.00000000 215037264.00000000 88489.20312500  6922313.00000000 5472690.00000000 
0.02700    134156784.00000000 83902296.00000000 212187920.00000000 86928.17187500  6814009.00000000 5387416.50000000 
0.02800    132309968.00000000 82761176.00000000 209284912.00000000 85346.72656250  6703991.50000000 5300803.00000000 
0.02900    130433208.00000000 81600600.00000000 206332800.00000000 83749.77343750  6592505.50000000 5213065.00000000 
0.03000    128527952.00000000 80423536.00000000 203336512.00000000 82139.72656250  6479809.00000000 5124286.00000000 
0.03100    126598624.00000000 79230312.00000000 200303616.00000000 80519.40625000  6366036.00000000 5034684.00000000 
0.03200    124647696.00000000 78023680.00000000 197232800.00000000 78892.19531250  6251429.00000000 4944415.00000000 
0.03300    122678184.00000000 76804584.00000000 194133712.00000000 77260.84375000  6136208.00000000 4853602.00000000 
0.03400    120693032.00000000 75574272.00000000 191009936.00000000 75628.41406250  6020481.50000000 4762434.00000000 
0.03500    118695960.00000000 74337584.00000000 187865184.00000000 73997.10156250  5904530.00000000 4671015.50000000 
0.03600    116688872.00000000 73093720.00000000 184705824.00000000 72371.71093750  5788476.50000000 4579578.50000000 
0.03700    114676224.00000000 71843920.00000000 181535232.00000000 70752.85156250  5672551.00000000 4488167.50000000 
0.03800    112658208.00000000 70593248.00000000 178356144.00000000 69142.88281250  5556868.50000000 4396946.00000000 
0.03900    110640112.00000000 69340384.00000000 175175296.00000000 67546.36718750  5441660.50000000 4306075.00000000 
0.04000    108623192.00000000 68087688.00000000 171994432.00000000 65963.52343750  5326998.00000000 4215648.00000000 
0.04100    106610464.00000000 66836780.00000000 168821024.00000000 64395.76562500  5213125.00000000 4125816.50000000 
0.04200    104604536.00000000 65589600.00000000 165657632.00000000 62848.12890625  5100135.50000000 4036660.00000000 
0.04300    102606968.00000000 64347344.00000000 162506960.00000000 61320.00781250  4988189.50000000 3948314.75000000 
0.04400    100620616.00000000 63111716.00000000 159373232.00000000 59813.76562500  4877394.50000000 3860857.75000000 
0.04500    98647408.00000000 61883340.00000000 156260960.00000000 58331.35546875  4767883.00000000 3774390.75000000 
0.04600    96689944.00000000 60663964.00000000 153170224.00000000 56873.65234375  4659759.00000000 3689035.75000000 
0.04700    94749008.00000000 59455336.00000000 150108208.00000000 55442.22265625  4553189.50000000 3604823.75000000 
0.04800    92828712.00000000 58257948.00000000 147076144.00000000 54038.39843750  4448133.00000000 3521861.00000000 
0.04900    90928664.00000000 57073400.00000000 144074944.00000000 52662.40234375  4344734.00000000 3440188.25000000 
0.05000    89051280.00000000 55902144.00000000 141110272.00000000 51315.96093750  4243175.50000000 3359916.25000000 
0.05100    87199032.00000000 54745708.00000000 138182304.00000000 49999.23046875  4143402.50000000 3281067.25000000 
0.05200    85371536.00000000 53604640.00000000 135294848.00000000 48712.58984375  4045497.00000000 3203705.25000000 
0.05300    83571008.00000000 52480152.00000000 132448632.00000000 47457.03515625  3949538.25000000 3127838.25000000 
0.05400    81799080.00000000 51373040.00000000 129647280.00000000 46232.71875000  3855599.00000000 3053539.50000000 
0.05500    80056560.00000000 50283708.00000000 126891672.00000000 45039.88281250  3763647.00000000 2980854.00000000 
0.05600    78344192.00000000 49212836.00000000 124184048.00000000 43878.19921875  3673754.75000000 2909748.50000000 
0.05700    76662456.00000000 48160972.00000000 121524024.00000000 42748.47265625  3585938.00000000 2840286.00000000 
0.05800    75014384.00000000 47128600.00000000 118914824.00000000 41649.75781250  3500222.50000000 2772468.00000000 
0.05900    73397080.00000000 46116996.00000000 116356088.00000000 40582.50390625  3416605.25000000 2706337.25000000 
0.06000    71814184.00000000 45125288.00000000 113851352.00000000 39546.06640625  3335077.00000000 2641816.25000000 
0.06100    70263344.00000000 44154896.00000000 111397648.00000000 38540.11718750  3255690.25000000 2578980.00000000 
0.06200    68748464.00000000 43205624.00000000 108998368.00000000 37563.89453125  3178357.75000000 2517776.75000000 
0.06300    67267360.00000000 42277344.00000000 106653912.00000000 36617.85156250  3103114.00000000 2458227.50000000 
0.06400    65820052.00000000 41370444.00000000 104362336.00000000 35700.47656250  3029958.25000000 2400314.50000000 
0.06500    64408452.00000000 40485556.00000000 102126952.00000000 34811.92578125  2958819.25000000 2343994.50000000 
0.06600    63031476.00000000 39622364.00000000 99946352.00000000 33950.41015625  2889688.75000000 2289264.25000000 
0.06700    61688488.00000000 38780916.00000000 97820752.00000000 33115.89453125  2822517.50000000 2236111.00000000 
0.06800    60380356.00000000 37960772.00000000 95749136.00000000 32308.37500000  2757318.00000000 2184484.50000000 
0.06900    59107312.00000000 37162424.00000000 93732992.00000000 31525.58203125  2694013.00000000 2134369.50000000 
0.07000    57867380.00000000 36385980.00000000 91770032.00000000 30767.67187500  2632568.25000000 2085738.87500000 
0.07100    56662052.00000000 35630252.00000000 89861512.00000000 30033.43554688  2572927.00000000 2038534.25000000 
0.07200    55490152.00000000 34895676.00000000 88006176.00000000 29322.23437500  2515077.75000000 1992751.25000000 
0.07300    54351536.00000000 34182816.00000000 86203600.00000000 28633.31445312  2458974.75000000 1948343.62500000 
0.07400    53245712.00000000 33490342.00000000 84452896.00000000 27965.49804688  2404544.50000000 1905222.75000000 
0.07500    52171732.00000000 32818204.00000000 82753416.00000000 27318.30859375  2351741.00000000 1863442.62500000 
0.07600    51129532.00000000 32165928.00000000 81104080.00000000 26690.70898438  2300497.50000000 1822900.62500000 
0.07700    50118208.00000000 31533550.00000000 79504544.00000000 26082.04101562  2250807.00000000 1783585.25000000 
0.07800    49137196.00000000 30920674.00000000 77953664.00000000 25491.31445312  2202589.00000000 1745415.25000000 
0.07900    48186356.00000000 30326722.00000000 76450096.00000000 24917.99023438  2155781.00000000 1708403.50000000 
0.08000    47264336.00000000 29750992.00000000 74994496.00000000 24361.14843750  2110353.75000000 1672462.12500000 
0.08100    46371452.00000000 29193710.00000000 73582464.00000000 23820.22460938  2066258.12500000 1637594.25000000 
0.08200    45506116.00000000 28654308.00000000 72215824.00000000 23294.28710938  2023442.87500000 1603737.25000000 
0.08300    44667568.00000000 28132252.00000000 70892896.00000000 22782.72656250  1981831.62500000 1570843.62500000 
0.08400    43855736.00000000 27626942.00000000 69611424.00000000 22285.14843750  1941432.50000000 1538898.87500000 
0.08500    43069868.00000000 27137962.00000000 68371440.00000000 21800.42773438  1902141.62500000 1507849.37500000 
0.08600    42308236.00000000 26665278.00000000 67171264.00000000 21328.61132812  1863927.75000000 1477660.62500000 
0.08700    41571592.00000000 26207802.00000000 66009672.00000000 20868.60546875  1826774.00000000 1448300.87500000 
0.08800    40857488.00000000 25765294.00000000 64885456.00000000 20420.15039062  1790623.87500000 1419733.50000000 
0.08900    40166648.00000000 25337310.00000000 63797656.00000000 19982.83789062  1755431.12500000 1391928.50000000 
0.09000    39497956.00000000 24923724.00000000 62745496.00000000 19556.04101562  1721140.37500000 1364855.00000000 
0.09100    38849908.00000000 24523466.00000000 61726556.00000000 19139.27343750  1687730.25000000 1338484.25000000 
0.09200    38222720.00000000 24136446.00000000 60741120.00000000 18732.36132812  1655168.25000000 1312773.87500000 
0.09300    37614796.00000000 23761940.00000000 59786392.00000000 18334.71875000  1623420.37500000 1287704.62500000 
0.09400    37026432.00000000 23399552.00000000 58862604.00000000 17946.09960938  1592440.37500000 1263264.12500000 
0.09500    36456256.00000000 23048854.00000000 57968100.00000000 17566.19335938  1562200.75000000 1239395.62500000 
0.09600    35903644.00000000 22709670.00000000 57101620.00000000 17194.93359375  1532684.75000000 1216098.12500000 
0.09700    35367764.00000000 22381138.00000000 56262312.00000000 16831.75781250  1503846.62500000 1193345.25000000 
0.09800    34848484.00000000 22062868.00000000 55448740.00000000 16476.19140625  1475664.75000000 1171111.75000000 
0.09900    34344368.00000000 21754816.00000000 54660268.00000000 16128.44042969  1448142.12500000 1149379.87500000 
0.10000    33855504.00000000 21456026.00000000 53895756.00000000 15788.17578125  1421212.37500000 1128124.00000000 
0.10100    33380658.00000000 21166380.00000000 53153416.00000000 15455.17578125  1394864.50000000 1107338.50000000 
0.10200    32919494.00000000 20885240.00000000 52433300.00000000 15129.13281250  1369093.00000000 1087006.62500000 
0.10300    32471886.00000000 20612534.00000000 51733824.00000000 14810.04199219  1343863.75000000 1067101.25000000 
0.10400    32036252.00000000 20347554.00000000 51053732.00000000 14497.84179688  1319162.87500000 1047605.37500000 
0.10500    31612688.00000000 20090152.00000000 50393184.00000000 14192.08984375  1294976.12500000 1028506.75000000 
0.10600    31200346.00000000 19839890.00000000 49749956.00000000 13892.85937500  1271282.62500000 1009809.31250000 
0.10700    30798786.00000000 19596212.00000000 49124644.00000000 13599.99804688  1248058.00000000 991472.43750000 
0.10800    30407504.00000000 19358844.00000000 48514364.00000000 13313.29101562  1225312.12500000 973500.93750000 
0.10900    30026084.00000000 19127526.00000000 47920048.00000000 13032.77539062  1202993.12500000 955885.56250000 
0.11000    29653732.00000000 18902096.00000000 47339800.00000000 12758.09375000  1181128.12500000 938606.25000000 
0.11100    29290038.00000000 18681872.00000000 46773620.00000000 12489.43164062  1159672.25000000 921658.87500000 
0.11200    28934810.00000000 18466748.00000000 46220484.00000000 12226.47949219  1138638.37500000 905039.68750000 
0.11300    28587108.00000000 18256322.00000000 45678956.00000000 11969.08593750  1118000.75000000 888726.43750000 
0.11400    28247150.00000000 18050456.00000000 45149288.00000000 11717.35839844  1097755.12500000 872719.43750000 
0.11500    27913950.00000000 17848496.00000000 44630288.00000000 11470.95507812  1077881.12500000 857008.56250000 
0.11600    27587090.00000000 17650496.00000000 44121240.00000000 11229.95019531  1058377.00000000 841580.87500000 
0.11700    27266680.00000000 17456250.00000000 43621948.00000000 10994.04687500  1039236.12500000 826434.12500000 
0.11800    26951840.00000000 17265296.00000000 43131152.00000000 10763.26757812  1020440.31250000 811561.43750000 
0.11900    26642156.00000000 17077458.00000000 42648540.00000000 10537.40234375  1001979.50000000 796951.31250000 
0.12000    26337728.00000000 16892596.00000000 42173508.00000000 10316.49707031  983851.75000000 782595.81250000 
0.12100    26038010.00000000 16710355.00000000 41705840.00000000 10100.22070312  966052.68750000 768495.75000000 
0.12200    25742518.00000000 16530473.00000000 41244196.00000000 9888.55273438   948547.06250000 754632.50000000 
0.12300    25451088.00000000 16352768.00000000 40789324.00000000 9681.46093750   931371.43750000 741009.37500000 
0.12400    25163462.00000000 16177251.00000000 40339260.00000000 9478.63183594   914466.25000000 727617.50000000 
0.12500    24879062.00000000 16003387.00000000 39894500.00000000 9279.99511719   897863.43750000 714450.75000000 
0.12600    24598348.00000000 15831471.00000000 39454656.00000000 9085.70312500   881531.81250000 701497.87500000 
0.12700    24319884.00000000 15660904.00000000 39018720.00000000 8895.21679688   865478.06250000 688763.81250000 
0.12800    24044156.00000000 15491756.00000000 38587032.00000000 8708.69433594   849693.06250000 676226.50000000 
0.12900    23771278.00000000 15323831.00000000 38158456.00000000 8525.93164062   834150.25000000 663900.18750000 
0.13000    23500274.00000000 15156928.00000000 37732876.00000000 8346.79589844   818868.56250000 651760.06250000 
0.13100    23231406.00000000 14990954.00000000 37310516.00000000 8171.14257812   803810.87500000 639806.25000000 
0.13200    22964492.00000000 14825855.00000000 36890252.00000000 7998.93701172   788997.31250000 628041.00000000 
0.13300    22699020.00000000 14661476.00000000 36472212.00000000 7830.05468750   774422.75000000 616446.75000000 
0.13400    22434996.00000000 14497711.00000000 36056172.00000000 7664.38085938   760054.68750000 605033.62500000 
0.13500    22172442.00000000 14334439.00000000 35642036.00000000 7501.74316406   745896.87500000 593778.56250000 
0.13600    21911030.00000000 14171616.00000000 35229068.00000000 7342.12548828   731957.37500000 582690.87500000 
0.13700    21650586.00000000 14009014.00000000 34818000.00000000 7185.45263672   718210.75000000 571759.62500000 
0.13800    21391052.00000000 13846848.00000000 34407680.00000000 7031.54248047   704660.00000000 560977.62500000 
0.13900    21132362.00000000 13684994.00000000 33998492.00000000 6880.36035156   691296.68750000 550355.62500000 
0.14000    20874726.00000000 13523364.00000000 33590132.00000000 6731.94677734   678125.75000000 539867.56250000 
0.14100    20617444.00000000 13361699.00000000 33182268.00000000 6586.02294922   665129.06250000 529522.18750000 
0.14200    20360894.00000000 13200258.00000000 32775164.00000000 6442.59814453   652310.62500000 519318.09375000 
0.14300    20104826.00000000 13038926.00000000 32368756.00000000 6301.68994141   639652.06250000 509246.56250000 
0.14400    19849322.00000000 12877598.00000000 31962644.00000000 6163.12060547   627168.87500000 499304.18750000 
0.14500    19594422.00000000 12716303.00000000 31557126.00000000 6026.95703125   614853.68750000 489486.09375000 
0.14600    19339740.00000000 12555171.00000000 31152034.00000000 5893.10937500   602681.56250000 479794.53125000 
0.14700    19085712.00000000 12394106.00000000 30747456.00000000 5761.47509766   590679.18750000 470227.93750000 
0.14800    18832252.00000000 12232967.00000000 30343322.00000000 5632.10449219   578819.18750000 460783.03125000 
0.14900    18578910.00000000 12072032.00000000 29939694.00000000 5504.91015625   567109.25000000 451446.46875000 
0.15000    18326224.00000000 11911250.00000000 29536432.00000000 5379.90722656   555553.87500000 442231.62500000 
0.15100    18073826.00000000 11750508.00000000 29133788.00000000 5257.03515625   544141.87500000 433128.37500000 
0.15200    17822380.00000000 11589966.00000000 28731774.00000000 5136.36083984   532872.00000000 424141.46875000 
0.15300    17571348.00000000 11429575.00000000 28330576.00000000 5017.76367188   521741.96875000 415265.37500000 
0.15400    17320792.00000000 11269496.00000000 27930052.00000000 4901.21972656   510756.15625000 406500.28125000 
0.15500    17071306.00000000 11109577.00000000 27530608.00000000 4786.90966797   499910.21875000 397844.96875000 
0.15600    16822104.00000000 10950099.00000000 27132004.00000000 4674.60546875   489201.90625000 389296.78125000 
0.15700    16574180.00000000 10791015.00000000 26734626.00000000 4564.38720703   478634.93750000 380861.65625000 
0.15800    16326701.00000000 10632221.00000000 26338292.00000000 4456.24804688   468205.68750000 372532.46875000 
0.15900    16080564.00000000 10473964.00000000 25943632.00000000 4350.29785156   457915.53125000 364316.65625000 
0.16000    15835100.00000000 10316331.00000000 25550478.00000000 4246.37255859   447759.71875000 356203.75000000 
0.16100    15591067.00000000 10159381.00000000 25158890.00000000 4144.52246094   437748.12500000 348205.90625000 
0.16200    15348102.00000000 10002924.00000000 24769120.00000000 4044.75585938   427870.34375000 340314.00000000 
0.16300    15106501.00000000 9847272.00000000 24381274.00000000 3947.07299805   418139.34375000 332530.46875000 
0.16400    14866308.00000000 9692413.00000000 23995656.00000000 3851.49096680   408541.59375000 324858.28125000 
0.16500    14627635.00000000 9538409.00000000 23612240.00000000 3757.93286133   399088.06250000 317299.84375000 
0.16600    14390437.00000000 9385377.00000000 23231340.00000000 3666.48291016   389771.62500000 309849.00000000 
0.16700    14154949.00000000 9233261.00000000 22852854.00000000 3577.06469727   380595.43750000 302507.46875000 
0.16800    13921265.00000000 9082231.00000000 22477160.00000000 3489.72070312   371563.68750000 295279.68750000 
0.16900    13689460.00000000 8932332.00000000 22104470.00000000 3404.40527344   362673.71875000 288168.90625000 
0.17000    13459475.00000000 8783576.00000000 21734742.00000000 3321.16406250   353926.68750000 281161.62500000 
