# SAXS profile: number of points = 501, q_min = 0, q_max = 0.5, delta_q = 0.001
#    q    intensity 
0.00000    162233744.00000000 101202032.00000000 256271632.00000000 110897.64843750 8483358.00000000 6700172.00000000 
0.00100    162206384.00000000 101183624.00000000 256224256.00000000 110869.46875000 8481493.00000000 6698654.50000000 
0.00200    162120656.00000000 101128624.00000000 256084048.00000000 110783.68750000 8475773.00000000 6694215.50000000 
0.00300    161975072.00000000 101037056.00000000 255852192.00000000 110641.63281250 8466324.00000000 6686821.00000000 
0.00400    161766080.00000000 100909648.00000000 255525408.00000000 110443.14843750 8453144.00000000 6676438.50000000 
0.00500    161497392.00000000 100745176.00000000 255106144.00000000 110187.74218750 8436247.00000000 6663112.00000000 
0.00600    161169808.00000000 100544528.00000000 254592960.00000000 109877.00000000 8415565.00000000 6646907.50000000 
0.00700    160785328.00000000 100308280.00000000 253991248.00000000 109511.21093750 8391248.00000000 6627776.50000000 
0.00800    160338896.00000000 100036696.00000000 253298544.00000000 109090.90625000 8363277.00000000 6605803.50000000 
0.00900    159839008.00000000 99730352.00000000 252516000.00000000 108616.30468750 8331671.00000000 6580991.00000000 
0.01000    159282896.00000000 99389704.00000000 251642800.00000000 108088.56250000 8296571.50000000 6553426.00000000 
0.01100    158670720.00000000 99013944.00000000 250683648.00000000 107509.11718750 8257892.50000000 6523056.00000000 
0.01200    158003056.00000000 98604376.00000000 249637472.00000000 106878.28125000 8215805.00000000 6490008.50000000 
0.01300    157282768.00000000 98160888.00000000 248505584.00000000 106197.07812500 8170331.00000000 6454266.50000000 
0.01400    156505376.00000000 97684528.00000000 247290528.00000000 105466.94531250 8121532.50000000 6415952.50000000 
0.01500    155675664.00000000 97175544.00000000 245993072.00000000 104688.85937500 8069485.00000000 6375072.00000000 
0.01600    154796784.00000000 96635320.00000000 244614032.00000000 103863.90625000 8014285.50000000 6331706.50000000 
0.01700    153868336.00000000 96064792.00000000 243155920.00000000 102993.69531250 7955982.00000000 6285889.00000000 
0.01800    152888736.00000000 95463920.00000000 241620736.00000000 102080.18750000 7894673.50000000 6237701.50000000 
0.01900    151859696.00000000 94832912.00000000 240010144.00000000 101124.02343750 7830464.00000000 6187266.00000000 
0.02000    150785568.00000000 94172416.00000000 238324752.00000000 100126.28125000 7763347.50000000 6134573.00000000 
0.02100    149665600.00000000 93484864.00000000 236569872.00000000 99089.81250000  7693595.00000000 6079728.00000000 
0.02200    148501680.00000000 92769784.00000000 234745168.00000000 98015.74218750  7621127.00000000 6022807.00000000 
0.02300    147294304.00000000 92028512.00000000 232853568.00000000 96905.27343750  7546218.50000000 5963887.00000000 
0.02400    146045632.00000000 91261176.00000000 230896400.00000000 95760.81250000  7468800.00000000 5903065.50000000 
0.02500    144756848.00000000 90469344.00000000 228874848.00000000 94583.55468750  7389056.00000000 5840408.50000000 
0.02600    143430816.00000000 89653752.00000000 226793776.00000000 93375.96093750  7307098.50000000 5775992.00000000 
0.02700    142066928.00000000 88815072.00000000 224655296.00000000 92138.87500000  7223078.50000000 5709899.00000000 
0.02800    140668176.00000000 87954832.00000000 222461264.00000000 90874.63281250  7136994.50000000 5642240.00000000 
0.02900    139235568.00000000 87072976.00000000 220213328.00000000 89585.67187500  7049070.50000000 5573092.00000000 
0.03000    137770832.00000000 86171256.00000000 217914448.00000000 88272.87500000  6959339.50000000 5502558.00000000 
0.03100    136274656.00000000 85250912.00000000 215567312.00000000 86938.86718750  6867978.00000000 5430703.00000000 
0.03200    134749968.00000000 84311936.00000000 213176640.00000000 85584.67968750  6775090.00000000 5357627.50000000 
0.03300    133199432.00000000 83357352.00000000 210739936.00000000 84212.92187500  6680751.50000000 5283461.00000000 
0.03400    131621216.00000000 82385328.00000000 208264656.00000000 82825.44531250  6585125.00000000 5208214.00000000 
0.03500    130020160.00000000 81398624.00000000 205750992.00000000 81423.32031250  6488296.00000000 5132053.50000000 
0.03600    128397400.00000000 80397888.00000000 203201776.00000000 80008.96093750  6390333.00000000 5055046.00000000 
0.03700    126753800.00000000 79384736.00000000 200619952.00000000 78584.35937500  6291500.50000000 4977214.50000000 
0.03800    125090752.00000000 78359632.00000000 198009488.00000000 77151.32812500  6191777.50000000 4898743.00000000 
0.03900    123411072.00000000 77323888.00000000 195371840.00000000 75711.00781250  6091347.50000000 4819716.50000000 
0.04000    121715256.00000000 76279032.00000000 192706784.00000000 74266.15625000  5990296.50000000 4740189.00000000 
0.04100    120006120.00000000 75224024.00000000 190020592.00000000 72817.82031250  5888714.50000000 4660213.50000000 
0.04200    118285432.00000000 74160592.00000000 187316064.00000000 71367.90625000  5786734.50000000 4579950.50000000 
0.04300    116553552.00000000 73091232.00000000 184593824.00000000 69917.42968750  5684485.00000000 4499389.50000000 
0.04400    114812232.00000000 72015376.00000000 181857888.00000000 68469.41406250  5581995.00000000 4418758.50000000 
0.04500    113064168.00000000 70935656.00000000 179109408.00000000 67023.49218750  5479495.50000000 4337978.50000000 
0.04600    111310640.00000000 69850976.00000000 176350368.00000000 65582.91406250  5376966.50000000 4257263.50000000 
0.04700    109552536.00000000 68764048.00000000 173586560.00000000 64148.07812500  5274578.00000000 4176577.75000000 
0.04800    107791552.00000000 67675208.00000000 170815152.00000000 62720.83593750  5172392.50000000 4096080.00000000 
0.04900    106029904.00000000 66584288.00000000 168044016.00000000 61302.58984375  5070520.50000000 4015784.75000000 
0.05000    104268672.00000000 65493800.00000000 165271424.00000000 59894.59765625  4969061.50000000 3935826.00000000 
0.05100    102508560.00000000 64404020.00000000 162501168.00000000 58498.11328125  4868052.00000000 3856239.75000000 
0.05200    100751344.00000000 63315852.00000000 159734352.00000000 57113.99218750  4767636.00000000 3777068.75000000 
0.05300    98999072.00000000 62229652.00000000 156976512.00000000 55744.02734375  4667860.00000000 3698416.50000000 
0.05400    97252320.00000000 61146800.00000000 154224832.00000000 54388.84375000  4568810.50000000 3620306.25000000 
0.05500    95512568.00000000 60068024.00000000 151486064.00000000 53049.55078125  4470575.50000000 3542826.50000000 
0.05600    93781312.00000000 58993980.00000000 148758208.00000000 51726.82421875  4373191.50000000 3466043.75000000 
0.05700    92059912.00000000 57925700.00000000 146045392.00000000 50421.89843750  4276746.00000000 3389956.75000000 
0.05800    90348736.00000000 56863248.00000000 143348512.00000000 49135.36328125  4181328.00000000 3314661.50000000 
0.05900    88649128.00000000 55807512.00000000 140670624.00000000 47868.06640625  4086964.25000000 3240207.25000000 
0.06000    86962320.00000000 54759848.00000000 138012016.00000000 46620.91796875  3993742.00000000 3166605.25000000 
0.06100    85290064.00000000 53720372.00000000 135374256.00000000 45394.39843750  3901640.00000000 3093922.75000000 
0.06200    83632360.00000000 52689400.00000000 132759944.00000000 44188.83984375  3810791.50000000 3022192.25000000 
0.06300    81990920.00000000 51668352.00000000 130170072.00000000 43005.26953125  3721202.25000000 2951459.75000000 
0.06400    80365320.00000000 50656632.00000000 127606104.00000000 41843.41796875  3632937.50000000 2881749.00000000 
0.06500    78757256.00000000 49655772.00000000 125068792.00000000 40704.28125000  3545973.25000000 2813074.25000000 
0.06600    77168080.00000000 48666216.00000000 122559744.00000000 39588.09375000  3460410.75000000 2745497.50000000 
0.06700    75598208.00000000 47687884.00000000 120080408.00000000 38494.81250000  3376296.25000000 2679006.25000000 
0.06800    74046592.00000000 46721512.00000000 117632208.00000000 37424.82812500  3293595.50000000 2613682.50000000 
0.06900    72516528.00000000 45767496.00000000 115215680.00000000 36378.64843750  3212344.25000000 2549484.75000000 
0.07000    71007192.00000000 44826248.00000000 112831328.00000000 35356.00390625  3132617.50000000 2486438.75000000 
0.07100    69519712.00000000 43898076.00000000 110481488.00000000 34356.83984375  3054368.00000000 2424591.50000000 
0.07200    68053336.00000000 42983328.00000000 108165424.00000000 33381.50781250  2977656.75000000 2363921.50000000 
0.07300    66610884.00000000 42082540.00000000 105885184.00000000 32430.04687500  2902451.75000000 2304460.25000000 
0.07400    65190540.00000000 41195272.00000000 103640688.00000000 31502.17578125  2828825.50000000 2246201.50000000 
0.07500    63793892.00000000 40322968.00000000 101432160.00000000 30597.45898438  2756721.75000000 2189190.25000000 
0.07600    62420888.00000000 39464508.00000000 99261520.00000000 29716.21093750  2686159.75000000 2133357.00000000 
0.07700    61071616.00000000 38620996.00000000 97128144.00000000 28858.31835938  2617155.75000000 2078755.87500000 
0.07800    59746752.00000000 37792720.00000000 95032472.00000000 28023.54296875  2549703.00000000 2025368.37500000 
0.07900    58446520.00000000 36978964.00000000 92975088.00000000 27211.15039062  2483787.25000000 1973197.87500000 
0.08000    57170688.00000000 36181028.00000000 90956768.00000000 26421.30859375  2419423.25000000 1922233.75000000 
0.08100    55919264.00000000 35397808.00000000 88977352.00000000 25653.51367188  2356593.25000000 1872484.87500000 
0.08200    54693580.00000000 34630456.00000000 87037184.00000000 24907.50976562  2295266.50000000 1823925.62500000 
0.08300    53491976.00000000 33878128.00000000 85136128.00000000 24182.80273438  2235449.25000000 1776551.12500000 
0.08400    52316052.00000000 33141302.00000000 83273896.00000000 23479.19335938  2177129.00000000 1730352.37500000 
0.08500    51164808.00000000 32420136.00000000 81451008.00000000 22796.34960938  2120250.00000000 1685302.00000000 
0.08600    50038244.00000000 31714238.00000000 79667896.00000000 22133.66601562  2064864.25000000 1641408.87500000 
0.08700    48936952.00000000 31023726.00000000 77923800.00000000 21490.67382812  2010906.37500000 1598656.25000000 
0.08800    47860416.00000000 30348724.00000000 76218648.00000000 20867.14062500  1958363.87500000 1557009.25000000 
0.08900    46808532.00000000 29689042.00000000 74552576.00000000 20262.41015625  1907206.87500000 1516471.00000000 
0.09000    45781212.00000000 29044436.00000000 72924736.00000000 19676.20312500  1857433.00000000 1477012.62500000 
0.09100    44777892.00000000 28415212.00000000 71335328.00000000 19107.97851562  1808988.37500000 1438611.00000000 
0.09200    43799032.00000000 27800730.00000000 69784416.00000000 18557.06054688  1761887.75000000 1401257.37500000 
0.09300    42843480.00000000 27201446.00000000 68271568.00000000 18023.27929688  1716074.25000000 1364940.87500000 
0.09400    41912012.00000000 26616886.00000000 66795188.00000000 17506.03906250  1671530.37500000 1329608.50000000 
0.09500    41003908.00000000 26046882.00000000 65356308.00000000 17004.83984375  1628215.25000000 1295262.75000000 
0.09600    40118680.00000000 25491436.00000000 63953816.00000000 16519.39843750  1586143.62500000 1261877.00000000 
0.09700    39256472.00000000 24950238.00000000 62587292.00000000 16048.96191406  1545243.12500000 1229427.00000000 
0.09800    38416500.00000000 24423052.00000000 61256480.00000000 15593.28515625  1505507.75000000 1197909.00000000 
0.09900    37599108.00000000 23909954.00000000 59961208.00000000 15151.76367188  1466899.75000000 1167289.00000000 
0.10000    36803376.00000000 23410376.00000000 58700056.00000000 14724.01074219  1429402.50000000 1137524.25000000 
0.10100    36029080.00000000 22924268.00000000 57472664.00000000 14309.59179688  1392978.62500000 1108625.62500000 
0.10200    35275732.00000000 22451568.00000000 56279376.00000000 13908.15136719  1357593.00000000 1080542.50000000 
0.10300    34543120.00000000 21991790.00000000 55118348.00000000 13518.97656250  1323239.50000000 1053279.37500000 
0.10400    33830648.00000000 21544804.00000000 53989704.00000000 13142.01171875  1289880.12500000 1026793.18750000 
0.10500    33138520.00000000 21110356.00000000 52892904.00000000 12776.67089844  1257474.75000000 1001079.50000000 
0.10600    32465470.00000000 20688062.00000000 51826524.00000000 12422.63574219  1226002.37500000 976094.87500000 
0.10700    31811994.00000000 20277992.00000000 50791092.00000000 12079.49414062  1195460.37500000 951834.68750000 
0.10800    31176768.00000000 19879732.00000000 49784716.00000000 11746.70507812  1165769.62500000 928269.68750000 
0.10900    30559938.00000000 19492778.00000000 48807660.00000000 11424.22851562  1136957.75000000 905387.31250000 
0.11000    29960776.00000000 19117086.00000000 47858912.00000000 11111.48828125  1108958.50000000 883163.31250000 
0.11100    29379090.00000000 18752458.00000000 46937452.00000000 10808.34179688  1081778.75000000 861578.06250000 
0.11200    28814616.00000000 18398496.00000000 46043260.00000000 10514.31738281  1055379.87500000 840611.12500000 
0.11300    28266192.00000000 18054962.00000000 45175188.00000000 10229.17187500  1029729.81250000 820238.00000000 
0.11400    27733978.00000000 17721722.00000000 44332608.00000000 9952.63574219   1004822.18750000 800448.31250000 
0.11500    27217670.00000000 17398220.00000000 43515316.00000000 9684.37011719   980614.12500000 781228.62500000 
0.11600    26716346.00000000 17084474.00000000 42721500.00000000 9424.14746094   957099.93750000 762538.31250000 
0.11700    26229956.00000000 16779962.00000000 41951916.00000000 9171.77441406   934250.43750000 744387.43750000 
0.11800    25757768.00000000 16484428.00000000 41204740.00000000 8926.88476562   912045.25000000 726739.93750000 
0.11900    25299470.00000000 16197773.00000000 40479840.00000000 8689.31347656   890459.50000000 709589.00000000 
0.12000    24854650.00000000 15919537.00000000 39776164.00000000 8458.76757812   869484.75000000 692914.56250000 
0.12100    24423314.00000000 15649818.00000000 39093728.00000000 8235.24707031   849089.68750000 676712.18750000 
0.12200    24004148.00000000 15387857.00000000 38430724.00000000 8018.24755859   829263.50000000 660941.87500000 
0.12300    23597578.00000000 15133764.00000000 37787752.00000000 7807.81787109   809979.93750000 645620.18750000 
0.12400    23202720.00000000 14887081.00000000 37163076.00000000 7603.66015625   791233.68750000 630707.50000000 
0.12500    22819162.00000000 14647552.00000000 36557044.00000000 7405.57421875   772993.81250000 616204.37500000 
0.12600    22446780.00000000 14415173.00000000 35968296.00000000 7213.61132812   755262.62500000 602099.87500000 
0.12700    22085174.00000000 14189342.00000000 35396936.00000000 7027.32421875   737996.87500000 588370.43750000 
0.12800    21733670.00000000 13970024.00000000 34841432.00000000 6846.64697266   721212.62500000 575010.31250000 
0.12900    21392118.00000000 13756907.00000000 34301504.00000000 6671.52490234   704874.68750000 562005.25000000 
0.13000    21060184.00000000 13549701.00000000 33776956.00000000 6501.76855469   688975.06250000 549342.87500000 
0.13100    20737178.00000000 13348357.00000000 33266658.00000000 6337.15625000   673489.68750000 537021.25000000 
0.13200    20423006.00000000 13152408.00000000 32770376.00000000 6177.63281250   658424.25000000 525020.00000000 
0.13300    20117448.00000000 12961788.00000000 32287582.00000000 6023.09960938   643752.00000000 513332.56250000 
0.13400    19819922.00000000 12776177.00000000 31817366.00000000 5873.41210938   629466.25000000 501948.15625000 
0.13500    19530302.00000000 12595453.00000000 31359424.00000000 5728.42431641   615553.18750000 490860.53125000 
0.13600    19247638.00000000 12419310.00000000 30913280.00000000 5588.01367188   601999.31250000 480058.59375000 
0.13700    18972560.00000000 12247715.00000000 30478420.00000000 5452.00439453   588792.81250000 469528.71875000 
0.13800    18704110.00000000 12080145.00000000 30054282.00000000 5320.43798828   575930.12500000 459266.06250000 
0.13900    18442084.00000000 11916689.00000000 29640168.00000000 5193.05761719   563398.56250000 449264.40625000 
0.14000    18186162.00000000 11757080.00000000 29235874.00000000 5069.83837891   551177.93750000 439513.93750000 
0.14100    17936306.00000000 11600978.00000000 28840888.00000000 4950.60546875   539270.37500000 430005.78125000 
0.14200    17692186.00000000 11448507.00000000 28454506.00000000 4835.37841797   527658.25000000 420734.34375000 
0.14300    17453274.00000000 11299208.00000000 28076660.00000000 4723.86083984   516340.43750000 411690.34375000 
0.14400    17219298.00000000 11152999.00000000 27706762.00000000 4616.01416016   505294.71875000 402862.12500000 
0.14500    16990352.00000000 11009720.00000000 27344302.00000000 4511.80029297   494524.06250000 394255.59375000 
0.14600    16765767.00000000 10869273.00000000 26989084.00000000 4411.09228516   484019.09375000 385849.03125000 
0.14700    16545731.00000000 10731328.00000000 26640674.00000000 4313.68701172   473766.84375000 377648.28125000 
0.14800    16329618.00000000 10595929.00000000 26298346.00000000 4219.56982422   463757.34375000 369635.40625000 
0.14900    16117405.00000000 10462857.00000000 25962176.00000000 4128.60937500   453984.06250000 361812.28125000 
0.15000    15908898.00000000 10331948.00000000 25631692.00000000 4040.70629883   444442.62500000 354170.87500000 
0.15100    15703784.00000000 10203049.00000000 25306244.00000000 3955.71997070   435122.21875000 346706.25000000 
0.15200    15501864.00000000 10076086.00000000 24986166.00000000 3873.61303711   426021.28125000 339408.75000000 
0.15300    15303139.00000000 9950960.00000000 24670430.00000000 3794.22070312   417121.34375000 332276.46875000 
0.15400    15107106.00000000 9827521.00000000 24359182.00000000 3717.41943359   408424.56250000 325296.56250000 
0.15500    14913810.00000000 9705586.00000000 24052084.00000000 3643.16162109   399918.78125000 318473.59375000 
0.15600    14722919.00000000 9585080.00000000 23748840.00000000 3571.30664062   391598.25000000 311797.25000000 
0.15700    14534523.00000000 9465994.00000000 23449212.00000000 3501.78784180   383462.21875000 305262.90625000 
0.15800    14348244.00000000 9348114.00000000 23152614.00000000 3434.43115234   375493.50000000 298863.09375000 
0.15900    14164094.00000000 9231407.00000000 22859244.00000000 3369.23803711   367695.62500000 292598.90625000 
0.16000    13981680.00000000 9115776.00000000 22568864.00000000 3306.02880859   360055.84375000 286461.56250000 
0.16100    13801245.00000000 9001103.00000000 22281118.00000000 3244.78051758   352573.84375000 280445.59375000 
0.16200    13622413.00000000 8887469.00000000 21995800.00000000 3185.30712891   345237.62500000 274548.96875000 
0.16300    13445103.00000000 8774572.00000000 21712750.00000000 3127.57690430   338046.28125000 268764.59375000 
0.16400    13269173.00000000 8662454.00000000 21431924.00000000 3071.48413086   330993.59375000 263089.71875000 
0.16500    13094628.00000000 8551025.00000000 21153104.00000000 3016.91796875   324070.96875000 257524.18750000 
0.16600    12921401.00000000 8440368.00000000 20875996.00000000 2963.86621094   317279.00000000 252056.28125000 
0.16700    12749236.00000000 8330250.00000000 20600626.00000000 2912.15014648   310607.93750000 246687.46875000 
0.16800    12578044.00000000 8220708.50000000 20326778.00000000 2861.73071289   304054.84375000 241410.42187500 
0.16900    12408104.00000000 8111765.50000000 20054494.00000000 2812.54809570   297617.25000000 236228.81250000 
0.17000    12239004.00000000 8003224.00000000 19783474.00000000 2764.55102539   291288.28125000 231132.84375000 
