# SAXS profile: number of points = 501, q_min = 0, q_max = 0.5, delta_q = 0.001
#    q    intensity 
0.00000    162236256.00000000 101201792.00000000 256272368.00000000 108341.74218750 8385065.50000000 6622496.00000000 
0.00100    162200656.00000000 101178680.00000000 256213024.00000000 108310.11718750 8382845.00000000 6620783.00000000 
0.00200    162092176.00000000 101110416.00000000 256038896.00000000 108214.61718750 8376207.50000000 6615556.00000000 
0.00300    161908320.00000000 100995968.00000000 255747696.00000000 108055.34375000 8365215.50000000 6606938.50000000 
0.00400    161648592.00000000 100835848.00000000 255340896.00000000 107833.68750000 8349797.00000000 6594784.50000000 
0.00500    161315008.00000000 100630464.00000000 254817552.00000000 107548.97656250 8330041.50000000 6579310.00000000 
0.00600    160908336.00000000 100379784.00000000 254178192.00000000 107202.51562500 8306002.50000000 6560344.50000000 
0.00700    160430704.00000000 100084720.00000000 253428256.00000000 106794.62500000 8277659.00000000 6538081.50000000 
0.00800    159875568.00000000 99746408.00000000 252565088.00000000 106325.98437500 8245098.00000000 6512469.00000000 
0.00900    159255184.00000000 99364184.00000000 251591568.00000000 105797.76562500 8208383.00000000 6483630.00000000 
0.01000    158566096.00000000 98939576.00000000 250507968.00000000 105210.41406250 8167524.50000000 6451539.50000000 
0.01100    157810720.00000000 98472752.00000000 249317104.00000000 104565.49218750 8122678.00000000 6416284.00000000 
0.01200    156985216.00000000 97963224.00000000 248021008.00000000 103864.89062500 8073902.50000000 6377897.00000000 
0.01300    156091984.00000000 97412824.00000000 246620256.00000000 103108.96875000 8021223.00000000 6336498.50000000 
0.01400    155134816.00000000 96823176.00000000 245118640.00000000 102299.27343750 7964784.00000000 6292120.50000000 
0.01500    154115968.00000000 96194176.00000000 243516400.00000000 101438.21875000 7904666.50000000 6244870.50000000 
0.01600    153034752.00000000 95528224.00000000 241820464.00000000 100526.82031250 7840979.00000000 6194786.50000000 
0.01700    151894752.00000000 94825016.00000000 240027600.00000000 99566.24218750  7773852.00000000 6142007.00000000 
0.01800    150694256.00000000 94085736.00000000 238144624.00000000 98558.92187500  7703350.50000000 6086575.50000000 
0.01900    149440864.00000000 93311696.00000000 236173952.00000000 97507.15625000  7629595.50000000 6028583.50000000 
0.02000    148131632.00000000 92503896.00000000 234116656.00000000 96411.87500000  7552808.50000000 5968181.50000000 
0.02100    146769696.00000000 91663840.00000000 231977296.00000000 95275.57031250  7472987.50000000 5905449.50000000 
0.02200    145357184.00000000 90793048.00000000 229760176.00000000 94100.00000000  7390348.00000000 5840451.00000000 
0.02300    143897840.00000000 89892032.00000000 227466176.00000000 92887.75781250  7305016.50000000 5773316.00000000 
0.02400    142391952.00000000 88962864.00000000 225099360.00000000 91640.77343750  7217074.50000000 5704177.00000000 
0.02500    140841552.00000000 88007152.00000000 222665344.00000000 90361.64843750  7126764.50000000 5633107.00000000 
0.02600    139250352.00000000 87023976.00000000 220165488.00000000 89052.14062500  7034149.50000000 5560253.00000000 
0.02700    137619968.00000000 86018656.00000000 217603088.00000000 87714.66406250  6939397.00000000 5485692.50000000 
0.02800    135953168.00000000 84988376.00000000 214983200.00000000 86350.48437500  6842631.50000000 5409571.00000000 
0.02900    134251744.00000000 83937344.00000000 212308960.00000000 84963.01562500  6744075.50000000 5332022.50000000 
0.03000    132518400.00000000 82867248.00000000 209583120.00000000 83555.15625000  6643809.50000000 5253139.00000000 
0.03100    130755160.00000000 81776944.00000000 206812352.00000000 82128.14843750  6542060.00000000 5173005.50000000 
0.03200    128964368.00000000 80671208.00000000 203996976.00000000 80683.79687500  6438870.00000000 5091816.00000000 
0.03300    127149648.00000000 79549664.00000000 201143712.00000000 79225.81250000  6334485.00000000 5009670.50000000 
0.03400    125312280.00000000 78413640.00000000 198254336.00000000 77755.23437500  6228989.00000000 4926628.50000000 
0.03500    123454448.00000000 77265208.00000000 195333024.00000000 76274.84375000  6122629.50000000 4842864.00000000 
0.03600    121579896.00000000 76105664.00000000 192383328.00000000 74787.10937500  6015411.50000000 4758474.00000000 
0.03700    119689760.00000000 74937232.00000000 189411264.00000000 73293.77343750  5907645.00000000 4673584.00000000 
0.03800    117787152.00000000 73760400.00000000 186417648.00000000 71797.15625000  5799344.50000000 4588311.00000000 
0.03900    115874200.00000000 72577352.00000000 183409840.00000000 70299.46093750  5690722.50000000 4502781.50000000 
0.04000    113952720.00000000 71388384.00000000 180385296.00000000 68802.58593750  5581906.00000000 4417057.00000000 
0.04100    112026344.00000000 70195832.00000000 177355504.00000000 67308.61718750  5473033.00000000 4331284.50000000 
0.04200    110096280.00000000 69000464.00000000 174316416.00000000 65818.90625000  5364189.00000000 4245535.00000000 
0.04300    108165240.00000000 67804104.00000000 171276656.00000000 64336.29296875  5255615.50000000 4159959.00000000 
0.04400    106234920.00000000 66608568.00000000 168238608.00000000 62861.79687500  5147373.00000000 4074646.25000000 
0.04500    104307128.00000000 65414832.00000000 165205072.00000000 61397.79296875  5039550.50000000 3989675.50000000 
0.04600    102385616.00000000 64223556.00000000 162179104.00000000 59945.82031250  4932327.50000000 3905151.75000000 
0.04700    100470392.00000000 63036600.00000000 159164256.00000000 58507.01171875  4825771.50000000 3821187.75000000 
0.04800    98565464.00000000 61854980.00000000 156162688.00000000 57083.21484375  4720100.50000000 3737804.00000000 
0.04900    96671592.00000000 60680016.00000000 153177392.00000000 55676.42187500  4615273.00000000 3655168.75000000 
0.05000    94789608.00000000 59512672.00000000 150214320.00000000 54287.08203125  4511493.00000000 3573321.75000000 
0.05100    92922960.00000000 58354488.00000000 147271504.00000000 52916.78125000  4408842.50000000 3492349.50000000 
0.05200    91071888.00000000 57205480.00000000 144355392.00000000 51566.73046875  4307375.00000000 3412323.00000000 
0.05300    89239688.00000000 56067500.00000000 141466864.00000000 50238.36718750  4207218.00000000 3333273.25000000 
0.05400    87425968.00000000 54941292.00000000 138609680.00000000 48932.18750000  4108415.00000000 3255314.75000000 
0.05500    85634024.00000000 53827992.00000000 135783600.00000000 47649.55468750  4011089.50000000 3178514.25000000 
0.05600    83863856.00000000 52727808.00000000 132993544.00000000 46391.17187500  3915282.75000000 3102874.75000000 
0.05700    82117160.00000000 51642100.00000000 130239896.00000000 45157.67968750  3821067.00000000 3028502.75000000 
0.05800    80395440.00000000 50571580.00000000 127524016.00000000 43950.03515625  3728493.75000000 2955401.25000000 
0.05900    78699720.00000000 49516960.00000000 124849056.00000000 42768.56640625  3637610.75000000 2883652.75000000 
0.06000    77030912.00000000 48478544.00000000 122216416.00000000 41613.89062500  3548520.50000000 2813250.25000000 
0.06100    75389984.00000000 47457788.00000000 119627816.00000000 40486.45312500  3461194.50000000 2744278.50000000 
0.06200    73777968.00000000 46454028.00000000 117084576.00000000 39386.71093750  3375719.25000000 2676737.50000000 
0.06300    72195912.00000000 45469120.00000000 114586896.00000000 38314.75781250  3292112.75000000 2610688.50000000 
0.06400    70643768.00000000 44502136.00000000 112137048.00000000 37270.72265625  3210387.75000000 2546086.25000000 
0.06500    69123008.00000000 43554312.00000000 109735464.00000000 36254.96875000  3130575.00000000 2483020.25000000 
0.06600    67633656.00000000 42626288.00000000 107383448.00000000 35267.32812500  3052712.25000000 2421470.25000000 
0.06700    66176352.00000000 41717672.00000000 105082648.00000000 34307.67187500  2976805.50000000 2361445.00000000 
0.06800    64751528.00000000 40828828.00000000 102831832.00000000 33376.37500000  2902848.00000000 2302961.25000000 
0.06900    63359276.00000000 39960608.00000000 100632600.00000000 32472.78906250  2830837.75000000 2245999.50000000 
0.07000    62000080.00000000 39112512.00000000 98485096.00000000 31596.83203125  2760796.25000000 2190607.00000000 
0.07100    60674000.00000000 38284596.00000000 96389752.00000000 30748.27343750  2692729.00000000 2136734.00000000 
0.07200    59380892.00000000 37477384.00000000 94346248.00000000 29926.68750000  2626558.50000000 2084381.50000000 
0.07300    58121084.00000000 36690784.00000000 92355104.00000000 29132.05664062  2562339.50000000 2033563.75000000 
0.07400    56895352.00000000 35924796.00000000 90416248.00000000 28363.40234375  2500031.00000000 1984249.75000000 
0.07500    55701828.00000000 35178904.00000000 88529328.00000000 27620.67578125  2439602.50000000 1936415.37500000 
0.07600    54541428.00000000 34453396.00000000 86695048.00000000 26902.80859375  2381043.75000000 1890060.62500000 
0.07700    53414036.00000000 33748672.00000000 84911944.00000000 26209.86718750  2324321.75000000 1845136.87500000 
0.07800    52318656.00000000 33063802.00000000 83180312.00000000 25540.92187500  2269409.25000000 1801661.37500000 
0.07900    51255660.00000000 32399054.00000000 81498056.00000000 24895.26562500  2216295.00000000 1759564.62500000 
0.08000    50224204.00000000 31753570.00000000 79866328.00000000 24272.51171875  2164869.75000000 1718848.87500000 
0.08100    49224312.00000000 31128000.00000000 78284080.00000000 23671.92578125  2115147.50000000 1679467.37500000 
0.08200    48254964.00000000 30520960.00000000 76750232.00000000 23092.63671875  2067095.12500000 1641407.00000000 
0.08300    47315500.00000000 29933290.00000000 75264552.00000000 22534.15234375  2020666.12500000 1604609.00000000 
0.08400    46406200.00000000 29363968.00000000 73824472.00000000 21995.21484375  1975788.25000000 1569052.50000000 
0.08500    45525744.00000000 28812728.00000000 72431176.00000000 21475.82812500  1932456.25000000 1534703.87500000 
0.08600    44673180.00000000 28278978.00000000 71082208.00000000 20974.79882812  1890576.75000000 1501519.00000000 
0.08700    43848956.00000000 27762726.00000000 69776744.00000000 20491.52539062  1850137.37500000 1469472.12500000 
0.08800    43051456.00000000 27263288.00000000 68514648.00000000 20025.15429688  1811082.12500000 1438516.75000000 
0.08900    42280424.00000000 26780364.00000000 67294528.00000000 19575.13671875  1773340.37500000 1408606.62500000 
0.09000    41534716.00000000 26313360.00000000 66113912.00000000 19140.50390625  1736888.87500000 1379714.50000000 
0.09100    40813676.00000000 25862016.00000000 64972924.00000000 18720.59960938  1701666.00000000 1351793.75000000 
0.09200    40116484.00000000 25425484.00000000 63869580.00000000 18314.73828125  1667607.00000000 1324810.62500000 
0.09300    39442780.00000000 25003492.00000000 62802812.00000000 17922.13671875  1634692.75000000 1298722.12500000 
0.09400    38791376.00000000 24595700.00000000 61772144.00000000 17542.23242188  1602850.75000000 1273486.75000000 
0.09500    38161092.00000000 24201268.00000000 60774824.00000000 17174.29687500  1572031.37500000 1249055.62500000 
0.09600    37551724.00000000 23819972.00000000 59810540.00000000 16817.54101562  1542193.62500000 1225407.75000000 
0.09700    36962440.00000000 23451244.00000000 58878284.00000000 16471.40039062  1513287.00000000 1202503.62500000 
0.09800    36391756.00000000 23094242.00000000 57975688.00000000 16135.37109375  1485260.50000000 1180292.62500000 
0.09900    35839580.00000000 22749172.00000000 57102332.00000000 15808.85839844  1458073.25000000 1158751.75000000 
0.10000    35304912.00000000 22414740.00000000 56256552.00000000 15490.95898438  1431664.50000000 1137822.50000000 
0.10100    34786536.00000000 22090894.00000000 55437392.00000000 15181.42773438  1406002.75000000 1117499.25000000 
0.10200    34284268.00000000 21777230.00000000 54642932.00000000 14879.58593750  1381051.37500000 1097732.00000000 
0.10300    33796732.00000000 21472940.00000000 53872764.00000000 14585.13867188  1356751.50000000 1078471.00000000 
0.10400    33323756.00000000 21177528.00000000 53124724.00000000 14297.45605469  1333056.62500000 1059717.50000000 
0.10500    32864086.00000000 20890756.00000000 52398800.00000000 14016.19335938  1309962.62500000 1041416.56250000 
0.10600    32417008.00000000 20612144.00000000 51692680.00000000 13740.66699219  1287389.37500000 1023551.06250000 
0.10700    31982054.00000000 20341034.00000000 51006140.00000000 13470.88769531  1265337.25000000 1006089.18750000 
0.10800    31558568.00000000 20077192.00000000 50336780.00000000 13206.31347656  1243758.25000000 988989.50000000 
0.10900    31145470.00000000 19819968.00000000 49684892.00000000 12946.43359375  1222606.00000000 972252.50000000 
0.11000    30742312.00000000 19569166.00000000 49048988.00000000 12691.22265625  1201862.12500000 955836.93750000 
0.11100    30348240.00000000 19324220.00000000 48427360.00000000 12440.30566406  1181508.62500000 939712.31250000 
0.11200    29963112.00000000 19084762.00000000 47819828.00000000 12193.26367188  1161505.50000000 923876.62500000 
0.11300    29585984.00000000 18850470.00000000 47225268.00000000 11950.01953125  1141813.37500000 908294.50000000 
0.11400    29216200.00000000 18620974.00000000 46642564.00000000 11710.52246094  1122442.00000000 892954.06250000 
0.11500    28853532.00000000 18395826.00000000 46070628.00000000 11474.23730469  1103344.62500000 877836.93750000 
0.11600    28497246.00000000 18174816.00000000 45509360.00000000 11241.27148438  1084511.25000000 862922.25000000 
0.11700    28146958.00000000 17957604.00000000 44957708.00000000 11011.34863281  1065920.37500000 848199.87500000 
0.11800    27801982.00000000 17743760.00000000 44414264.00000000 10784.42285156  1047552.43750000 833655.50000000 
0.11900    27462086.00000000 17533030.00000000 43879136.00000000 10560.30761719  1029386.87500000 819269.06250000 
0.12000    27126702.00000000 17325504.00000000 43351224.00000000 10339.02148438  1011422.37500000 805042.56250000 
0.12100    26795658.00000000 17120444.00000000 42830116.00000000 10120.49023438  993644.12500000 790963.06250000 
0.12200    26468414.00000000 16917796.00000000 42314840.00000000 9904.67382812   976036.12500000 777013.43750000 
0.12300    26144750.00000000 16717426.00000000 41805248.00000000 9691.45996094   958594.56250000 763189.93750000 
0.12400    25824304.00000000 16518998.00000000 41300832.00000000 9480.78808594   941307.00000000 749489.18750000 
0.12500    25506662.00000000 16322340.00000000 40800896.00000000 9272.88964844   924166.00000000 735903.12500000 
0.12600    25191660.00000000 16127412.00000000 40305168.00000000 9067.54199219   907171.56250000 722430.87500000 
0.12700    24879256.00000000 15933883.00000000 39813572.00000000 8864.79687500   890317.93750000 709065.18750000 
0.12800    24568918.00000000 15741708.00000000 39324892.00000000 8664.79882812   873602.43750000 695796.25000000 
0.12900    24260808.00000000 15550759.00000000 38839620.00000000 8467.41601562   857023.93750000 682636.31250000 
0.13000    23954430.00000000 15360950.00000000 38356884.00000000 8272.69238281   840573.12500000 669577.00000000 
0.13100    23649590.00000000 15172020.00000000 37876648.00000000 8080.77294922   824248.31250000 656617.06250000 
0.13200    23346482.00000000 14984117.00000000 37399280.00000000 7891.65136719   808058.62500000 643765.62500000 
0.13300    23044732.00000000 14796931.00000000 36923792.00000000 7705.41162109   792012.68750000 631008.50000000 
0.13400    22744422.00000000 14610527.00000000 36450356.00000000 7521.99023438   776096.62500000 618355.12500000 
0.13500    22445306.00000000 14424864.00000000 35978936.00000000 7341.52246094   760329.06250000 605812.06250000 
0.13600    22147534.00000000 14239743.00000000 35509216.00000000 7164.06347656   744692.00000000 593377.00000000 
0.13700    21850902.00000000 14055299.00000000 35041324.00000000 6989.60742188   729198.31250000 581046.87500000 
0.13800    21555420.00000000 13871476.00000000 34575032.00000000 6818.24755859   713861.93750000 568833.87500000 
0.13900    21261134.00000000 13688202.00000000 34110428.00000000 6649.98193359   698669.25000000 556739.37500000 
0.14000    20968096.00000000 13505575.00000000 33647580.00000000 6484.89892578   683634.75000000 544761.56250000 
0.14100    20676102.00000000 13323615.00000000 33186250.00000000 6322.97900391   668768.56250000 532908.81250000 
0.14200    20385232.00000000 13142013.00000000 32726792.00000000 6164.30712891   654058.06250000 521182.53125000 
0.14300    20095782.00000000 12961144.00000000 32268936.00000000 6008.89111328   639527.31250000 509585.96875000 
0.14400    19807394.00000000 12780906.00000000 31812930.00000000 5856.66503906   625161.50000000 498127.28125000 
0.14500    19520430.00000000 12601392.00000000 31358630.00000000 5707.82275391   610982.18750000 486804.68750000 
0.14600    19234868.00000000 12422491.00000000 30906404.00000000 5562.22119141   596988.68750000 475624.96875000 
0.14700    18950708.00000000 12244348.00000000 30456364.00000000 5419.98144531   583183.62500000 464592.90625000 
0.14800    18667854.00000000 12066928.00000000 30008302.00000000 5280.99462891   569567.87500000 453711.50000000 
0.14900    18386848.00000000 11890360.00000000 29562572.00000000 5145.31054688   556148.75000000 442982.90625000 
0.15000    18107336.00000000 11714660.00000000 29119356.00000000 5012.92480469   542930.12500000 432409.68750000 
0.15100    17829484.00000000 11539783.00000000 28678438.00000000 4883.79687500   529920.31250000 421995.84375000 
0.15200    17553624.00000000 11366104.00000000 28240364.00000000 4757.94531250   517115.03125000 411746.59375000 
0.15300    17279632.00000000 11193238.00000000 27805128.00000000 4635.27783203   504522.53125000 401663.96875000 
0.15400    17007424.00000000 11021461.00000000 27372620.00000000 4515.78857422   492139.43750000 391741.46875000 
0.15500    16737503.00000000 10850821.00000000 26943218.00000000 4399.45849609   479974.09375000 381993.31250000 
0.15600    16469485.00000000 10681365.00000000 26516976.00000000 4286.20703125   468024.71875000 372412.84375000 
0.15700    16203909.00000000 10513154.00000000 26094002.00000000 4176.03417969   456298.18750000 363013.68750000 
0.15800    15940381.00000000 10346219.00000000 25674438.00000000 4068.77368164   444786.00000000 353782.34375000 
0.15900    15679410.00000000 10180611.00000000 25258670.00000000 3964.50366211   433499.12500000 344724.81250000 
0.16000    15420808.00000000 10016403.00000000 24846406.00000000 3863.06005859   422431.75000000 335847.00000000 
0.16100    15164777.00000000 9853640.00000000 24438052.00000000 3764.49804688   411591.78125000 327144.03125000 
0.16200    14911399.00000000 9692301.00000000 24033510.00000000 3668.65478516   400971.34375000 318620.15625000 
0.16300    14660552.00000000 9532651.00000000 23633198.00000000 3575.41845703   390573.84375000 310270.68750000 
0.16400    14412425.00000000 9374447.00000000 23236964.00000000 3484.85595703   380395.31250000 302096.53125000 
0.16500    14167163.00000000 9217930.00000000 22845132.00000000 3396.78417969   370435.21875000 294096.31250000 
0.16600    13924750.00000000 9063130.00000000 22457368.00000000 3311.17407227   360695.84375000 286274.03125000 
0.16700    13685207.00000000 8909907.00000000 22074048.00000000 3227.89062500   351169.03125000 278621.21875000 
0.16800    13448446.00000000 8758525.00000000 21695496.00000000 3146.92968750   341857.37500000 271142.90625000 
0.16900    13214883.00000000 8608865.00000000 21321634.00000000 3068.21826172   332761.25000000 263832.87500000 
0.17000    12984230.00000000 8461097.00000000 20952224.00000000 2991.64599609   323871.43750000 256692.70312500 
