# SAXS profile: number of points = 501, q_min = 0, q_max = 0.5, delta_q = 0.001
#    q    intensity 
0.00000    162238576.00000000 101202392.00000000 256270832.00000000 109349.56250000 8423990.00000000 6653203.00000000 
0.00100    162207600.00000000 101182256.00000000 256221120.00000000 109323.56250000 8422147.00000000 6651766.50000000 
0.00200    162114032.00000000 101122608.00000000 256070784.00000000 109244.35937500 8416550.00000000 6647406.50000000 
0.00300    161954192.00000000 101024240.00000000 255820720.00000000 109112.83593750 8407337.00000000 6640160.00000000 
0.00400    161731216.00000000 100886536.00000000 255469984.00000000 108928.87500000 8394445.00000000 6630010.00000000 
0.00500    161444256.00000000 100709912.00000000 255019120.00000000 108693.30468750 8377845.00000000 6617012.00000000 
0.00600    161093632.00000000 100494224.00000000 254469120.00000000 108405.27343750 8357662.50000000 6601143.00000000 
0.00700    160680016.00000000 100239288.00000000 253821568.00000000 108066.05468750 8333832.00000000 6582439.00000000 
0.00800    160203760.00000000 99946872.00000000 253076736.00000000 107676.45312500 8306462.50000000 6560935.50000000 
0.00900    159666176.00000000 99616416.00000000 252234656.00000000 107236.85937500 8275585.50000000 6536643.00000000 
0.01000    159068960.00000000 99248760.00000000 251298784.00000000 106747.53125000 8241176.00000000 6509657.00000000 
0.01100    158414192.00000000 98844104.00000000 250267504.00000000 106209.85156250 8203349.50000000 6479856.00000000 
0.01200    157700224.00000000 98404040.00000000 249143056.00000000 105623.02343750 8162094.00000000 6447480.00000000 
0.01300    156927072.00000000 97926440.00000000 247928176.00000000 104989.96093750 8117485.50000000 6412467.50000000 
0.01400    156093856.00000000 97413968.00000000 246623136.00000000 104310.26562500 8069650.00000000 6374873.00000000 
0.01500    155205808.00000000 96866976.00000000 245228416.00000000 103585.54687500 8018610.50000000 6334736.00000000 
0.01600    154263920.00000000 96285328.00000000 243748800.00000000 102816.84375000 7964393.50000000 6292128.00000000 
0.01700    153267952.00000000 95670872.00000000 242183808.00000000 102004.61718750 7907130.00000000 6247143.00000000 
0.01800    152217840.00000000 95023968.00000000 240535952.00000000 101150.64843750 7846847.00000000 6199768.50000000 
0.01900    151118448.00000000 94345000.00000000 238807808.00000000 100256.13281250 7783650.00000000 6150129.50000000 
0.02000    149967856.00000000 93636464.00000000 237001136.00000000 99322.42187500  7717687.50000000 6098253.00000000 
0.02100    148768976.00000000 92897360.00000000 235117312.00000000 98350.48437500  7648956.00000000 6044219.50000000 
0.02200    147522704.00000000 92128048.00000000 233160224.00000000 97341.64843750  7577539.00000000 5988119.00000000 
0.02300    146230192.00000000 91330960.00000000 231130064.00000000 96297.99218750  7503573.50000000 5929997.50000000 
0.02400    144894080.00000000 90506560.00000000 229031984.00000000 95220.33593750  7427192.50000000 5869943.50000000 
0.02500    143516384.00000000 89656736.00000000 226866960.00000000 94110.07812500  7348429.50000000 5808026.50000000 
0.02600    142097312.00000000 88781040.00000000 224638032.00000000 92969.48437500  7267413.00000000 5744316.00000000 
0.02700    140638368.00000000 87881120.00000000 222345920.00000000 91799.74218750  7184224.00000000 5678929.00000000 
0.02800    139143344.00000000 86957840.00000000 219996032.00000000 90602.22656250  7099025.50000000 5611918.50000000 
0.02900    137611840.00000000 86012952.00000000 217590704.00000000 89377.94531250  7011815.50000000 5543401.00000000 
0.03000    136047040.00000000 85047272.00000000 215131392.00000000 88130.23437500  6922850.50000000 5473394.00000000 
0.03100    134449584.00000000 84060784.00000000 212620352.00000000 86859.32031250  6832084.50000000 5402053.50000000 
0.03200    132822048.00000000 83055816.00000000 210063792.00000000 85567.44531250  6739737.00000000 5329435.50000000 
0.03300    131166560.00000000 82033976.00000000 207461168.00000000 84256.01562500  6645924.50000000 5255611.00000000 
0.03400    129483592.00000000 80994872.00000000 204816896.00000000 82926.28125000  6550623.50000000 5180683.50000000 
0.03500    127777584.00000000 79940368.00000000 202133472.00000000 81581.01562500  6454106.50000000 5104777.00000000 
0.03600    126047496.00000000 78871624.00000000 199414208.00000000 80221.00781250  6356399.00000000 5027907.50000000 
0.03700    124297160.00000000 77790152.00000000 196662096.00000000 78848.03125000  6257642.50000000 4950189.00000000 
0.03800    122527312.00000000 76696656.00000000 193881040.00000000 77463.84375000  6157940.00000000 4871772.00000000 
0.03900    120740920.00000000 75592128.00000000 191071952.00000000 76070.30468750  6057406.50000000 4792657.50000000 
0.04000    118939104.00000000 74478720.00000000 188237728.00000000 74668.77343750  5956141.50000000 4713001.00000000 
0.04100    117123848.00000000 73356472.00000000 185382736.00000000 73260.64843750  5854293.00000000 4632832.00000000 
0.04200    115296664.00000000 72227544.00000000 182510512.00000000 71847.75781250  5751933.00000000 4552255.50000000 
0.04300    113460304.00000000 71091696.00000000 179621488.00000000 70431.99218750  5649212.50000000 4471382.00000000 
0.04400    111616168.00000000 69951064.00000000 176720992.00000000 69014.45312500  5546144.00000000 4390282.00000000 
0.04500    109765744.00000000 68806464.00000000 173810176.00000000 67596.75781250  5442958.50000000 4309042.50000000 
0.04600    107911152.00000000 67658976.00000000 170891664.00000000 66180.17968750  5339661.50000000 4227718.00000000 
0.04700    106054488.00000000 66509424.00000000 167970624.00000000 64766.80859375  5236375.50000000 4146375.75000000 
0.04800    104196680.00000000 65359732.00000000 165047872.00000000 63357.39843750  5133249.00000000 4065148.75000000 
0.04900    102339504.00000000 64210444.00000000 162126496.00000000 61953.59375000  5030292.00000000 3984091.00000000 
0.05000    100486208.00000000 63062484.00000000 159208960.00000000 60556.90234375  4927721.50000000 3903268.00000000 
0.05100    98636664.00000000 61917176.00000000 156297680.00000000 59167.79296875  4825541.50000000 3822770.75000000 
0.05200    96792800.00000000 60774804.00000000 153395008.00000000 57788.37890625  4723858.50000000 3742644.75000000 
0.05300    94956744.00000000 59637096.00000000 150503856.00000000 56419.68359375  4622692.50000000 3662980.00000000 
0.05400    93129016.00000000 58504872.00000000 147626624.00000000 55062.63281250  4522292.00000000 3583832.50000000 
0.05500    91312440.00000000 57378748.00000000 144765856.00000000 53718.82031250  4422621.50000000 3505264.50000000 
0.05600    89507032.00000000 56259696.00000000 141923296.00000000 52388.39453125  4323773.50000000 3427344.00000000 
0.05700    87715688.00000000 55148844.00000000 139101136.00000000 51073.11328125  4225811.00000000 3350115.00000000 
0.05800    85938528.00000000 54046520.00000000 136301120.00000000 49773.92968750  4128834.75000000 3273651.00000000 
0.05900    84177392.00000000 52953776.00000000 133528608.00000000 48491.50390625  4032909.25000000 3198011.25000000 
0.06000    82433744.00000000 51871528.00000000 130780376.00000000 47226.16796875  3938074.50000000 3123245.50000000 
0.06100    80707800.00000000 50800448.00000000 128060632.00000000 45979.75781250  3844451.75000000 3049369.75000000 
0.06200    79001160.00000000 49741180.00000000 125371656.00000000 44752.42578125  3752029.50000000 2976460.50000000 
0.06300    77315560.00000000 48694384.00000000 122714512.00000000 43545.36328125  3660906.75000000 2904566.75000000 
0.06400    75650688.00000000 47660248.00000000 120090872.00000000 42357.92187500  3571110.50000000 2833712.25000000 
0.06500    74008848.00000000 46640084.00000000 117501768.00000000 41192.10937500  3482701.00000000 2763926.00000000 
0.06600    72390216.00000000 45633772.00000000 114949392.00000000 40047.87890625  3395729.50000000 2695252.00000000 
0.06700    70796264.00000000 44642532.00000000 112435320.00000000 38925.70312500  3310226.75000000 2627747.75000000 
0.06800    69226784.00000000 43666668.00000000 109959592.00000000 37825.73437500  3226203.00000000 2561409.75000000 
0.06900    67683048.00000000 42706676.00000000 107525096.00000000 36748.92968750  3143746.25000000 2496292.25000000 
0.07000    66165736.00000000 41762996.00000000 105131848.00000000 35695.04687500  3062849.25000000 2432381.00000000 
0.07100    64675560.00000000 40835220.00000000 102779704.00000000 34664.61328125  2983550.50000000 2369759.75000000 
0.07200    63212644.00000000 39924712.00000000 100471752.00000000 33657.92578125  2905861.25000000 2308356.50000000 
0.07300    61778148.00000000 39031400.00000000 98207816.00000000 32675.04101562  2829830.50000000 2248251.75000000 
0.07400    60372152.00000000 38155552.00000000 95988272.00000000 31716.45507812  2755447.75000000 2189464.25000000 
0.07500    58995044.00000000 37297232.00000000 93814000.00000000 30781.30468750  2682731.00000000 2131974.00000000 
0.07600    57646900.00000000 36457004.00000000 91685568.00000000 29870.53125000  2611680.50000000 2075793.87500000 
0.07700    56328748.00000000 35634900.00000000 89602800.00000000 28983.71484375  2542330.25000000 2020947.37500000 
0.07800    55039912.00000000 34831140.00000000 87567288.00000000 28120.81250000  2474684.50000000 1967426.25000000 
0.07900    53781000.00000000 34046148.00000000 85578160.00000000 27281.92968750  2408704.50000000 1915223.37500000 
0.08000    52552284.00000000 33278900.00000000 83636984.00000000 26466.70117188  2344413.25000000 1864353.62500000 
0.08100    51353372.00000000 32530528.00000000 81742416.00000000 25675.17382812  2281834.50000000 1814810.62500000 
0.08200    50184836.00000000 31800698.00000000 79895096.00000000 24906.93554688  2220918.25000000 1766580.00000000 
0.08300    49046192.00000000 31089372.00000000 78095040.00000000 24161.60156250  2161676.00000000 1719660.87500000 
0.08400    47937704.00000000 30396674.00000000 76342760.00000000 23439.48632812  2104075.75000000 1674040.62500000 
0.08500    46858920.00000000 29722400.00000000 74636776.00000000 22739.74218750  2048122.75000000 1629716.62500000 
0.08600    45810224.00000000 29066376.00000000 72977576.00000000 22062.25195312  1993809.87500000 1586668.87500000 
0.08700    44790552.00000000 28428696.00000000 71364200.00000000 21406.76367188  1941067.50000000 1544884.12500000 
0.08800    43800400.00000000 27809034.00000000 69797864.00000000 20772.50195312  1889936.62500000 1504346.25000000 
0.08900    42839308.00000000 27207346.00000000 68276696.00000000 20159.59960938  1840357.25000000 1465024.12500000 
0.09000    41906748.00000000 26623210.00000000 66801028.00000000 19567.24804688  1792318.12500000 1426935.00000000 
0.09100    41002600.00000000 26056780.00000000 65369272.00000000 18995.22460938  1745780.50000000 1390019.37500000 
0.09200    40126220.00000000 25507410.00000000 63981872.00000000 18442.77148438  1700738.75000000 1354276.37500000 
0.09300    39277176.00000000 24975460.00000000 62637116.00000000 17909.87109375  1657131.62500000 1319676.25000000 
0.09400    38455552.00000000 24459968.00000000 61335392.00000000 17395.50585938  1614960.37500000 1286190.00000000 
0.09500    37659992.00000000 23961022.00000000 60075340.00000000 16899.61914062  1574182.37500000 1253806.00000000 
0.09600    36890852.00000000 23478264.00000000 58856284.00000000 16421.63867188  1534746.50000000 1222489.87500000 
0.09700    36147128.00000000 23011332.00000000 57678008.00000000 15960.85253906  1496645.25000000 1192223.50000000 
0.09800    35428404.00000000 22560018.00000000 56538360.00000000 15516.79980469  1459836.75000000 1162975.50000000 
0.09900    34733952.00000000 22123870.00000000 55437596.00000000 15089.11132812  1424272.00000000 1134716.75000000 
0.10000    34063308.00000000 21702364.00000000 54374436.00000000 14677.03320312  1389924.12500000 1107411.12500000 
0.10100    33415692.00000000 21295282.00000000 53347896.00000000 14280.14257812  1356766.50000000 1081047.25000000 
0.10200    32790892.00000000 20902470.00000000 52356652.00000000 13897.88964844  1324752.75000000 1055581.75000000 
0.10300    32187828.00000000 20523156.00000000 51400208.00000000 13529.82226562  1293831.87500000 1030992.43750000 
0.10400    31606196.00000000 20157194.00000000 50477180.00000000 13175.33203125  1263997.50000000 1007251.56250000 
0.10500    31045204.00000000 19804106.00000000 49586960.00000000 12833.87792969  1235197.25000000 984330.18750000 
0.10600    30504068.00000000 19463512.00000000 48727944.00000000 12504.92382812  1207383.25000000 962188.00000000 
0.10700    29982216.00000000 19134942.00000000 47899896.00000000 12188.18359375  1180537.12500000 940818.81250000 
0.10800    29479036.00000000 18817928.00000000 47101200.00000000 11882.90234375  1154609.00000000 920161.00000000 
0.10900    28993934.00000000 18512178.00000000 46330392.00000000 11588.63769531  1129568.62500000 900214.93750000 
0.11000    28525910.00000000 18217172.00000000 45587340.00000000 11304.95605469  1105368.50000000 880940.00000000 
0.11100    28074392.00000000 17932820.00000000 44870492.00000000 11031.35937500  1081990.75000000 862308.37500000 
0.11200    27638768.00000000 17658054.00000000 44178752.00000000 10767.36914062  1059376.87500000 844295.56250000 
0.11300    27218482.00000000 17393200.00000000 43511092.00000000 10512.59863281  1037511.75000000 826865.18750000 
0.11400    26812800.00000000 17137424.00000000 42866780.00000000 10266.47460938  1016362.18750000 810004.00000000 
0.11500    26420948.00000000 16890310.00000000 42244528.00000000 10028.71972656  995882.43750000 793677.43750000 
0.11600    26042414.00000000 16651629.00000000 41643044.00000000 9798.87792969   976050.06250000 777858.56250000 
0.11700    25676518.00000000 16420883.00000000 41061720.00000000 9576.46191406   956832.12500000 762533.25000000 
0.11800    25322560.00000000 16197519.00000000 40499544.00000000 9361.08886719   938181.25000000 747654.68750000 
0.11900    24979838.00000000 15981515.00000000 39955236.00000000 9152.44824219   920081.43750000 733220.00000000 
0.12000    24647938.00000000 15772165.00000000 39427864.00000000 8950.18066406   902504.75000000 719195.93750000 
0.12100    24326290.00000000 15569285.00000000 38917064.00000000 8754.05664062   885428.56250000 705570.81250000 
0.12200    24014004.00000000 15372473.00000000 38421264.00000000 8563.51660156   868807.37500000 692307.50000000 
0.12300    23711006.00000000 15181310.00000000 37939412.00000000 8378.38085938   852633.43750000 679399.81250000 
0.12400    23416230.00000000 14995547.00000000 37471328.00000000 8198.33300781   836868.50000000 666819.87500000 
0.12500    23129412.00000000 14814668.00000000 37015912.00000000 8023.09277344   821487.43750000 654544.68750000 
0.12600    22849830.00000000 14638590.00000000 36572288.00000000 7852.48388672   806482.62500000 642576.37500000 
0.12700    22577326.00000000 14466874.00000000 36139344.00000000 7686.10205078   791819.62500000 630869.43750000 
0.12800    22310998.00000000 14299126.00000000 35716464.00000000 7523.79541016   777477.06250000 619420.62500000 
0.12900    22050736.00000000 14135198.00000000 35303400.00000000 7365.33691406   763445.18750000 608226.50000000 
0.13000    21795884.00000000 13974800.00000000 34899028.00000000 7210.47412109   749695.31250000 597249.75000000 
0.13100    21546294.00000000 13817535.00000000 34502452.00000000 7059.07470703   736212.37500000 586487.81250000 
0.13200    21300974.00000000 13663240.00000000 34113344.00000000 6910.90771484   722978.87500000 575929.18750000 
0.13300    21060116.00000000 13511728.00000000 33731296.00000000 6765.83496094   709987.37500000 565557.75000000 
0.13400    20822970.00000000 13362605.00000000 33354904.00000000 6623.72656250   697212.56250000 555361.87500000 
0.13500    20589568.00000000 13215858.00000000 32984586.00000000 6484.39648438   684648.12500000 545331.12500000 
0.13600    20358978.00000000 13070917.00000000 32619128.00000000 6347.73974609   672274.62500000 535458.31250000 
0.13700    20131436.00000000 12927857.00000000 32258152.00000000 6213.63623047   660087.06250000 525731.75000000 
0.13800    19906520.00000000 12786502.00000000 31901496.00000000 6081.98291016   648069.75000000 516141.53125000 
0.13900    19683766.00000000 12646646.00000000 31548422.00000000 5952.63037109   636222.81250000 506684.68750000 
0.14000    19463282.00000000 12508019.00000000 31198482.00000000 5825.56591797   624524.50000000 497350.62500000 
0.14100    19244380.00000000 12370609.00000000 30851490.00000000 5700.68945312   612977.50000000 488132.12500000 
0.14200    19026902.00000000 12234070.00000000 30507022.00000000 5577.88818359   601566.68750000 479026.12500000 
0.14300    18811134.00000000 12098519.00000000 30164706.00000000 5457.18750000   590287.56250000 470024.00000000 
0.14400    18596210.00000000 11963623.00000000 29823994.00000000 5338.41210938   579133.56250000 461122.84375000 
0.14500    18382422.00000000 11829333.00000000 29485350.00000000 5221.64599609   568109.93750000 452320.71875000 
0.14600    18169478.00000000 11695684.00000000 29147796.00000000 5106.73339844   557200.18750000 443614.00000000 
0.14700    17957406.00000000 11562502.00000000 28811492.00000000 4993.75878906   546409.37500000 434999.78125000 
0.14800    17745808.00000000 11429633.00000000 28476008.00000000 4882.61816406   535727.43750000 426471.71875000 
0.14900    17534772.00000000 11297082.00000000 28141286.00000000 4773.27050781   525154.56250000 418031.21875000 
0.15000    17323968.00000000 11164715.00000000 27807184.00000000 4665.74365234   514688.31250000 409676.84375000 
0.15100    17113522.00000000 11032566.00000000 27473584.00000000 4559.98876953   504332.06250000 401405.15625000 
0.15200    16903518.00000000 10900544.00000000 27140484.00000000 4456.10302734   494080.68750000 393216.84375000 
0.15300    16693696.00000000 10768680.00000000 26807716.00000000 4353.91015625   483936.93750000 385116.09375000 
0.15400    16483954.00000000 10636876.00000000 26475134.00000000 4253.53076172   473894.18750000 377094.90625000 
0.15500    16274439.00000000 10505095.00000000 26142834.00000000 4154.89501953   463961.28125000 369156.50000000 
0.15600    16064942.00000000 10373400.00000000 25810438.00000000 4058.01806641   454129.31250000 361299.15625000 
0.15700    15855876.00000000 10241747.00000000 25478596.00000000 3962.90600586   444409.65625000 353533.53125000 
0.15800    15646720.00000000 10110137.00000000 25146490.00000000 3869.54223633   434792.65625000 345845.78125000 
0.15900    15437824.00000000 9978516.00000000 24814930.00000000 3778.02099609   425288.71875000 338247.15625000 
0.16000    15229091.00000000 9846960.00000000 24483428.00000000 3688.21044922   415895.37500000 330734.93750000 
0.16100    15020707.00000000 9715563.00000000 24152452.00000000 3600.24047852   406614.53125000 323312.18750000 
0.16200    14812452.00000000 9584302.00000000 23821534.00000000 3513.99389648   397447.81250000 315979.50000000 
0.16300    14604627.00000000 9453121.00000000 23491128.00000000 3429.55810547   388397.50000000 308738.18750000 
0.16400    14397200.00000000 9322107.00000000 23161398.00000000 3346.88525391   379464.50000000 301589.25000000 
0.16500    14190105.00000000 9191255.00000000 22832136.00000000 3266.00830078   370652.28125000 294533.53125000 
0.16600    13983531.00000000 9060664.00000000 22503546.00000000 3186.92846680   361965.09375000 287576.40625000 
0.16700    13777397.00000000 8930385.00000000 22175788.00000000 3109.59619141   353397.62500000 280716.56250000 
0.16800    13572068.00000000 8800307.00000000 21848652.00000000 3034.04028320   344956.59375000 273951.81250000 
0.16900    13367478.00000000 8670732.00000000 21523030.00000000 2960.33618164   336645.21875000 267291.40625000 
0.17000    13163502.00000000 8541563.00000000 21198292.00000000 2888.31469727   328461.87500000 260729.78125000 
