# SAXS profile: number of points = 501, q_min = 0, q_max = 0.5, delta_q = 0.001
#    q    intensity 
0.00000    162234432.00000000 101202464.00000000 256270656.00000000 101402.68750000 8112077.00000000 6406899.00000000 
0.00100    162204304.00000000 101181720.00000000 256218736.00000000 101376.37500000 8110233.00000000 6405426.00000000 
0.00200    162111008.00000000 101122256.00000000 256065984.00000000 101296.53125000 8104581.00000000 6401006.50000000 
0.00300    161949536.00000000 101021192.00000000 255810032.00000000 101164.89843750 8095167.50000000 6393643.00000000 
0.00400    161720640.00000000 100880728.00000000 255452448.00000000 100980.09375000 8082050.50000000 6383306.00000000 
0.00500    161425872.00000000 100700968.00000000 254992672.00000000 100743.71093750 8065162.50000000 6370124.50000000 
0.00600    161066368.00000000 100479376.00000000 254430576.00000000 100455.95312500 8044669.00000000 6354021.00000000 
0.00700    160644608.00000000 100220928.00000000 253770352.00000000 100116.28125000 8020501.50000000 6335012.50000000 
0.00800    160155648.00000000 99923152.00000000 253010416.00000000 99726.75000000  7992704.50000000 6313215.50000000 
0.00900    159607216.00000000 99586928.00000000 252151680.00000000 99287.30468750  7961346.00000000 6288582.50000000 
0.01000    158999488.00000000 99214320.00000000 251196448.00000000 98798.32031250  7926473.00000000 6261232.00000000 
0.01100    158331392.00000000 98802440.00000000 250147952.00000000 98261.58593750  7888119.50000000 6231141.50000000 
0.01200    157603344.00000000 98354096.00000000 249003312.00000000 97677.77343750  7846379.50000000 6198381.00000000 
0.01300    156813232.00000000 97869656.00000000 247766368.00000000 97047.32812500  7801287.50000000 6163011.00000000 
0.01400    155965360.00000000 97348544.00000000 246439056.00000000 96371.81250000  7752936.50000000 6125085.00000000 
0.01500    155062352.00000000 96793920.00000000 245024576.00000000 95652.47656250  7701440.00000000 6084639.00000000 
0.01600    154103616.00000000 96205328.00000000 243521408.00000000 94891.08593750  7646844.00000000 6041774.00000000 
0.01700    153091456.00000000 95583424.00000000 241934560.00000000 94088.73437500  7589215.50000000 5996524.00000000 
0.01800    152026384.00000000 94929320.00000000 240265072.00000000 93245.06250000  7528653.00000000 5948976.50000000 
0.01900    150910944.00000000 94243280.00000000 238515168.00000000 92364.21875000  7465246.00000000 5899192.50000000 
0.02000    149745072.00000000 93526784.00000000 236687584.00000000 91445.98437500  7399102.00000000 5847304.00000000 
0.02100    148532448.00000000 92780824.00000000 234785504.00000000 90491.78906250  7330359.00000000 5793299.50000000 
0.02200    147272576.00000000 92006312.00000000 232809776.00000000 89504.89062500  7259059.50000000 5737278.00000000 
0.02300    145969264.00000000 91204808.00000000 230764384.00000000 88484.56250000  7185383.50000000 5679376.00000000 
0.02400    144622368.00000000 90376080.00000000 228650784.00000000 87434.54687500  7109343.00000000 5619684.50000000 
0.02500    143235024.00000000 89522456.00000000 226474000.00000000 86355.70312500  7031114.00000000 5558214.00000000 
0.02600    141807920.00000000 88644024.00000000 224235616.00000000 85249.96093750  6950785.00000000 5495167.50000000 
0.02700    140344288.00000000 87742344.00000000 221936896.00000000 84118.15625000  6868502.00000000 5430525.00000000 
0.02800    138843728.00000000 86819128.00000000 219584192.00000000 82962.82812500  6784379.50000000 5364360.00000000 
0.02900    137311552.00000000 85874520.00000000 217178048.00000000 81786.20312500  6698541.00000000 5296912.00000000 
0.03000    135745472.00000000 84911040.00000000 214720800.00000000 80589.24218750  6611056.00000000 5228150.50000000 
0.03100    134151672.00000000 83928360.00000000 212218640.00000000 79374.39062500  6522079.50000000 5158219.00000000 
0.03200    132530032.00000000 82929304.00000000 209671632.00000000 78142.53906250  6431718.50000000 5087184.00000000 
0.03300    130882160.00000000 81913272.00000000 207083712.00000000 76896.73437500  6340161.50000000 5015159.50000000 
0.03400    129211216.00000000 80882144.00000000 204459264.00000000 75637.48437500  6247385.00000000 4942283.50000000 
0.03500    127518272.00000000 79838320.00000000 201799264.00000000 74367.76562500  6153649.00000000 4868528.50000000 
0.03600    125806128.00000000 78782000.00000000 199108272.00000000 73087.68750000  6059024.00000000 4794101.50000000 
0.03700    124075184.00000000 77713816.00000000 196390880.00000000 71800.45312500  5963624.00000000 4719036.00000000 
0.03800    122329472.00000000 76636736.00000000 193646160.00000000 70507.64062500  5867547.50000000 4643499.50000000 
0.03900    120569464.00000000 75549936.00000000 190881168.00000000 69209.69531250  5771001.00000000 4567498.50000000 
0.04000    118796832.00000000 74455640.00000000 188094688.00000000 67909.34375000  5673960.50000000 4491148.50000000 
0.04100    117015528.00000000 73354288.00000000 185293072.00000000 66607.89843750  5576590.00000000 4414508.00000000 
0.04200    115225744.00000000 72248120.00000000 182479776.00000000 65306.82421875  5479039.50000000 4337737.50000000 
0.04300    113429720.00000000 71137312.00000000 179655776.00000000 64007.47656250  5381447.00000000 4260844.00000000 
0.04400    111629608.00000000 70023544.00000000 176822512.00000000 62711.61718750  5283808.50000000 4183951.00000000 
0.04500    109826320.00000000 68908288.00000000 173986880.00000000 61420.75781250  5186281.00000000 4107147.00000000 
0.04600    108023536.00000000 67791928.00000000 171147648.00000000 60135.86328125  5088939.50000000 4030500.00000000 
0.04700    106220144.00000000 66675788.00000000 168311440.00000000 58858.21093750  4991971.50000000 3954064.50000000 
0.04800    104419976.00000000 65560520.00000000 165477536.00000000 57589.32031250  4895328.50000000 3877949.50000000 
0.04900    102624544.00000000 64447988.00000000 162649552.00000000 56330.60156250  4799237.00000000 3802204.75000000 
0.05000    100834304.00000000 63338480.00000000 159830512.00000000 55082.57421875  4703686.50000000 3726876.50000000 
0.05100    99051712.00000000 62233196.00000000 157023008.00000000 53846.83203125  4608828.00000000 3652061.75000000 
0.05200    97277112.00000000 61132780.00000000 154228016.00000000 52623.88281250  4514691.50000000 3577855.25000000 
0.05300    95513432.00000000 60038396.00000000 151449488.00000000 51415.06250000  4421342.50000000 3504262.25000000 
0.05400    93761008.00000000 58950572.00000000 148687696.00000000 50221.04296875  4328916.50000000 3431349.00000000 
0.05500    92021432.00000000 57870728.00000000 145948320.00000000 49042.87500000  4237443.50000000 3359171.50000000 
0.05600    90296776.00000000 56799200.00000000 143229040.00000000 47880.94921875  4146943.25000000 3287782.25000000 
0.05700    88587056.00000000 55736840.00000000 140534048.00000000 46736.67968750  4057561.00000000 3217220.25000000 
0.05800    86894224.00000000 54684524.00000000 137864768.00000000 45609.99609375  3969278.75000000 3147555.00000000 
0.05900    85218248.00000000 53642408.00000000 135221104.00000000 44502.00390625  3882186.50000000 3078804.25000000 
0.06000    83561848.00000000 52611776.00000000 132608304.00000000 43412.43359375  3796346.50000000 3011013.00000000 
0.06100    81924256.00000000 51593204.00000000 130024280.00000000 42342.73046875  3711748.25000000 2944210.75000000 
0.06200    80307680.00000000 50586764.00000000 127473616.00000000 41292.62109375  3628496.25000000 2878449.00000000 
0.06300    78712704.00000000 49593344.00000000 124955096.00000000 40262.85156250  3546570.00000000 2813738.25000000 
0.06400    77138968.00000000 48613116.00000000 122471800.00000000 39253.09765625  3466049.75000000 2750092.00000000 
0.06500    75588392.00000000 47646908.00000000 120023768.00000000 38264.04296875  3386920.50000000 2687567.75000000 
0.06600    74061720.00000000 46695116.00000000 117612328.00000000 37295.99609375  3309239.25000000 2626163.25000000 
0.06700    72558824.00000000 45757512.00000000 115238000.00000000 36348.68750000  3232983.00000000 2565901.00000000 
0.06800    71080584.00000000 44835340.00000000 112903048.00000000 35422.67578125  3158244.75000000 2506785.75000000 
0.06900    69627472.00000000 43928280.00000000 110607504.00000000 34517.29687500  3084948.50000000 2448851.25000000 
0.07000    68199424.00000000 43037304.00000000 108350480.00000000 33633.05859375  3013205.00000000 2392067.00000000 
0.07100    66797688.00000000 42161552.00000000 106134576.00000000 32770.15625000  2942901.00000000 2336467.75000000 
0.07200    65422180.00000000 41302228.00000000 103960200.00000000 31927.63671875  2874123.75000000 2282064.50000000 
0.07300    64072604.00000000 40459048.00000000 101826536.00000000 31106.15625000  2806876.25000000 2228846.00000000 
0.07400    62750204.00000000 39632248.00000000 99735432.00000000 30305.10546875  2741111.00000000 2176812.50000000 
0.07500    61454284.00000000 38821724.00000000 97685888.00000000 29524.52539062  2676878.75000000 2125966.75000000 
0.07600    60185024.00000000 38028112.00000000 95678184.00000000 28763.78125000  2614116.50000000 2076273.25000000 
0.07700    58943312.00000000 37250704.00000000 93713808.00000000 28023.14257812  2552835.25000000 2027767.75000000 
0.07800    57727656.00000000 36490324.00000000 91790472.00000000 27302.07812500  2493045.25000000 1980426.00000000 
0.07900    56539256.00000000 35746348.00000000 89910088.00000000 26600.01562500  2434699.00000000 1934223.50000000 
0.08000    55377788.00000000 35019004.00000000 88071304.00000000 25916.90234375  2377806.00000000 1889154.00000000 
0.08100    54242876.00000000 34308416.00000000 86275136.00000000 25252.45117188  2322337.25000000 1845224.25000000 
0.08200    53134524.00000000 33613980.00000000 84520552.00000000 24605.96875000  2268269.25000000 1802389.37500000 
0.08300    52052224.00000000 32936128.00000000 82807712.00000000 23977.29101562  2215566.50000000 1760631.87500000 
0.08400    50995788.00000000 32274370.00000000 81135176.00000000 23366.06445312  2164230.25000000 1719964.62500000 
0.08500    49965592.00000000 31628650.00000000 79503504.00000000 22771.77734375  2114245.50000000 1680350.37500000 
0.08600    48960700.00000000 30998756.00000000 77912344.00000000 22193.69531250  2065545.50000000 1641769.37500000 
0.08700    47981156.00000000 30384458.00000000 76360616.00000000 21631.87500000  2018133.37500000 1604190.12500000 
0.08800    47026148.00000000 29785704.00000000 74847880.00000000 21085.73632812  1971980.50000000 1567608.12500000 
0.08900    46095436.00000000 29202274.00000000 73374216.00000000 20554.75585938  1927037.37500000 1531989.87500000 
0.09000    45188836.00000000 28633714.00000000 71938536.00000000 20038.51171875  1883298.25000000 1497318.12500000 
0.09100    44305832.00000000 28080086.00000000 70539840.00000000 19536.64453125  1840717.50000000 1463569.87500000 
0.09200    43446096.00000000 27540770.00000000 69177920.00000000 19048.59179688  1799278.12500000 1430710.87500000 
0.09300    42608860.00000000 27015694.00000000 67851744.00000000 18574.00000000  1758941.50000000 1398739.87500000 
0.09400    41793284.00000000 26504690.00000000 66561308.00000000 18112.49218750  1719674.25000000 1367602.37500000 
0.09500    40999996.00000000 26007136.00000000 65304372.00000000 17663.66992188  1681446.75000000 1337283.25000000 
0.09600    40228260.00000000 25522928.00000000 64081508.00000000 17226.76171875  1644222.37500000 1307785.12500000 
0.09700    39476728.00000000 25051866.00000000 62891232.00000000 16801.86914062  1608000.12500000 1279048.87500000 
0.09800    38745360.00000000 24593284.00000000 61733276.00000000 16388.29101562  1572706.12500000 1251070.87500000 
0.09900    38033552.00000000 24147254.00000000 60606408.00000000 15985.76953125  1538339.87500000 1223814.62500000 
0.10000    37341080.00000000 23713196.00000000 59509872.00000000 15593.75390625  1504861.62500000 1197263.12500000 
0.10100    36666936.00000000 23290852.00000000 58442444.00000000 15211.95507812  1472237.87500000 1171390.25000000 
0.10200    36011156.00000000 22879924.00000000 57403844.00000000 14840.29296875  1440443.50000000 1146175.37500000 
0.10300    35372492.00000000 22479884.00000000 56393064.00000000 14477.93066406  1409449.87500000 1121600.37500000 
0.10400    34751432.00000000 22090636.00000000 55409460.00000000 14124.91210938  1379227.25000000 1097631.87500000 
0.10500    34146268.00000000 21711786.00000000 54451784.00000000 13780.91308594  1349757.62500000 1074247.62500000 
0.10600    33556920.00000000 21343042.00000000 53519284.00000000 13445.35156250  1320992.75000000 1051435.25000000 
0.10700    32983192.00000000 20984050.00000000 52611196.00000000 13118.27636719  1292923.87500000 1029171.43750000 
0.10800    32424454.00000000 20634144.00000000 51727148.00000000 12799.15429688  1265529.50000000 1007435.43750000 
0.10900    31880162.00000000 20293666.00000000 50865596.00000000 12487.82519531  1238769.87500000 986204.87500000 
0.11000    31349286.00000000 19961574.00000000 50025992.00000000 12184.06152344  1212635.75000000 965464.50000000 
0.11100    30831786.00000000 19638166.00000000 49207640.00000000 11887.49023438  1187095.12500000 945194.18750000 
0.11200    30327268.00000000 19322842.00000000 48409420.00000000 11598.12109375  1162120.50000000 925378.43750000 
0.11300    29835110.00000000 19015316.00000000 47631532.00000000 11315.58203125  1137705.00000000 905996.25000000 
0.11400    29354958.00000000 18715356.00000000 46872280.00000000 11039.66699219  1113829.62500000 887040.12500000 
0.11500    28886052.00000000 18422462.00000000 46130868.00000000 10770.25878906  1090468.50000000 868481.56250000 
0.11600    28428388.00000000 18136786.00000000 45407272.00000000 10507.09179688  1067593.50000000 850317.06250000 
0.11700    27981210.00000000 17857452.00000000 44700764.00000000 10250.08789062  1045205.18750000 832537.43750000 
0.11800    27544194.00000000 17584498.00000000 44009556.00000000 9998.93652344   1023269.75000000 815113.00000000 
0.11900    27116704.00000000 17317848.00000000 43334204.00000000 9753.67773438   1001776.31250000 798029.62500000 
0.12000    26698798.00000000 17056924.00000000 42673628.00000000 9514.01171875   980716.68750000 781292.56250000 
0.12100    26289874.00000000 16801756.00000000 42027292.00000000 9279.90039062   960077.62500000 764882.37500000 
0.12200    25889092.00000000 16551898.00000000 41394480.00000000 9051.17871094   939844.87500000 748790.00000000 
0.12300    25496926.00000000 16307261.00000000 40774564.00000000 8827.70507812   919994.56250000 733004.50000000 
0.12400    25112672.00000000 16067468.00000000 40167472.00000000 8609.44335938   900521.12500000 717504.87500000 
0.12500    24735688.00000000 15832466.00000000 39571836.00000000 8396.19726562   881406.68750000 702295.93750000 
0.12600    24366310.00000000 15601875.00000000 38987692.00000000 8188.01171875   862662.56250000 687371.37500000 
0.12700    24003644.00000000 15375645.00000000 38414760.00000000 7984.52636719   844257.31250000 672716.25000000 
0.12800    23647590.00000000 15153452.00000000 37851976.00000000 7785.89892578   826191.75000000 658319.06250000 
0.12900    23297882.00000000 14935268.00000000 37299364.00000000 7591.91308594   808452.25000000 644183.68750000 
0.13000    22954296.00000000 14720763.00000000 36756196.00000000 7402.51464844   791031.62500000 630292.68750000 
0.13100    22616506.00000000 14509935.00000000 36222208.00000000 7217.62451172   773928.56250000 616652.81250000 
0.13200    22284280.00000000 14302439.00000000 35696852.00000000 7037.12792969   757119.62500000 603240.75000000 
0.13300    21957486.00000000 14098320.00000000 35180136.00000000 6860.99365234   740613.56250000 590067.18750000 
0.13400    21635858.00000000 13897269.00000000 34671464.00000000 6689.10986328   724400.93750000 577121.06250000 
0.13500    21319072.00000000 13699266.00000000 34170228.00000000 6521.46777344   708470.50000000 564395.87500000 
0.13600    21007186.00000000 13504119.00000000 33676560.00000000 6357.88281250   692818.56250000 551894.56250000 
0.13700    20699726.00000000 13311703.00000000 33189950.00000000 6198.32861328   677448.93750000 539601.87500000 
0.13800    20396522.00000000 13121974.00000000 32710048.00000000 6042.80908203   662344.06250000 527523.31250000 
0.13900    20097874.00000000 12934788.00000000 32236810.00000000 5891.12597656   647510.06250000 515653.43750000 
0.14000    19803250.00000000 12750024.00000000 31769750.00000000 5743.26513672   632935.56250000 503985.28125000 
0.14100    19512356.00000000 12567634.00000000 31308924.00000000 5599.20654297   618617.93750000 492523.53125000 
0.14200    19225334.00000000 12387391.00000000 30853850.00000000 5458.78710938   604550.37500000 481254.43750000 
0.14300    18942040.00000000 12209504.00000000 30404698.00000000 5321.95458984   590737.62500000 470188.56250000 
0.14400    18662122.00000000 12033565.00000000 29960528.00000000 5188.60693359   577170.56250000 459310.56250000 
0.14500    18385662.00000000 11859721.00000000 29522212.00000000 5058.76123047   563844.87500000 448624.40625000 
0.14600    18112742.00000000 11687965.00000000 29088598.00000000 4932.32128906   550759.00000000 438129.18750000 
0.14700    17842906.00000000 11517876.00000000 28660244.00000000 4809.21044922   537910.50000000 427819.65625000 
0.14800    17576126.00000000 11349757.00000000 28236308.00000000 4689.27197266   525296.31250000 417691.40625000 
0.14900    17312636.00000000 11183526.00000000 27817550.00000000 4572.51562500   512910.56250000 407744.78125000 
0.15000    17051942.00000000 11018957.00000000 27403086.00000000 4458.78613281   500753.81250000 397982.50000000 
0.15100    16794304.00000000 10856088.00000000 26993204.00000000 4348.12304688   488821.93750000 388394.28125000 
0.15200    16539537.00000000 10694910.00000000 26587830.00000000 4240.36328125   477115.15625000 378983.90625000 
0.15300    16287634.00000000 10535436.00000000 26186682.00000000 4135.54003906   465627.28125000 369752.37500000 
0.15400    16038352.00000000 10377485.00000000 25789708.00000000 4033.39892578   454353.71875000 360686.96875000 
0.15500    15791897.00000000 10221220.00000000 25397056.00000000 3933.99877930   443299.03125000 351794.25000000 
0.15600    15547988.00000000 10066370.00000000 25008342.00000000 3837.21655273   432450.25000000 343069.96875000 
0.15700    15306763.00000000 9913322.00000000 24623694.00000000 3743.05761719   421817.37500000 334515.81250000 
0.15800    15068181.00000000 9761500.00000000 24242996.00000000 3651.31176758   411385.28125000 326122.00000000 
0.15900    14832099.00000000 9611313.00000000 23866292.00000000 3562.03613281   401163.90625000 317894.46875000 
0.16000    14598528.00000000 9462622.00000000 23493394.00000000 3475.07470703   391135.25000000 309825.40625000 
0.16100    14367592.00000000 9315369.00000000 23124462.00000000 3390.43945312   381311.46875000 301917.28125000 
0.16200    14139069.00000000 9169600.00000000 22759336.00000000 3308.00976562   371685.18750000 294167.93750000 
0.16300    13913033.00000000 9025364.00000000 22397990.00000000 3227.72705078   362250.28125000 286572.78125000 
0.16400    13689441.00000000 8882513.00000000 22040568.00000000 3149.52636719   353006.75000000 279135.06250000 
0.16500    13468290.00000000 8741185.00000000 21686906.00000000 3073.36938477   343952.21875000 271846.00000000 
0.16600    13249655.00000000 8601256.00000000 21336984.00000000 2999.20385742   335084.71875000 264706.96875000 
0.16700    13033384.00000000 8462792.00000000 20990720.00000000 2926.89965820   326400.53125000 257717.40625000 
0.16800    12819439.00000000 8325773.00000000 20648314.00000000 2856.46875000   317894.84375000 250874.10937500 
0.16900    12608057.00000000 8190262.00000000 20309782.00000000 2787.86962891   309571.53125000 244176.39062500 
0.17000    12399043.00000000 8056159.50000000 19974896.00000000 2721.00952148   301422.40625000 237620.59375000 
