# SAXS profile: number of points = 501, q_min = 0, q_max = 0.5, delta_q = 0.001
#    q    intensity 
0.00000    162233824.00000000 101201768.00000000 256270672.00000000 108965.67187500 8409203.00000000 6641570.00000000 
0.00100    162185152.00000000 101168664.00000000 256187776.00000000 108925.23437500 8406248.00000000 6639241.00000000 
0.00200    162032192.00000000 101071000.00000000 255941232.00000000 108803.31250000 8397355.00000000 6632220.50000000 
0.00300    161771664.00000000 100908280.00000000 255526400.00000000 108599.70312500 8382548.50000000 6620593.50000000 
0.00400    161402432.00000000 100680560.00000000 254949168.00000000 108316.65625000 8361981.50000000 6604333.50000000 
0.00500    160928752.00000000 100388192.00000000 254204496.00000000 107953.53906250 8335569.50000000 6583554.00000000 
0.00600    160356560.00000000 100033208.00000000 253303008.00000000 107511.01562500 8303393.00000000 6558232.00000000 
0.00700    159675248.00000000 99615776.00000000 252244352.00000000 106990.96875000 8265587.00000000 6528449.00000000 
0.00800    158901440.00000000 99137088.00000000 251024848.00000000 106396.04687500 8222259.50000000 6494290.50000000 
0.00900    158032944.00000000 98599008.00000000 249651520.00000000 105725.45312500 8173453.50000000 6455892.50000000 
0.01000    157068208.00000000 97998832.00000000 248129264.00000000 104983.53906250 8119359.00000000 6413241.50000000 
0.01100    156006288.00000000 97341944.00000000 246462480.00000000 104169.28906250 8060073.50000000 6366591.50000000 
0.01200    154853408.00000000 96628712.00000000 244649872.00000000 103287.24218750 7995731.00000000 6315863.50000000 
0.01300    153613888.00000000 95860696.00000000 242699680.00000000 102338.96093750 7926513.50000000 6261341.00000000 
0.01400    152291392.00000000 95040680.00000000 240612976.00000000 101326.72656250 7852632.50000000 6203147.00000000 
0.01500    150883520.00000000 94168920.00000000 238397936.00000000 100253.58593750 7774240.50000000 6141351.00000000 
0.01600    149397472.00000000 93248080.00000000 236059344.00000000 99121.27343750  7691482.00000000 6076168.50000000 
0.01700    147836912.00000000 92279656.00000000 233601744.00000000 97934.62500000  7604632.50000000 6007703.00000000 
0.01800    146202112.00000000 91267880.00000000 231029024.00000000 96694.42968750  7513796.00000000 5936168.50000000 
0.01900    144500752.00000000 90213360.00000000 228349904.00000000 95405.93750000  7419329.00000000 5861717.00000000 
0.02000    142733760.00000000 89118272.00000000 225567056.00000000 94070.96093750  7321349.50000000 5784487.00000000 
0.02100    140905792.00000000 87984744.00000000 222689136.00000000 92692.51562500  7220120.00000000 5704699.50000000 
0.02200    139021552.00000000 86816536.00000000 219720720.00000000 91274.60937500  7115891.50000000 5622566.50000000 
0.02300    137083952.00000000 85615112.00000000 216667744.00000000 89820.43750000  7008862.50000000 5538262.50000000 
0.02400    135099232.00000000 84382600.00000000 213540784.00000000 88334.14062500  6899311.00000000 5451879.00000000 
0.02500    133067232.00000000 83122760.00000000 210340544.00000000 86817.68750000  6787466.50000000 5363726.50000000 
0.02600    130996736.00000000 81838144.00000000 207078752.00000000 85275.07031250  6673557.00000000 5273891.00000000 
0.02700    128888872.00000000 80529928.00000000 203758720.00000000 83710.92187500  6557835.50000000 5182652.50000000 
0.02800    126749400.00000000 79201808.00000000 200387488.00000000 82126.68750000  6440556.00000000 5090163.00000000 
0.02900    124583192.00000000 77856288.00000000 196973584.00000000 80526.89062500  6321936.50000000 4996659.50000000 
0.03000    122392544.00000000 76496728.00000000 193520160.00000000 78914.85937500  6202274.50000000 4902288.50000000 
0.03100    120183104.00000000 75124896.00000000 190038128.00000000 77293.77343750  6081702.00000000 4807220.50000000 
0.03200    117957768.00000000 73743976.00000000 186531344.00000000 75666.65625000  5960592.50000000 4711728.00000000 
0.03300    115721528.00000000 72355360.00000000 183006208.00000000 74037.22656250  5839103.50000000 4615867.50000000 
0.03400    113479568.00000000 70961760.00000000 179469856.00000000 72408.40625000  5717401.50000000 4519880.00000000 
0.03500    111232600.00000000 69565328.00000000 175928448.00000000 70782.07812500  5595787.50000000 4423950.50000000 
0.03600    108987608.00000000 68169120.00000000 172388384.00000000 69161.98437500  5474427.50000000 4328195.00000000 
0.03700    106746944.00000000 66776040.00000000 168854368.00000000 67551.05468750  5353558.00000000 4232820.50000000 
0.03800    104514784.00000000 65387672.00000000 165333440.00000000 65951.43750000  5233398.00000000 4138016.75000000 
0.03900    102293616.00000000 64006508.00000000 161831024.00000000 64365.85156250  5114059.50000000 4043887.00000000 
0.04000    100088496.00000000 62634084.00000000 158350064.00000000 62796.58984375  4995847.00000000 3950551.25000000 
0.04100    97901520.00000000 61273648.00000000 154900656.00000000 61246.21484375  4878801.50000000 3858178.25000000 
0.04200    95735448.00000000 59926072.00000000 151484096.00000000 59716.31250000  4763156.50000000 3766907.00000000 
0.04300    93594744.00000000 58592956.00000000 148106112.00000000 58209.30859375  4649051.00000000 3676819.75000000 
0.04400    91481096.00000000 57277020.00000000 144769424.00000000 56727.31640625  4536643.00000000 3588110.00000000 
0.04500    89397816.00000000 55979884.00000000 141480720.00000000 55270.80468750  4426024.00000000 3500787.00000000 
0.04600    87346104.00000000 54702200.00000000 138244096.00000000 53841.60546875  4317330.50000000 3414961.50000000 
0.04700    85330240.00000000 53446488.00000000 135060864.00000000 52442.14843750  4210741.00000000 3330801.00000000 
0.04800    83349760.00000000 52212852.00000000 131936376.00000000 51072.62500000  4106261.50000000 3248356.75000000 
0.04900    81409400.00000000 51003848.00000000 128872896.00000000 49734.37500000  4004054.25000000 3167614.25000000 
0.05000    79509880.00000000 49819888.00000000 125873608.00000000 48427.92187500  3904152.25000000 3088709.00000000 
0.05100    77653144.00000000 48662400.00000000 122941576.00000000 47154.64062500  3806675.75000000 3011709.00000000 
0.05200    75838816.00000000 47532224.00000000 120077384.00000000 45914.63281250  3711624.25000000 2936661.00000000 
0.05300    74071192.00000000 46430084.00000000 117285584.00000000 44708.76953125  3619088.00000000 2863582.50000000 
0.05400    72349840.00000000 45356540.00000000 114566328.00000000 43536.99609375  3529108.25000000 2792529.00000000 
0.05500    70674136.00000000 44312500.00000000 111921872.00000000 42399.74609375  3441692.00000000 2723480.00000000 
0.05600    69048344.00000000 43298064.00000000 109351952.00000000 41296.90234375  3356876.25000000 2656505.25000000 
0.05700    67469584.00000000 42314504.00000000 106859728.00000000 40228.60937500  3274677.25000000 2591570.00000000 
0.05800    65940068.00000000 41360356.00000000 104444504.00000000 39194.52343750  3195057.00000000 2528696.50000000 
0.05900    64460284.00000000 40437716.00000000 102107000.00000000 38194.48828125  3118053.75000000 2467869.00000000 
0.06000    63029612.00000000 39545592.00000000 99846848.00000000 37227.55468750  3043629.25000000 2409114.75000000 
0.06100    61648032.00000000 38684384.00000000 97665384.00000000 36294.16015625  2971753.75000000 2352343.00000000 
0.06200    60315532.00000000 37854100.00000000 95561984.00000000 35393.24609375  2902412.00000000 2297604.50000000 
0.06300    59031880.00000000 37054000.00000000 93535104.00000000 34524.37890625  2835592.00000000 2244828.25000000 
0.06400    57796576.00000000 36284116.00000000 91584968.00000000 33686.22265625  2771206.25000000 2193990.00000000 
0.06500    56608732.00000000 35544212.00000000 89710768.00000000 32878.44140625  2709225.00000000 2145045.25000000 
0.06600    55468104.00000000 34834448.00000000 87910624.00000000 32100.12500000  2649568.50000000 2097957.75000000 
0.06700    54374172.00000000 34153336.00000000 86183808.00000000 31350.38867188  2592224.00000000 2052698.50000000 
0.06800    53324916.00000000 33500856.00000000 84528800.00000000 30628.26171875  2537090.50000000 2009201.00000000 
0.06900    52320336.00000000 32876418.00000000 82944960.00000000 29932.75195312  2484122.00000000 1967407.50000000 
0.07000    51358844.00000000 32278842.00000000 81428352.00000000 29262.74804688  2433234.25000000 1927256.50000000 
0.07100    50439212.00000000 31707988.00000000 79979080.00000000 28617.48437500  2384350.00000000 1888711.37500000 
0.07200    49560608.00000000 31162806.00000000 78594544.00000000 27995.58007812  2337371.50000000 1851673.62500000 
0.07300    48721540.00000000 30642690.00000000 77273208.00000000 27396.21679688  2292258.75000000 1816109.50000000 
0.07400    47920288.00000000 30146300.00000000 76012152.00000000 26817.77343750  2248929.25000000 1781963.00000000 
0.07500    47156112.00000000 29673424.00000000 74809680.00000000 26259.84765625  2207278.00000000 1749154.37500000 
0.07600    46427052.00000000 29222626.00000000 73663064.00000000 25721.13671875  2167210.75000000 1717608.12500000 
0.07700    45731320.00000000 28793378.00000000 72570376.00000000 25200.38476562  2128690.25000000 1687264.75000000 
0.07800    45068012.00000000 28384584.00000000 71528120.00000000 24696.67187500  2091593.50000000 1658076.25000000 
0.07900    44434868.00000000 27995228.00000000 70534952.00000000 24209.32226562  2055864.00000000 1629952.25000000 
0.08000    43830996.00000000 27624252.00000000 69588472.00000000 23736.75585938  2021404.12500000 1602845.50000000 
0.08100    43255132.00000000 27270960.00000000 68685072.00000000 23278.51171875  1988125.62500000 1576687.50000000 
0.08200    42704556.00000000 26933756.00000000 67824384.00000000 22833.46875000  1955992.00000000 1551401.75000000 
0.08300    42178708.00000000 26612296.00000000 67001568.00000000 22400.67968750  1924856.00000000 1526951.75000000 
0.08400    41675936.00000000 26305448.00000000 66215512.00000000 21979.34570312  1894715.00000000 1503265.62500000 
0.08500    41194212.00000000 26012208.00000000 65463932.00000000 21569.09570312  1865467.37500000 1480294.87500000 
0.08600    40732344.00000000 25731318.00000000 64743452.00000000 21168.17773438  1837033.00000000 1457955.75000000 
0.08700    40289044.00000000 25462532.00000000 64052828.00000000 20776.52148438  1809352.62500000 1436230.62500000 
0.08800    39862480.00000000 25204200.00000000 63388720.00000000 20393.70703125  1782367.25000000 1415051.12500000 
0.08900    39451596.00000000 24955992.00000000 62749652.00000000 20018.54687500  1756018.00000000 1394372.12500000 
0.09000    39054748.00000000 24716764.00000000 62132644.00000000 19650.98632812  1730248.00000000 1374137.50000000 
0.09100    38670796.00000000 24485520.00000000 61536712.00000000 19290.01171875  1704981.00000000 1354308.62500000 
0.09200    38298332.00000000 24261842.00000000 60959204.00000000 18935.40820312  1680199.50000000 1334861.50000000 
0.09300    37936412.00000000 24044988.00000000 60398484.00000000 18586.77148438  1655821.62500000 1315737.75000000 
0.09400    37583508.00000000 23833514.00000000 59851616.00000000 18243.57226562  1631844.00000000 1296897.62500000 
0.09500    37238956.00000000 23627204.00000000 59318140.00000000 17905.39062500  1608182.75000000 1278334.75000000 
0.09600    36901308.00000000 23425514.00000000 58795448.00000000 17572.05468750  1584830.25000000 1260001.00000000 
0.09700    36569440.00000000 23227318.00000000 58282776.00000000 17243.41210938  1561744.62500000 1241870.75000000 
0.09800    36243164.00000000 23032544.00000000 57778004.00000000 16918.82226562  1538895.12500000 1223910.25000000 
0.09900    35921072.00000000 22840218.00000000 57279516.00000000 16598.63867188  1516238.50000000 1206118.87500000 
0.10000    35601668.00000000 22649912.00000000 56786480.00000000 16282.28710938  1493778.12500000 1188455.12500000 
0.10100    35285404.00000000 22461214.00000000 56297168.00000000 15969.69531250  1471483.62500000 1170899.50000000 
0.10200    34970856.00000000 22273644.00000000 55811024.00000000 15660.85156250  1449337.00000000 1153486.50000000 
0.10300    34657608.00000000 22086520.00000000 55326556.00000000 15355.67382812  1427304.75000000 1136134.00000000 
0.10400    34345532.00000000 21899800.00000000 54843492.00000000 15054.04980469  1405390.37500000 1118875.87500000 
0.10500    34033276.00000000 21712860.00000000 54359692.00000000 14756.03710938  1383585.87500000 1101691.25000000 
0.10600    33720468.00000000 21525692.00000000 53875624.00000000 14461.42871094  1361887.62500000 1084566.12500000 
0.10700    33407660.00000000 21337752.00000000 53389964.00000000 14170.47656250  1340270.12500000 1067517.75000000 
0.10800    33093166.00000000 21148742.00000000 52902512.00000000 13883.14355469  1318746.37500000 1050517.00000000 
0.10900    32777510.00000000 20958466.00000000 52411772.00000000 13599.25292969  1297319.37500000 1033593.75000000 
0.11000    32460178.00000000 20767056.00000000 51918640.00000000 13319.21386719  1275981.25000000 1016709.68750000 
0.11100    32140840.00000000 20574168.00000000 51421684.00000000 13042.72851562  1254704.00000000 999887.93750000 
0.11200    31819548.00000000 20379548.00000000 50921484.00000000 12769.96386719  1233548.00000000 983132.25000000 
0.11300    31495950.00000000 20183240.00000000 50416996.00000000 12501.08984375  1212480.87500000 966451.43750000 
0.11400    31170258.00000000 19985078.00000000 49908232.00000000 12236.14843750  1191513.50000000 949832.06250000 
0.11500    30842196.00000000 19785080.00000000 49395588.00000000 11975.05468750  1170651.00000000 933288.25000000 
0.11600    30511750.00000000 19583128.00000000 48878812.00000000 11717.96875000  1149915.62500000 916822.37500000 
0.11700    30178876.00000000 19379496.00000000 48357704.00000000 11465.06640625  1129301.75000000 900457.87500000 
0.11800    29843608.00000000 19173720.00000000 47832452.00000000 11216.12207031  1108819.12500000 884183.43750000 
0.11900    29506208.00000000 18966488.00000000 47302940.00000000 10971.34765625  1088486.87500000 868008.81250000 
0.12000    29166774.00000000 18757204.00000000 46769536.00000000 10730.84375000  1068285.25000000 851950.93750000 
0.12100    28825250.00000000 18546292.00000000 46232428.00000000 10494.59277344  1048270.93750000 836008.06250000 
0.12200    28481932.00000000 18333902.00000000 45692140.00000000 10262.55078125  1028404.12500000 820180.18750000 
0.12300    28136838.00000000 18120050.00000000 45148472.00000000 10034.88183594  1008726.37500000 804502.81250000 
0.12400    27790082.00000000 17904644.00000000 44602136.00000000 9811.33496094   989238.62500000 788958.00000000 
0.12500    27442144.00000000 17687946.00000000 44052148.00000000 9592.30371094   969941.06250000 773566.87500000 
0.12600    27092912.00000000 17470266.00000000 43501204.00000000 9377.56152344   950846.43750000 758339.81250000 
0.12700    26743072.00000000 17251326.00000000 42947540.00000000 9167.07031250   931963.56250000 743257.00000000 
0.12800    26392238.00000000 17031810.00000000 42392512.00000000 8960.85546875   913316.31250000 728355.43750000 
0.12900    26041080.00000000 16811532.00000000 41835396.00000000 8758.91015625   894891.87500000 713633.00000000 
0.13000    25689544.00000000 16590611.00000000 41278336.00000000 8561.15625000   876700.87500000 699085.87500000 
0.13100    25337876.00000000 16369557.00000000 40720456.00000000 8367.49707031   858752.06250000 684729.81250000 
0.13200    24986686.00000000 16148170.00000000 40162260.00000000 8178.05908203   841052.43750000 670565.87500000 
0.13300    24635768.00000000 15926658.00000000 39604560.00000000 7992.62353516   823596.18750000 656604.43750000 
0.13400    24285536.00000000 15705246.00000000 39047708.00000000 7811.17529297   806410.81250000 642844.68750000 
0.13500    23936144.00000000 15484060.00000000 38491652.00000000 7633.69287109   789474.93750000 629284.00000000 
0.13600    23587860.00000000 15263221.00000000 37937048.00000000 7460.02783203   772808.31250000 615929.93750000 
0.13700    23241148.00000000 15043078.00000000 37384008.00000000 7290.18261719   756408.25000000 602790.62500000 
0.13800    22895726.00000000 14823476.00000000 36833332.00000000 7123.96826172   740268.50000000 589859.75000000 
0.13900    22552056.00000000 14604812.00000000 36284728.00000000 6961.37451172   724403.87500000 577153.12500000 
0.14000    22210664.00000000 14387139.00000000 35739528.00000000 6802.39306641   708810.56250000 564657.06250000 
0.14100    21871224.00000000 14170552.00000000 35196920.00000000 6646.81103516   693490.56250000 552377.37500000 
0.14200    21533944.00000000 13955288.00000000 34658424.00000000 6494.55175781   678439.25000000 540312.56250000 
0.14300    21199498.00000000 13741289.00000000 34123280.00000000 6345.65576172   663666.00000000 528462.68750000 
0.14400    20867546.00000000 13528798.00000000 33592244.00000000 6199.92626953   649154.18750000 516834.59375000 
0.14500    20538584.00000000 13318022.00000000 33065384.00000000 6057.24755859   634917.56250000 505421.43750000 
0.14600    20212520.00000000 13108936.00000000 32543014.00000000 5917.73193359   620941.12500000 494223.15625000 
0.14700    19889430.00000000 12901555.00000000 32025446.00000000 5781.13232422   607237.93750000 483236.65625000 
0.14800    19569600.00000000 12696152.00000000 31513090.00000000 5647.34863281   593792.31250000 472456.65625000 
0.14900    19253358.00000000 12492723.00000000 31005734.00000000 5516.43066406   580604.12500000 461890.18750000 
0.15000    18940286.00000000 12291467.00000000 30503606.00000000 5388.26660156   567677.50000000 451526.62500000 
0.15100    18631038.00000000 12092218.00000000 30007118.00000000 5262.77734375   554999.93750000 441372.46875000 
0.15200    18325436.00000000 11895370.00000000 29516448.00000000 5139.92041016   542574.25000000 431420.78125000 
0.15300    18023234.00000000 11700680.00000000 29031464.00000000 5019.68750000   530402.25000000 421666.37500000 
0.15400    17724966.00000000 11508358.00000000 28552344.00000000 4901.89794922   518462.40625000 412105.84375000 
0.15500    17430810.00000000 11318356.00000000 28079618.00000000 4786.65087891   506773.43750000 402739.56250000 
0.15600    17140286.00000000 11130804.00000000 27612794.00000000 4673.77880859   495308.78125000 393565.25000000 
0.15700    16853690.00000000 10945713.00000000 27152248.00000000 4563.36767578   484087.00000000 384578.62500000 
0.15800    16571184.00000000 10763057.00000000 26697820.00000000 4455.29199219   473086.28125000 375771.53125000 
0.15900    16292681.00000000 10582899.00000000 26249986.00000000 4349.60302734   462313.87500000 367152.53125000 
0.16000    16017886.00000000 10405350.00000000 25808368.00000000 4246.10644531   451760.81250000 358702.71875000 
0.16100    15747560.00000000 10230370.00000000 25373144.00000000 4145.03759766   441426.34375000 350437.09375000 
0.16200    15480961.00000000 10057870.00000000 24944492.00000000 4046.15649414   431308.25000000 342335.78125000 
0.16300    15218551.00000000 9887926.00000000 24522144.00000000 3949.55029297   421394.78125000 334407.15625000 
0.16400    14960147.00000000 9720599.00000000 24106304.00000000 3855.17822266   411690.06250000 326644.31250000 
0.16500    14705743.00000000 9555770.00000000 23696676.00000000 3763.01245117   402186.15625000 319040.40625000 
0.16600    14455344.00000000 9393464.00000000 23293624.00000000 3673.09301758   392880.53125000 311598.62500000 
0.16700    14208758.00000000 9233898.00000000 22896710.00000000 3585.28076172   383771.59375000 304310.81250000 
0.16800    13966242.00000000 9076468.00000000 22506392.00000000 3499.70410156   374852.65625000 297177.68750000 
0.16900    13727786.00000000 8921907.00000000 22122222.00000000 3416.34155273   366127.75000000 290195.93750000 
0.17000    13493019.00000000 8769570.00000000 21744246.00000000 3335.11401367   357582.28125000 283359.15625000 
