# SAXS profile: number of points = 501, q_min = 0, q_max = 0.5, delta_q = 0.001
#    q    intensity 
0.00000    162238512.00000000 101202104.00000000 256271392.00000000 105506.27343750 8274609.00000000 6535275.50000000 
0.00100    162209504.00000000 101183632.00000000 256223776.00000000 105482.35937500 8272861.50000000 6533918.00000000 
0.00200    162119968.00000000 101127528.00000000 256082400.00000000 105409.95312500 8267719.50000000 6529835.00000000 
0.00300    161971088.00000000 101034464.00000000 255846960.00000000 105290.26562500 8259176.00000000 6523120.50000000 
0.00400    161761024.00000000 100904880.00000000 255516320.00000000 105122.50000000 8247197.50000000 6513695.00000000 
0.00500    161491120.00000000 100737720.00000000 255092128.00000000 104906.93750000 8231786.50000000 6501607.00000000 
0.00600    161161264.00000000 100534224.00000000 254574144.00000000 104644.53125000 8213039.50000000 6486866.00000000 
0.00700    160772160.00000000 100294080.00000000 253964112.00000000 104334.96093750 8190966.00000000 6469458.00000000 
0.00800    160326624.00000000 100018248.00000000 253261952.00000000 103979.68750000 8165560.50000000 6449444.50000000 
0.00900    159820352.00000000 99706536.00000000 252470176.00000000 103577.42968750 8136848.50000000 6426854.50000000 
0.01000    159258160.00000000 99358640.00000000 251587584.00000000 103130.89062500 8104891.00000000 6401721.00000000 
0.01100    158640960.00000000 98977104.00000000 250614672.00000000 102639.25000000 8069725.00000000 6374015.50000000 
0.01200    157968384.00000000 98560920.00000000 249554640.00000000 102103.57812500 8031395.50000000 6343850.00000000 
0.01300    157241184.00000000 98110360.00000000 248409808.00000000 101525.04687500 7989960.00000000 6311218.00000000 
0.01400    156457664.00000000 97626440.00000000 247178144.00000000 100903.25000000 7945455.50000000 6276216.00000000 
0.01500    155620736.00000000 97109680.00000000 245864496.00000000 100240.37500000 7897950.00000000 6238848.00000000 
0.01600    154732544.00000000 96560448.00000000 244466256.00000000 99536.64843750  7847510.00000000 6199147.00000000 
0.01700    153794448.00000000 95979144.00000000 242989856.00000000 98793.05468750  7794223.50000000 6157176.00000000 
0.01800    152804672.00000000 95367384.00000000 241434784.00000000 98010.60937500  7738076.50000000 6113005.50000000 
0.01900    151766800.00000000 94725552.00000000 239801568.00000000 97191.05468750  7679224.00000000 6066686.00000000 
0.02000    150681536.00000000 94054200.00000000 238094368.00000000 96335.07031250  7617693.50000000 6018268.50000000 
0.02100    149550048.00000000 93354192.00000000 236314736.00000000 95443.34375000  7553596.00000000 5967811.50000000 
0.02200    148373488.00000000 92626576.00000000 234463680.00000000 94517.68750000  7486994.50000000 5915380.50000000 
0.02300    147153088.00000000 91871792.00000000 232543280.00000000 93559.42187500  7417973.00000000 5861045.00000000 
0.02400    145890256.00000000 91090464.00000000 230558464.00000000 92569.05468750  7346633.00000000 5804885.50000000 
0.02500    144587232.00000000 90284336.00000000 228508096.00000000 91548.66406250  7273010.00000000 5746944.00000000 
0.02600    143244768.00000000 89454464.00000000 226397152.00000000 90498.68750000  7197251.00000000 5687297.50000000 
0.02700    141865200.00000000 88600056.00000000 224224544.00000000 89421.57031250  7119421.50000000 5626027.50000000 
0.02800    140448560.00000000 87723952.00000000 221996832.00000000 88318.07812500  7039623.00000000 5563174.50000000 
0.02900    138998560.00000000 86825752.00000000 219715472.00000000 87189.57031250  6957960.00000000 5498885.00000000 
0.03000    137514704.00000000 85907752.00000000 217380448.00000000 86038.07812500  6874507.50000000 5433181.00000000 
0.03100    135999856.00000000 84970568.00000000 214996768.00000000 84864.11718750  6789370.00000000 5366179.50000000 
0.03200    134455984.00000000 84014120.00000000 212567328.00000000 83670.21093750  6702652.00000000 5297895.50000000 
0.03300    132882992.00000000 83041088.00000000 210093104.00000000 82456.60156250  6614470.00000000 5228429.50000000 
0.03400    131284672.00000000 82051976.00000000 207577008.00000000 81225.65625000  6524876.50000000 5157887.00000000 
0.03500    129660536.00000000 81046624.00000000 205022128.00000000 79978.59375000  6434049.00000000 5086321.00000000 
0.03600    128015568.00000000 80027856.00000000 202431824.00000000 78717.13281250  6342032.00000000 5013877.00000000 
0.03700    126347512.00000000 78994928.00000000 199808464.00000000 77442.17968750  6248895.00000000 4940549.00000000 
0.03800    124661472.00000000 77950856.00000000 197153936.00000000 76155.94531250  6154804.50000000 4866417.00000000 
0.03900    122956832.00000000 76895552.00000000 194471888.00000000 74858.98437500  6059853.00000000 4791634.00000000 
0.04000    121236376.00000000 75830032.00000000 191764016.00000000 73553.57031250  5964133.50000000 4716203.00000000 
0.04100    119502680.00000000 74755696.00000000 189032832.00000000 72241.38281250  5867767.00000000 4640282.50000000 
0.04200    117755296.00000000 73673704.00000000 186283808.00000000 70922.44531250  5770770.00000000 4563913.50000000 
0.04300    115997696.00000000 72585016.00000000 183516656.00000000 69599.80468750  5673313.50000000 4487104.00000000 
0.04400    114230792.00000000 71490624.00000000 180736512.00000000 68273.70312500  5575497.00000000 4410085.50000000 
0.04500    112456744.00000000 70391536.00000000 177942592.00000000 66946.08593750  5477430.50000000 4332784.50000000 
0.04600    110676608.00000000 69288520.00000000 175139584.00000000 65618.14843750  5379131.50000000 4255321.50000000 
0.04700    108891952.00000000 68182480.00000000 172330192.00000000 64291.20312500  5280741.50000000 4177820.75000000 
0.04800    107105168.00000000 67074968.00000000 169516864.00000000 62966.58593750  5182419.50000000 4100295.50000000 
0.04900    105317216.00000000 65966588.00000000 166701184.00000000 61645.34765625  5084125.50000000 4022850.75000000 
0.05000    103530312.00000000 64858900.00000000 163886480.00000000 60328.84375000  4986054.00000000 3945525.25000000 
0.05100    101744984.00000000 63751908.00000000 161075568.00000000 59018.29296875  4888224.50000000 3868423.75000000 
0.05200    99963136.00000000 62647228.00000000 158270064.00000000 57715.20312500  4790751.00000000 3791583.00000000 
0.05300    98186424.00000000 61545660.00000000 155471728.00000000 56420.23437500  4693697.00000000 3715086.00000000 
0.05400    96416552.00000000 60447812.00000000 152684256.00000000 55134.42968750  4597172.00000000 3638974.50000000 
0.05500    94654120.00000000 59354448.00000000 149907840.00000000 53859.24609375  4501237.00000000 3563326.50000000 
0.05600    92900688.00000000 58267164.00000000 147145744.00000000 52595.28515625  4405959.50000000 3488210.75000000 
0.05700    91158400.00000000 57186156.00000000 144400624.00000000 51343.94921875  4311411.00000000 3413649.50000000 
0.05800    89427280.00000000 56112056.00000000 141673360.00000000 50105.77734375  4217669.00000000 3339730.75000000 
0.05900    87709464.00000000 55046192.00000000 138965952.00000000 48881.47656250  4124796.50000000 3266462.50000000 
0.06000    86005544.00000000 53988596.00000000 136281520.00000000 47672.32812500  4032845.50000000 3193948.50000000 
0.06100    84316904.00000000 52940432.00000000 133621040.00000000 46478.79296875  3941915.00000000 3122208.50000000 
0.06200    82644976.00000000 51902412.00000000 130985968.00000000 45301.79296875  3851997.00000000 3051279.00000000 
0.06300    80989944.00000000 50875012.00000000 128377680.00000000 44142.11328125  3763197.00000000 2981217.50000000 
0.06400    79352792.00000000 49858516.00000000 125797776.00000000 43000.09375000  3675547.25000000 2912030.25000000 
0.06500    77735240.00000000 48854160.00000000 123248744.00000000 41876.17187500  3589092.75000000 2843828.00000000 
0.06600    76137960.00000000 47861972.00000000 120730920.00000000 40771.46093750  3503893.75000000 2776579.25000000 
0.06700    74561648.00000000 46882396.00000000 118246016.00000000 39686.07421875  3419983.75000000 2710344.00000000 
0.06800    73006528.00000000 45917000.00000000 115795016.00000000 38620.80078125  3337378.25000000 2645134.00000000 
0.06900    71474904.00000000 44964716.00000000 113378856.00000000 37575.73046875  3256152.75000000 2581011.50000000 
0.07000    69965592.00000000 44026936.00000000 110999240.00000000 36550.87109375  3176285.00000000 2517967.00000000 
0.07100    68480624.00000000 43103868.00000000 108657280.00000000 35547.40625000  3097861.00000000 2456048.25000000 
0.07200    67019532.00000000 42195452.00000000 106353912.00000000 34564.65625000  3020880.25000000 2395239.50000000 
0.07300    65583540.00000000 41302308.00000000 104088568.00000000 33604.07031250  2945359.00000000 2335610.75000000 
0.07400    64172384.00000000 40425312.00000000 101863128.00000000 32664.57812500  2871343.75000000 2277137.50000000 
0.07500    62787040.00000000 39563748.00000000 99678480.00000000 31746.83789062  2798815.50000000 2219864.75000000 
0.07600    61428176.00000000 38718324.00000000 97534368.00000000 30850.88476562  2727803.75000000 2163748.00000000 
0.07700    60095140.00000000 37889284.00000000 95431968.00000000 29976.84179688  2658330.00000000 2108876.75000000 
0.07800    58789364.00000000 37076560.00000000 93371720.00000000 29124.69726562  2590406.50000000 2055166.62500000 
0.07900    57509892.00000000 36280640.00000000 91353280.00000000 28294.51367188  2524004.25000000 2002706.25000000 
0.08000    56257772.00000000 35501212.00000000 89377408.00000000 27486.05859375  2459149.75000000 1951450.62500000 
0.08100    55032692.00000000 34738828.00000000 87444272.00000000 26699.33789062  2395825.50000000 1901407.50000000 
0.08200    53835216.00000000 33992908.00000000 85553448.00000000 25934.03906250  2334094.00000000 1852570.62500000 
0.08300    52664468.00000000 33264034.00000000 83706432.00000000 25190.14453125  2273843.50000000 1804957.12500000 
0.08400    51521220.00000000 32551844.00000000 81902216.00000000 24467.55664062  2215152.75000000 1758531.25000000 
0.08500    50405252.00000000 31856984.00000000 80139912.00000000 23765.90625000  2157998.75000000 1713327.62500000 
0.08600    49316368.00000000 31178682.00000000 78421136.00000000 23084.93164062  2102303.50000000 1669295.00000000 
0.08700    48254632.00000000 30517060.00000000 76745048.00000000 22424.61523438  2048148.87500000 1626446.37500000 
0.08800    47219352.00000000 29872028.00000000 75110656.00000000 21784.14843750  1995454.37500000 1584749.00000000 
0.08900    46211112.00000000 29243532.00000000 73518336.00000000 21163.64648438  1944223.37500000 1544228.25000000 
0.09000    45229140.00000000 28631374.00000000 71967432.00000000 20562.57031250  1894446.12500000 1504819.25000000 
0.09100    44273176.00000000 28035416.00000000 70457608.00000000 19980.53710938  1846067.87500000 1466533.37500000 
0.09200    43342952.00000000 27455582.00000000 68988504.00000000 19417.19335938  1799101.50000000 1429360.37500000 
0.09300    42438564.00000000 26891438.00000000 67559672.00000000 18872.27343750  1753521.12500000 1393270.50000000 
0.09400    41558832.00000000 26342798.00000000 66170444.00000000 18344.92968750  1709262.62500000 1358241.12500000 
0.09500    40704100.00000000 25809586.00000000 64819964.00000000 17835.20117188  1666342.37500000 1324251.50000000 
0.09600    39873532.00000000 25291538.00000000 63508120.00000000 17342.30273438  1624719.12500000 1291290.75000000 
0.09700    39067024.00000000 24788312.00000000 62233640.00000000 16866.11132812  1584359.37500000 1259325.75000000 
0.09800    38283924.00000000 24299554.00000000 60996444.00000000 16405.89648438  1545241.75000000 1228333.00000000 
0.09900    37523752.00000000 23825260.00000000 59795400.00000000 15961.29101562  1507336.37500000 1198300.37500000 
0.10000    36786020.00000000 23364664.00000000 58629240.00000000 15531.75976562  1470593.12500000 1169185.50000000 
0.10100    36070468.00000000 22917962.00000000 57498156.00000000 15116.81054688  1434996.00000000 1140990.25000000 
0.10200    35375900.00000000 22484308.00000000 56400856.00000000 14716.08886719  1400512.25000000 1113659.25000000 
0.10300    34702368.00000000 22063876.00000000 55336568.00000000 14329.00585938  1367097.25000000 1087175.37500000 
0.10400    34049284.00000000 21655904.00000000 54303960.00000000 13955.05371094  1334733.62500000 1061524.37500000 
0.10500    33415686.00000000 21260426.00000000 53302780.00000000 13593.87011719  1303395.50000000 1036679.37500000 
0.10600    32801088.00000000 20876748.00000000 52331488.00000000 13244.77441406  1273022.62500000 1012591.75000000 
0.10700    32205646.00000000 20504742.00000000 51389944.00000000 12907.44921875  1243602.12500000 989267.25000000 
0.10800    31627982.00000000 20143800.00000000 50476740.00000000 12581.38085938  1215087.62500000 966654.81250000 
0.10900    31067826.00000000 19793954.00000000 49591048.00000000 12266.15234375  1187452.50000000 944740.12500000 
0.11000    30524434.00000000 19454424.00000000 48732088.00000000 11961.17675781  1160661.25000000 923494.93750000 
0.11100    29997522.00000000 19125182.00000000 47898492.00000000 11666.17578125  1134686.62500000 902889.18750000 
0.11200    29485872.00000000 18805732.00000000 47090056.00000000 11380.54882812  1109489.75000000 882905.06250000 
0.11300    28989502.00000000 18495494.00000000 46305124.00000000 11103.97558594  1085051.62500000 863514.25000000 
0.11400    28507694.00000000 18194476.00000000 45543532.00000000 10835.99023438  1061327.50000000 844691.06250000 
0.11500    28039836.00000000 17902128.00000000 44803552.00000000 10576.30468750  1038283.31250000 826409.31250000 
0.11600    27585200.00000000 17618102.00000000 44084736.00000000 10324.16992188  1015906.06250000 808653.18750000 
0.11700    27143492.00000000 17342044.00000000 43386308.00000000 10079.56445312  994145.68750000 791387.12500000 
0.11800    26713788.00000000 17073600.00000000 42706784.00000000 9842.01855469   972993.25000000 774597.68750000 
0.11900    26295894.00000000 16812504.00000000 42046048.00000000 9611.08398438   952395.93750000 758259.87500000 
0.12000    25889060.00000000 16558188.00000000 41402624.00000000 9386.47851562   932348.56250000 742350.37500000 
0.12100    25492894.00000000 16310652.00000000 40776420.00000000 9167.96484375   912823.62500000 726853.37500000 
0.12200    25106672.00000000 16069424.00000000 40165564.00000000 8954.99511719   893785.06250000 711739.68750000 
0.12300    24730108.00000000 15834104.00000000 39570500.00000000 8747.53710938   875212.25000000 697001.43750000 
0.12400    24362628.00000000 15604532.00000000 38989408.00000000 8545.14843750   857081.06250000 682612.12500000 
0.12500    24003618.00000000 15380300.00000000 38421800.00000000 8347.48828125   839367.50000000 668552.12500000 
0.12600    23653048.00000000 15161136.00000000 37867224.00000000 8154.54443359   822057.37500000 654816.81250000 
0.12700    23309794.00000000 14946756.00000000 37324916.00000000 7965.89111328   805118.56250000 641375.31250000 
0.12800    22974124.00000000 14736964.00000000 36793892.00000000 7781.26953125   788546.00000000 628216.00000000 
0.12900    22645122.00000000 14531446.00000000 36273580.00000000 7600.60058594   772299.81250000 615328.06250000 
0.13000    22322662.00000000 14329872.00000000 35763908.00000000 7423.60986328   756386.06250000 602691.87500000 
0.13100    22006068.00000000 14132172.00000000 35263376.00000000 7250.14794922   740769.18750000 590296.00000000 
0.13200    21695250.00000000 13937920.00000000 34772048.00000000 7080.01464844   725441.68750000 578127.81250000 
0.13300    21390010.00000000 13747123.00000000 34288976.00000000 6913.13574219   710389.12500000 566180.25000000 
0.13400    21089558.00000000 13559317.00000000 33813876.00000000 6749.20410156   695599.50000000 554435.06250000 
0.13500    20793676.00000000 13374414.00000000 33346150.00000000 6588.22705078   681049.56250000 542884.06250000 
0.13600    20502262.00000000 13192283.00000000 32885162.00000000 6430.06689453   666740.25000000 531521.18750000 
0.13700    20214978.00000000 13012611.00000000 32430794.00000000 6274.59423828   652650.12500000 520334.00000000 
0.13800    19931462.00000000 12835413.00000000 31982470.00000000 6121.70654297   638770.68750000 509314.21875000 
0.13900    19651708.00000000 12660341.00000000 31539706.00000000 5971.35009766   625101.25000000 498458.21875000 
0.14000    19375118.00000000 12487377.00000000 31102302.00000000 5823.44775391   611623.43750000 487757.65625000 
0.14100    19101830.00000000 12316386.00000000 30669758.00000000 5677.96923828   598343.31250000 477206.78125000 
0.14200    18831340.00000000 12147140.00000000 30241700.00000000 5534.79638672   585235.18750000 466795.28125000 
0.14300    18563692.00000000 11979628.00000000 29818192.00000000 5393.91064453   572311.81250000 456523.71875000 
0.14400    18298664.00000000 11813609.00000000 29398446.00000000 5255.24951172   559552.43750000 446386.87500000 
0.14500    18035964.00000000 11649126.00000000 28982828.00000000 5118.89990234   546959.93750000 436382.15625000 
0.14600    17775714.00000000 11486003.00000000 28570686.00000000 4984.72949219   534534.00000000 426505.53125000 
0.14700    17517630.00000000 11324213.00000000 28161828.00000000 4852.77978516   522269.18750000 416753.28125000 
0.14800    17261516.00000000 11163655.00000000 27756362.00000000 4722.99365234   510157.37500000 407124.15625000 
0.14900    17007430.00000000 11004303.00000000 27353798.00000000 4595.41699219   498200.84375000 397617.50000000 
0.15000    16755197.00000000 10845988.00000000 26954196.00000000 4470.01806641   486397.78125000 388229.62500000 
0.15100    16504880.00000000 10688803.00000000 26557380.00000000 4346.78369141   474747.65625000 378960.46875000 
0.15200    16256388.00000000 10532734.00000000 26163404.00000000 4225.85351562   463254.00000000 369812.59375000 
0.15300    16009681.00000000 10377663.00000000 25771966.00000000 4107.08789062   451910.71875000 360783.75000000 
0.15400    15764472.00000000 10223488.00000000 25383156.00000000 3990.52465820   440716.50000000 351874.75000000 
0.15500    15521095.00000000 10070375.00000000 24996906.00000000 3876.29711914   429678.84375000 343082.43750000 
0.15600    15279285.00000000 9918147.00000000 24613204.00000000 3764.32812500   418794.18750000 334410.46875000 
0.15700    15039215.00000000 9766924.00000000 24232014.00000000 3654.70263672   408068.62500000 325860.56250000 
0.15800    14800741.00000000 9616542.00000000 23853440.00000000 3547.33325195   397495.00000000 317430.71875000 
0.15900    14564029.00000000 9467303.00000000 23477286.00000000 3442.35009766   387081.90625000 309129.21875000 
0.16000    14328857.00000000 9318894.00000000 23103798.00000000 3339.72314453   376829.31250000 300947.34375000 
0.16100    14095651.00000000 9171589.00000000 22732998.00000000 3239.53955078   366738.09375000 292898.53125000 
0.16200    13864037.00000000 9025157.00000000 22364678.00000000 3141.71655273   356813.18750000 284974.53125000 
0.16300    13634258.00000000 8879903.00000000 21999070.00000000 3046.36791992   347053.68750000 277178.25000000 
0.16400    13406314.00000000 8735690.00000000 21636494.00000000 2953.44653320   337464.93750000 269515.40625000 
0.16500    13180302.00000000 8592448.00000000 21276592.00000000 2863.02587891   328045.87500000 261984.09375000 
0.16600    12956262.00000000 8450444.00000000 20919682.00000000 2775.08178711   318798.37500000 254590.25000000 
0.16700    12734137.00000000 8309511.00000000 20565754.00000000 2689.60131836   309727.90625000 247330.17187500 
0.16800    12514076.00000000 8169752.50000000 20215028.00000000 2606.62597656   300833.81250000 240206.53125000 
0.16900    12296117.00000000 8031272.50000000 19867542.00000000 2526.19116211   292118.03125000 233228.76562500 
0.17000    12080395.00000000 7894021.00000000 19523266.00000000 2448.26147461   283582.53125000 226386.92187500 
