# SAXS profile: number of points = 501, q_min = 0, q_max = 0.5, delta_q = 0.001
#    q    intensity 
0.00000    162237728.00000000 101201736.00000000 256272272.00000000 108165.32031250 8378249.00000000 6617115.50000000 
0.00100    162200416.00000000 101178296.00000000 256212192.00000000 108135.14843750 8376082.00000000 6615418.50000000 
0.00200    162089472.00000000 101107368.00000000 256033152.00000000 108043.92187500 8369576.00000000 6610292.00000000 
0.00300    161900432.00000000 100989928.00000000 255733888.00000000 107892.59375000 8358817.50000000 6601785.00000000 
0.00400    161634288.00000000 100824776.00000000 255316816.00000000 107680.41406250 8343726.50000000 6589944.00000000 
0.00500    161294128.00000000 100613880.00000000 254780400.00000000 107409.27343750 8324394.50000000 6574666.00000000 
0.00600    160878432.00000000 100356280.00000000 254126256.00000000 107078.50000000 8300851.50000000 6556113.00000000 
0.00700    160390208.00000000 100052600.00000000 253356432.00000000 106688.94531250 8273083.50000000 6534250.50000000 
0.00800    159826816.00000000 99704800.00000000 252472160.00000000 106241.00000000 8241192.50000000 6509085.00000000 
0.00900    159192992.00000000 99311976.00000000 251474272.00000000 105736.20312500 8205210.00000000 6480752.00000000 
0.01000    158487408.00000000 98874360.00000000 250363312.00000000 105174.84375000 8165236.50000000 6449223.50000000 
0.01100    157714368.00000000 98393496.00000000 249142416.00000000 104558.57812500 8121226.00000000 6414571.00000000 
0.01200    156871600.00000000 97869600.00000000 247813440.00000000 103887.95312500 8073387.50000000 6376836.50000000 
0.01300    155960240.00000000 97304888.00000000 246377968.00000000 103164.08593750 8021776.00000000 6336138.50000000 
0.01400    154982272.00000000 96697928.00000000 244838736.00000000 102388.89843750 7966377.50000000 6292519.00000000 
0.01500    153940784.00000000 96051352.00000000 243197904.00000000 101563.39062500 7907376.50000000 6246035.00000000 
0.01600    152836976.00000000 95366296.00000000 241457152.00000000 100688.95312500 7844798.50000000 6196776.00000000 
0.01700    151670592.00000000 94643024.00000000 239620704.00000000 99766.85937500  7778918.00000000 6144760.00000000 
0.01800    150446208.00000000 93882240.00000000 237691408.00000000 98799.60937500  7709682.50000000 6090183.50000000 
0.01900    149163584.00000000 93086704.00000000 235669344.00000000 97788.61718750  7637211.00000000 6033096.00000000 
0.02000    147825776.00000000 92256112.00000000 233563216.00000000 96735.28125000  7561661.00000000 5973561.00000000 
0.02100    146434832.00000000 91392424.00000000 231369568.00000000 95640.95312500  7483197.50000000 5911679.00000000 
0.02200    144991056.00000000 90496608.00000000 229095280.00000000 94507.60937500  7401835.00000000 5847549.00000000 
0.02300    143499872.00000000 89569808.00000000 226744528.00000000 93338.50000000  7317805.00000000 5781305.00000000 
0.02400    141960512.00000000 88615776.00000000 224320912.00000000 92134.00781250  7231159.00000000 5713065.00000000 
0.02500    140377984.00000000 87632696.00000000 221825008.00000000 90897.19531250  7142114.00000000 5642851.00000000 
0.02600    138751568.00000000 86623128.00000000 219262432.00000000 89630.40625000  7050761.00000000 5570830.00000000 
0.02700    137084816.00000000 85588600.00000000 216637264.00000000 88333.89062500  6957269.00000000 5497124.50000000 
0.02800    135382448.00000000 84530944.00000000 213953008.00000000 87010.75000000  6861726.50000000 5421841.50000000 
0.02900    133642976.00000000 83451208.00000000 211212256.00000000 85663.68750000  6764326.50000000 5345025.50000000 
0.03000    131871328.00000000 82351632.00000000 208420080.00000000 84294.07031250  6665198.50000000 5266892.00000000 
0.03100    130069368.00000000 81232744.00000000 205580736.00000000 82904.08593750  6564523.00000000 5187510.50000000 
0.03200    128240224.00000000 80096656.00000000 202697248.00000000 81496.61718750  6462343.00000000 5106963.00000000 
0.03300    126385576.00000000 78944968.00000000 199773776.00000000 80072.75000000  6358943.00000000 5025408.00000000 
0.03400    124508016.00000000 77778912.00000000 196815664.00000000 78635.13281250  6254333.00000000 4943009.00000000 
0.03500    122610384.00000000 76600896.00000000 193824480.00000000 77186.14062500  6148793.00000000 4859771.50000000 
0.03600    120695016.00000000 75411336.00000000 190805584.00000000 75727.14843750  6042387.50000000 4775851.50000000 
0.03700    118764024.00000000 74212136.00000000 187762912.00000000 74260.77343750  5935279.00000000 4691428.00000000 
0.03800    116820592.00000000 73005488.00000000 184698928.00000000 72788.88281250  5827571.00000000 4606502.00000000 
0.03900    114867072.00000000 71791832.00000000 181620240.00000000 71313.25781250  5719506.50000000 4521271.00000000 
0.04000    112905576.00000000 70574368.00000000 178528000.00000000 69836.39062500  5611132.50000000 4435803.00000000 
0.04100    110937912.00000000 69352016.00000000 175426960.00000000 68360.30468750  5502596.50000000 4350242.50000000 
0.04200    108967928.00000000 68128144.00000000 172321232.00000000 66885.94531250  5394088.00000000 4264643.00000000 
0.04300    106996728.00000000 66903556.00000000 169213952.00000000 65415.94140625  5285630.00000000 4179167.75000000 
0.04400    105027008.00000000 65679924.00000000 166109104.00000000 63951.48046875  5177466.00000000 4093848.00000000 
0.04500    103060768.00000000 64458504.00000000 163010240.00000000 62495.07421875  5069672.00000000 4008844.50000000 
0.04600    101100672.00000000 63240684.00000000 159919792.00000000 61047.73828125  4962373.50000000 3924217.50000000 
0.04700    99148048.00000000 62027852.00000000 156841280.00000000 59611.44531250  4855696.00000000 3840081.25000000 
0.04800    97205392.00000000 60820912.00000000 153778448.00000000 58187.53125000  4749703.00000000 3756505.75000000 
0.04900    95275456.00000000 59621504.00000000 150735568.00000000 56777.57421875  4644605.50000000 3673585.00000000 
0.05000    93358376.00000000 58430312.00000000 147713968.00000000 55382.86328125  4540410.00000000 3591403.25000000 
0.05100    91456696.00000000 57249048.00000000 144716208.00000000 54005.13671875  4437276.00000000 3510028.50000000 
0.05200    89573400.00000000 56078732.00000000 141746688.00000000 52645.43359375  4335201.00000000 3429558.75000000 
0.05300    87708432.00000000 54919844.00000000 138806592.00000000 51304.55078125  4234425.00000000 3350046.75000000 
0.05400    85864824.00000000 53774232.00000000 135899616.00000000 49983.97265625  4134941.75000000 3271540.00000000 
0.05500    84043720.00000000 52642408.00000000 133028520.00000000 48684.88281250  4036827.75000000 3194145.50000000 
0.05600    82245304.00000000 51525260.00000000 130193864.00000000 47407.80859375  3940177.75000000 3117924.75000000 
0.05700    80473008.00000000 50423356.00000000 127399272.00000000 46154.14453125  3845063.75000000 3042879.75000000 
0.05800    78725808.00000000 49338308.00000000 124645640.00000000 44924.16406250  3751574.25000000 2969094.75000000 
0.05900    77007456.00000000 48270136.00000000 121935120.00000000 43719.28515625  3659721.75000000 2896638.00000000 
0.06000    75317744.00000000 47219864.00000000 119269912.00000000 42539.18359375  3569573.75000000 2825523.25000000 
0.06100    73656880.00000000 46187584.00000000 116652080.00000000 41385.01171875  3481232.75000000 2755782.00000000 
0.06200    72027320.00000000 45174856.00000000 114082848.00000000 40257.48046875  3394639.50000000 2687478.25000000 
0.06300    70429504.00000000 44181464.00000000 111562448.00000000 39156.66015625  3309927.75000000 2620654.25000000 
0.06400    68862488.00000000 43208344.00000000 109093288.00000000 38082.55859375  3227081.25000000 2555248.25000000 
0.06500    67330056.00000000 42255596.00000000 106676136.00000000 37036.44140625  3146149.00000000 2491390.25000000 
0.06600    65830180.00000000 41323720.00000000 104311888.00000000 36017.59765625  3067130.25000000 2429039.00000000 
0.06700    64364824.00000000 40412808.00000000 102000736.00000000 35026.31640625  2990059.00000000 2368220.25000000 
0.06800    62934172.00000000 39523440.00000000 99744816.00000000 34062.62500000  2914960.75000000 2308924.25000000 
0.06900    61538012.00000000 38656196.00000000 97543440.00000000 33126.90234375  2841855.00000000 2251221.75000000 
0.07000    60176920.00000000 37810320.00000000 95397016.00000000 32218.85351562  2770685.75000000 2195072.25000000 
0.07100    58850908.00000000 36986204.00000000 93307536.00000000 31338.08007812  2701523.00000000 2140449.25000000 
0.07200    57560356.00000000 36184352.00000000 91272584.00000000 30484.66601562  2634303.50000000 2087387.00000000 
0.07300    56305432.00000000 35404780.00000000 89293768.00000000 29658.65820312  2569057.25000000 2035907.50000000 
0.07400    55085368.00000000 34646652.00000000 87370448.00000000 28859.00976562  2505759.75000000 1985935.50000000 
0.07500    53901300.00000000 33911080.00000000 85503312.00000000 28085.82421875  2444386.50000000 1937503.62500000 
0.07600    52751488.00000000 33196648.00000000 83691192.00000000 27338.54101562  2384929.75000000 1890554.75000000 
0.07700    51637240.00000000 32504544.00000000 81934536.00000000 26616.86328125  2327347.50000000 1845110.12500000 
0.07800    50556868.00000000 31833554.00000000 80231888.00000000 25920.16210938  2271652.00000000 1801117.12500000 
0.07900    49510632.00000000 31183876.00000000 78582040.00000000 25248.03125000  2217772.25000000 1758578.12500000 
0.08000    48498332.00000000 30555238.00000000 76986360.00000000 24599.78906250  2165681.00000000 1717457.00000000 
0.08100    47518980.00000000 29947138.00000000 75443240.00000000 23974.80273438  2115350.00000000 1677729.62500000 
0.08200    46572376.00000000 29359498.00000000 73951288.00000000 23372.57617188  2066756.00000000 1639353.12500000 
0.08300    45657724.00000000 28791918.00000000 72509656.00000000 22792.30078125  2019822.75000000 1602302.37500000 
0.08400    44774572.00000000 28243778.00000000 71118712.00000000 22233.48437500  1974547.87500000 1566544.50000000 
0.08500    43921944.00000000 27714840.00000000 69775192.00000000 21695.25585938  1930857.00000000 1532048.50000000 
0.08600    43099552.00000000 27204742.00000000 68479696.00000000 21177.09570312  1888709.25000000 1498774.12500000 
0.08700    42306632.00000000 26712836.00000000 67230016.00000000 20678.05664062  1848067.87500000 1466682.75000000 
0.08800    41541884.00000000 26238550.00000000 66026124.00000000 20197.60742188  1808873.62500000 1435722.75000000 
0.08900    40804672.00000000 25781728.00000000 64865560.00000000 19734.90820312  1771084.75000000 1405884.87500000 
0.09000    40094476.00000000 25341804.00000000 63746732.00000000 19289.05859375  1734631.50000000 1377100.87500000 
0.09100    39410652.00000000 24917876.00000000 62669944.00000000 18859.56250000  1699475.37500000 1349340.12500000 
0.09200    38751504.00000000 24509532.00000000 61632772.00000000 18445.52734375  1665579.12500000 1322565.75000000 
0.09300    38116960.00000000 24116524.00000000 60633748.00000000 18046.24023438  1632869.50000000 1296735.12500000 
0.09400    37505360.00000000 23738004.00000000 59670756.00000000 17660.96093750  1601286.62500000 1271797.75000000 
0.09500    36916212.00000000 23373478.00000000 58744164.00000000 17289.00390625  1570799.50000000 1247713.62500000 
0.09600    36348196.00000000 23022264.00000000 57850896.00000000 16929.65234375  1541343.12500000 1224463.62500000 
0.09700    35800984.00000000 22684012.00000000 56990164.00000000 16582.07812500  1512872.75000000 1201967.37500000 
0.09800    35273688.00000000 22357836.00000000 56160760.00000000 16245.85937500  1485339.00000000 1180219.62500000 
0.09900    34764960.00000000 22043614.00000000 55360424.00000000 15920.05957031  1458686.25000000 1159157.25000000 
0.10000    34273824.00000000 21740196.00000000 54588752.00000000 15604.10156250  1432857.75000000 1138754.62500000 
0.10100    33799124.00000000 21447564.00000000 53843024.00000000 15297.41796875  1407813.75000000 1118969.62500000 
0.10200    33341312.00000000 21164550.00000000 53122796.00000000 14999.26953125  1383504.75000000 1099765.00000000 
0.10300    32897816.00000000 20891136.00000000 52426192.00000000 14709.27441406  1359874.87500000 1081107.25000000 
0.10400    32468896.00000000 20626390.00000000 51752016.00000000 14426.66308594  1336902.00000000 1062944.25000000 
0.10500    32053166.00000000 20370108.00000000 51099168.00000000 14151.03125000  1314527.12500000 1045265.31250000 
0.10600    31649802.00000000 20121482.00000000 50465552.00000000 13881.71191406  1292683.25000000 1028017.87500000 
0.10700    31258216.00000000 19880156.00000000 49850440.00000000 13618.32031250  1271375.50000000 1011171.87500000 
0.10800    30877206.00000000 19645676.00000000 49252600.00000000 13360.47949219  1250548.62500000 994706.18750000 
0.10900    30506260.00000000 19417192.00000000 48670380.00000000 13107.49414062  1230152.00000000 978586.50000000 
0.11000    30144780.00000000 19194668.00000000 48102600.00000000 12859.29980469  1210160.25000000 962780.06250000 
0.11100    29791772.00000000 18977302.00000000 47548588.00000000 12615.24804688  1190535.50000000 947268.50000000 
0.11200    29446596.00000000 18764816.00000000 47006756.00000000 12375.04785156  1171260.37500000 932018.75000000 
0.11300    29108530.00000000 18556840.00000000 46476212.00000000 12138.53417969  1152278.25000000 917013.18750000 
0.11400    28777298.00000000 18352692.00000000 45956144.00000000 11905.30761719  1133585.37500000 902228.31250000 
0.11500    28451784.00000000 18152308.00000000 45445168.00000000 11675.02441406  1115146.62500000 887636.18750000 
0.11600    28131456.00000000 17955352.00000000 44942616.00000000 11447.54003906  1096935.37500000 873223.31250000 
0.11700    27815968.00000000 17761072.00000000 44447480.00000000 11222.68750000  1078935.62500000 858980.56250000 
0.11800    27504734.00000000 17569412.00000000 43958584.00000000 11000.13769531  1061119.00000000 844871.68750000 
0.11900    27197198.00000000 17380052.00000000 43475796.00000000 10779.80566406  1043468.12500000 830899.62500000 
0.12000    26892934.00000000 17192618.00000000 42997960.00000000 10561.41992188  1025967.06250000 817039.93750000 
0.12100    26591538.00000000 17006874.00000000 42524252.00000000 10345.19238281  1008608.62500000 803288.50000000 
0.12200    26292648.00000000 16822546.00000000 42054836.00000000 10130.70703125  991373.81250000 789627.18750000 
0.12300    25995770.00000000 16639419.00000000 41588368.00000000 9918.12402344   974250.50000000 776056.12500000 
0.12400    25700500.00000000 16457234.00000000 41124472.00000000 9707.23828125   957223.56250000 762554.37500000 
0.12500    25406802.00000000 16275839.00000000 40662632.00000000 9498.00488281   940293.68750000 749129.43750000 
0.12600    25114410.00000000 16095113.00000000 40202688.00000000 9290.61621094   923451.62500000 735771.00000000 
0.12700    24822566.00000000 15914776.00000000 39743760.00000000 9084.83593750   906695.25000000 722474.31250000 
0.12800    24531708.00000000 15734689.00000000 39285880.00000000 8880.80078125   890010.50000000 709232.37500000 
0.12900    24241294.00000000 15554930.00000000 38828528.00000000 8678.49902344   873406.00000000 696042.68750000 
0.13000    23951178.00000000 15375028.00000000 38371556.00000000 8477.99121094   856869.56250000 682917.62500000 
0.13100    23661190.00000000 15195261.00000000 37914840.00000000 8279.36621094   840413.43750000 669843.75000000 
0.13200    23371320.00000000 15015315.00000000 37458084.00000000 8082.65966797   824033.37500000 656824.50000000 
0.13300    23081514.00000000 14835273.00000000 37000800.00000000 7887.95898438   807733.43750000 643863.56250000 
0.13400    22791482.00000000 14655085.00000000 36543608.00000000 7695.33251953   791509.50000000 630965.56250000 
0.13500    22501694.00000000 14474596.00000000 36086012.00000000 7504.93017578   775379.43750000 618134.18750000 
0.13600    22211478.00000000 14293863.00000000 35627920.00000000 7316.72070312   759336.31250000 605371.56250000 
0.13700    21921230.00000000 14112983.00000000 35169248.00000000 7130.92968750   743390.25000000 592674.68750000 
0.13800    21630848.00000000 13931701.00000000 34710524.00000000 6947.60693359   727543.25000000 580055.81250000 
0.13900    21340392.00000000 13750356.00000000 34251008.00000000 6766.87744141   711812.43750000 567518.75000000 
0.14000    21050056.00000000 13568715.00000000 33791872.00000000 6588.87060547   696195.37500000 555074.00000000 
0.14100    20759596.00000000 13387036.00000000 33332062.00000000 6413.63085938   680699.12500000 542726.43750000 
0.14200    20469438.00000000 13205228.00000000 32872390.00000000 6241.25781250   665343.31250000 530477.43750000 
0.14300    20179276.00000000 13023324.00000000 32412950.00000000 6071.92480469   650120.43750000 518336.25000000 
0.14400    19889548.00000000 12841478.00000000 31953600.00000000 5905.64355469   635049.12500000 506303.09375000 
0.14500    19600316.00000000 12659721.00000000 31494880.00000000 5742.64111328   620139.56250000 494398.46875000 
0.14600    19311624.00000000 12478119.00000000 31036770.00000000 5582.87939453   605395.12500000 482622.87500000 
0.14700    19023448.00000000 12296864.00000000 30579852.00000000 5426.47900391   590821.87500000 470980.34375000 
0.14800    18736234.00000000 12115900.00000000 30123766.00000000 5273.58691406   576438.43750000 459480.56250000 
0.14900    18450102.00000000 11935341.00000000 29668876.00000000 5124.19238281   562239.43750000 448125.65625000 
0.15000    18164978.00000000 11755280.00000000 29215644.00000000 4978.38525391   548240.75000000 436923.59375000 
0.15100    17881114.00000000 11575900.00000000 28764080.00000000 4836.25781250   534450.93750000 425886.71875000 
0.15200    17598836.00000000 11397287.00000000 28314936.00000000 4697.78710938   520877.28125000 415018.12500000 
0.15300    17318038.00000000 11219450.00000000 27867828.00000000 4563.13916016   507525.87500000 404323.34375000 
0.15400    17038840.00000000 11042484.00000000 27423308.00000000 4432.22167969   494398.37500000 393803.37500000 
0.15500    16761593.00000000 10866591.00000000 26981482.00000000 4305.08935547   481510.75000000 383468.34375000 
0.15600    16486482.00000000 10691742.00000000 26542678.00000000 4181.83056641   468859.21875000 373322.18750000 
0.15700    16213528.00000000 10518201.00000000 26107174.00000000 4062.43164062   456458.18750000 363368.34375000 
0.15800    15942790.00000000 10345845.00000000 25675076.00000000 3946.81689453   444303.28125000 353610.68750000 
0.15900    15674587.00000000 10174950.00000000 25246744.00000000 3835.05908203   432404.75000000 344052.40625000 
0.16000    15408865.00000000 10005521.00000000 24822384.00000000 3727.09008789   420763.62500000 334700.03125000 
0.16100    15146092.00000000 9837716.00000000 24402170.00000000 3622.93920898   409388.03125000 325555.34375000 
0.16200    14885976.00000000 9671567.00000000 23986326.00000000 3522.52075195   398273.34375000 316618.03125000 
0.16300    14628878.00000000 9507058.00000000 23575000.00000000 3425.76611328   387425.50000000 307888.56250000 
0.16400    14374935.00000000 9344400.00000000 23168396.00000000 3332.74194336   376848.90625000 299374.09375000 
0.16500    14124141.00000000 9183679.00000000 22766816.00000000 3243.30029297   366536.18750000 291068.84375000 
0.16600    13876629.00000000 9024921.00000000 22370132.00000000 3157.39404297   356493.15625000 282977.37500000 
0.16700    13632472.00000000 8868133.00000000 21978644.00000000 3074.90454102   346719.56250000 275098.68750000 
0.16800    13391748.00000000 8713376.00000000 21592542.00000000 2995.84716797   337210.65625000 267430.93750000 
0.16900    13154614.00000000 8560761.00000000 21212062.00000000 2920.10693359   327975.09375000 259976.81250000 
0.17000    12921063.00000000 8410378.00000000 20836984.00000000 2847.59057617   318996.56250000 252732.70312500 
