# SAXS profile: number of points = 501, q_min = 0, q_max = 0.5, delta_q = 0.001
#    q    intensity 
0.00000    162234976.00000000 101201784.00000000 256270720.00000000 96287.75000000  7904858.50000000 6243230.50000000 
0.00100    162205904.00000000 101182192.00000000 256222032.00000000 96261.90625000  7903037.50000000 6241792.50000000 
0.00200    162116672.00000000 101125608.00000000 256077264.00000000 96184.52343750  7897565.00000000 6237481.00000000 
0.00300    161965216.00000000 101029672.00000000 255834816.00000000 96055.91406250  7888456.50000000 6230327.50000000 
0.00400    161747696.00000000 100896136.00000000 255493904.00000000 95875.89843750  7875710.50000000 6220293.00000000 
0.00500    161468048.00000000 100724280.00000000 255058080.00000000 95645.07812500  7859396.00000000 6207437.00000000 
0.00600    161127808.00000000 100514912.00000000 254522416.00000000 95364.32812500  7839438.00000000 6191804.00000000 
0.00700    160729744.00000000 100268336.00000000 253897072.00000000 95033.95312500  7815948.00000000 6173316.50000000 
0.00800    160266480.00000000 99985664.00000000 253176016.00000000 94653.89843750  7788945.00000000 6152089.50000000 
0.00900    159746128.00000000 99666088.00000000 252361232.00000000 94225.28906250  7758551.00000000 6128172.00000000 
0.01000    159168944.00000000 99310928.00000000 251454800.00000000 93748.80468750  7724669.00000000 6101522.50000000 
0.01100    158536208.00000000 98919552.00000000 250456656.00000000 93225.35937500  7687460.50000000 6072254.50000000 
0.01200    157845056.00000000 98493048.00000000 249369664.00000000 92656.39062500  7646920.00000000 6040369.50000000 
0.01300    157096496.00000000 98030224.00000000 248194208.00000000 92041.69531250  7603205.00000000 6005952.50000000 
0.01400    156291664.00000000 97535736.00000000 246934064.00000000 91383.84375000  7556226.50000000 5969054.00000000 
0.01500    155435296.00000000 97006360.00000000 245588048.00000000 90682.92968750  7506229.50000000 5929702.50000000 
0.01600    154525424.00000000 96445824.00000000 244158608.00000000 89940.72656250  7453179.50000000 5887978.00000000 
0.01700    153565424.00000000 95853672.00000000 242649824.00000000 89157.86718750  7397204.50000000 5843933.50000000 
0.01800    152554352.00000000 95229528.00000000 241061904.00000000 88336.62500000  7338381.50000000 5797701.50000000 
0.01900    151494768.00000000 94576120.00000000 239396960.00000000 87478.24218750  7276840.50000000 5749239.00000000 
0.02000    150388160.00000000 93892728.00000000 237659280.00000000 86583.97656250  7212598.50000000 5698702.00000000 
0.02100    149233568.00000000 93181544.00000000 235845808.00000000 85655.12500000  7145813.50000000 5646168.00000000 
0.02200    148037376.00000000 92441864.00000000 233964096.00000000 84693.48437500  7076546.50000000 5591656.50000000 
0.02300    146797456.00000000 91677272.00000000 232017168.00000000 83700.82812500  7004907.50000000 5535274.00000000 
0.02400    145515056.00000000 90885976.00000000 230002416.00000000 82678.39062500  6931026.50000000 5477137.50000000 
0.02500    144194448.00000000 90070552.00000000 227925520.00000000 81627.93750000  6855036.00000000 5417322.00000000 
0.02600    142835744.00000000 89231456.00000000 225791344.00000000 80552.02343750  6776986.50000000 5355861.00000000 
0.02700    141440352.00000000 88369864.00000000 223598000.00000000 79451.08593750  6697003.50000000 5292900.50000000 
0.02800    140012848.00000000 87486896.00000000 221352048.00000000 78327.82031250  6615200.00000000 5228548.00000000 
0.02900    138550368.00000000 86583632.00000000 219053600.00000000 77183.96093750  6531764.50000000 5162840.50000000 
0.03000    137056960.00000000 85660760.00000000 216706112.00000000 76020.35937500  6446704.50000000 5095847.50000000 
0.03100    135535152.00000000 84720304.00000000 214313184.00000000 74839.68750000  6360195.50000000 5027732.00000000 
0.03200    133986800.00000000 83763080.00000000 211876976.00000000 73643.00000000  6272319.50000000 4958571.50000000 
0.03300    132412448.00000000 82789584.00000000 209401600.00000000 72432.96875000  6183219.00000000 4888415.50000000 
0.03400    130814472.00000000 81800872.00000000 206888176.00000000 71211.04687500  6093024.00000000 4817372.00000000 
0.03500    129195032.00000000 80799448.00000000 204340672.00000000 69978.57812500  6001849.00000000 4745540.50000000 
0.03600    127554792.00000000 79784520.00000000 201760976.00000000 68737.56250000  5909790.50000000 4673036.50000000 
0.03700    125897672.00000000 78759928.00000000 199154416.00000000 67489.35156250  5816959.50000000 4599903.50000000 
0.03800    124224400.00000000 77724032.00000000 196521376.00000000 66236.60937500  5723511.50000000 4526287.00000000 
0.03900    122536072.00000000 76680240.00000000 193865760.00000000 64980.29296875  5629505.00000000 4452225.50000000 
0.04000    120835544.00000000 75626720.00000000 191187824.00000000 63721.98437500  5535087.50000000 4377832.50000000 
0.04100    119124192.00000000 74566616.00000000 188494384.00000000 62463.30468750  5440356.50000000 4303169.00000000 
0.04200    117404696.00000000 73501080.00000000 185787264.00000000 61205.80859375  5345455.50000000 4228340.00000000 
0.04300    115676712.00000000 72430856.00000000 183066336.00000000 59950.86328125  5250419.50000000 4153441.50000000 
0.04400    113943440.00000000 71356352.00000000 180337632.00000000 58700.18359375  5155416.00000000 4078548.00000000 
0.04500    112206320.00000000 70279160.00000000 177602528.00000000 57455.56640625  5060486.50000000 4003710.25000000 
0.04600    110467512.00000000 69200936.00000000 174863616.00000000 56217.72265625  4965775.00000000 3929038.50000000 
0.04700    108727944.00000000 68122552.00000000 172124624.00000000 54987.44531250  4871402.50000000 3854578.25000000 
0.04800    106988832.00000000 67043020.00000000 169384704.00000000 53767.23046875  4777345.00000000 3780445.25000000 
0.04900    105253528.00000000 65965488.00000000 166647216.00000000 52557.74218750  4683822.50000000 3706654.75000000 
0.05000    103520392.00000000 64890484.00000000 163918624.00000000 51359.89843750  4590844.50000000 3633334.50000000 
0.05100    101793520.00000000 63818692.00000000 161195776.00000000 50175.02343750  4498518.50000000 3560480.50000000 
0.05200    100074056.00000000 62750328.00000000 158485648.00000000 49003.91015625  4406920.50000000 3488201.75000000 
0.05300    98362216.00000000 61687148.00000000 155787312.00000000 47847.67578125  4316118.50000000 3416559.50000000 
0.05400    96659760.00000000 60629208.00000000 153104400.00000000 46707.36328125  4226154.50000000 3345574.25000000 
0.05500    94968760.00000000 59578400.00000000 150437312.00000000 45583.32421875  4137169.25000000 3275322.50000000 
0.05600    93288896.00000000 58534016.00000000 147788064.00000000 44476.84765625  4049174.50000000 3205862.25000000 
0.05700    91622680.00000000 57497732.00000000 145160912.00000000 43388.25000000  3962248.25000000 3137243.50000000 
0.05800    89970776.00000000 56470188.00000000 142554832.00000000 42318.53906250  3876419.75000000 3069480.25000000 
0.05900    88333256.00000000 55451528.00000000 139972480.00000000 41267.68359375  3791759.50000000 3002627.50000000 
0.06000    86712376.00000000 54443308.00000000 137414880.00000000 40236.39453125  3708335.25000000 2936734.25000000 
0.06100    85109328.00000000 53444784.00000000 134884608.00000000 39225.41406250  3626144.75000000 2871802.25000000 
0.06200    83524080.00000000 52457660.00000000 132382712.00000000 38235.05468750  3545251.25000000 2807923.25000000 
0.06300    81957728.00000000 51482280.00000000 129910560.00000000 37265.66406250  3465692.50000000 2745050.00000000 
0.06400    80410248.00000000 50517940.00000000 127467736.00000000 36317.02343750  3387490.25000000 2683283.50000000 
0.06500    78883320.00000000 49566972.00000000 125057096.00000000 35389.60156250  3310709.75000000 2622605.50000000 
0.06600    77377792.00000000 48628500.00000000 122679880.00000000 34483.62500000  3235331.25000000 2563042.50000000 
0.06700    75894280.00000000 47703196.00000000 120336072.00000000 33599.28515625  3161366.00000000 2504587.00000000 
0.06800    74431728.00000000 46791344.00000000 118027112.00000000 32736.56835938  3088888.50000000 2447312.50000000 
0.06900    72991808.00000000 45893508.00000000 115753336.00000000 31895.20703125  3017876.25000000 2391154.25000000 
0.07000    71575480.00000000 45009512.00000000 113514808.00000000 31075.58593750  2948322.25000000 2336172.75000000 
0.07100    70182880.00000000 44140744.00000000 111314784.00000000 30277.28320312  2880269.25000000 2282370.75000000 
0.07200    68812696.00000000 43285492.00000000 109149408.00000000 29500.12109375  2813695.00000000 2229730.00000000 
0.07300    67467560.00000000 42445628.00000000 107023936.00000000 28744.09960938  2748628.25000000 2178274.75000000 
0.07400    66146304.00000000 41620316.00000000 104935512.00000000 28008.82421875  2685041.00000000 2127996.25000000 
0.07500    64849296.00000000 40810340.00000000 102885064.00000000 27294.04296875  2622937.00000000 2078858.37500000 
0.07600    63576432.00000000 40015292.00000000 100873568.00000000 26599.54101562  2562279.75000000 2030898.00000000 
0.07700    62328380.00000000 39235496.00000000 98900400.00000000 25925.06835938  2503141.75000000 1984088.25000000 
0.07800    61105044.00000000 38470924.00000000 96965768.00000000 25269.95312500  2445392.00000000 1938411.25000000 
0.07900    59906264.00000000 37721484.00000000 95070056.00000000 24634.18750000  2389107.00000000 1893888.75000000 
0.08000    58731948.00000000 36987596.00000000 93213144.00000000 24016.92773438  2334260.00000000 1850487.75000000 
0.08100    57582052.00000000 36268596.00000000 91395176.00000000 23418.17187500  2280782.75000000 1808184.12500000 
0.08200    56456496.00000000 35564816.00000000 89614720.00000000 22837.20898438  2228704.75000000 1766971.00000000 
0.08300    55354880.00000000 34876100.00000000 87872184.00000000 22273.55859375  2177958.75000000 1726829.87500000 
0.08400    54277848.00000000 34202328.00000000 86168592.00000000 21726.86718750  2128565.75000000 1687739.87500000 
0.08500    53223928.00000000 33543392.00000000 84501392.00000000 21196.65234375  2080481.12500000 1649677.75000000 
0.08600    52193732.00000000 32899146.00000000 82872600.00000000 20682.35351562  2033661.00000000 1612624.37500000 
0.08700    51186904.00000000 32269422.00000000 81279352.00000000 20183.43359375  1988079.87500000 1576569.12500000 
0.08800    50202856.00000000 31654050.00000000 79723032.00000000 19699.37109375  1943741.00000000 1541479.25000000 
0.08900    49241052.00000000 31052312.00000000 78202112.00000000 19229.51953125  1900577.87500000 1507320.50000000 
0.09000    48302428.00000000 30464946.00000000 76715928.00000000 18773.72265625  1858581.87500000 1474090.75000000 
0.09100    47384688.00000000 29891408.00000000 75264992.00000000 18331.33203125  1817706.87500000 1441741.75000000 
0.09200    46488936.00000000 29330946.00000000 73848336.00000000 17901.54492188  1777929.62500000 1410263.50000000 
0.09300    45614296.00000000 28783848.00000000 72464440.00000000 17484.38085938  1739222.50000000 1379626.12500000 
0.09400    44759912.00000000 28249650.00000000 71112792.00000000 17078.66406250  1701538.00000000 1349817.50000000 
0.09500    43925712.00000000 27728196.00000000 69793888.00000000 16684.53515625  1664864.12500000 1320791.12500000 
0.09600    43111628.00000000 27219186.00000000 68506064.00000000 16301.20312500  1629135.12500000 1292528.00000000 
0.09700    42316628.00000000 26722228.00000000 67249336.00000000 15928.20507812  1594354.25000000 1265005.25000000 
0.09800    41540544.00000000 26237334.00000000 66022268.00000000 15565.22167969  1560478.25000000 1238207.25000000 
0.09900    40782956.00000000 25763980.00000000 64824116.00000000 15211.71777344  1527464.50000000 1212091.12500000 
0.10000    40043480.00000000 25301602.00000000 63654328.00000000 14867.23144531  1495287.37500000 1186641.50000000 
0.10100    39320992.00000000 24850438.00000000 62512804.00000000 14531.27929688  1463914.62500000 1161824.62500000 
0.10200    38615656.00000000 24409986.00000000 61397772.00000000 14203.63085938  1433337.25000000 1137622.62500000 
0.10300    37926672.00000000 23979832.00000000 60309168.00000000 13883.81933594  1403486.25000000 1114027.62500000 
0.10400    37254148.00000000 23559938.00000000 59245888.00000000 13571.56835938  1374354.25000000 1090992.25000000 
0.10500    36596772.00000000 23149892.00000000 58207364.00000000 13266.37109375  1345933.37500000 1068508.12500000 
0.10600    35954696.00000000 22749078.00000000 57192396.00000000 12968.01171875  1318142.62500000 1046536.06250000 
0.10700    35326872.00000000 22357858.00000000 56201336.00000000 12676.10937500  1291005.62500000 1025072.87500000 
0.10800    34713780.00000000 21975228.00000000 55232048.00000000 12390.51464844  1264470.00000000 1004094.00000000 
0.10900    34113824.00000000 21601422.00000000 54284780.00000000 12110.74414062  1238512.25000000 983575.68750000 
0.11000    33527172.00000000 21236012.00000000 53358796.00000000 11836.60546875  1213132.75000000 963499.56250000 
0.11100    32953468.00000000 20878568.00000000 52452988.00000000 11568.00097656  1188279.37500000 943845.12500000 
0.11200    32392082.00000000 20529120.00000000 51566824.00000000 11304.46875000  1163944.37500000 924605.93750000 
0.11300    31842748.00000000 20187192.00000000 50700004.00000000 11045.99023438  1140095.00000000 905751.56250000 
0.11400    31305034.00000000 19852402.00000000 49851164.00000000 10792.37402344  1116725.12500000 887271.68750000 
0.11500    30778206.00000000 19524710.00000000 49019872.00000000 10543.41113281  1093807.62500000 869151.50000000 
0.11600    30262126.00000000 19203904.00000000 48206080.00000000 10298.82519531  1071333.87500000 851375.43750000 
0.11700    29756736.00000000 18889648.00000000 47408480.00000000 10058.69921875  1049274.75000000 833929.43750000 
0.11800    29261258.00000000 18581600.00000000 46627056.00000000 9822.72363281   1027607.56250000 816796.18750000 
0.11900    28775438.00000000 18279644.00000000 45860956.00000000 9590.81250000   1006339.68750000 799974.37500000 
0.12000    28298616.00000000 17983742.00000000 45109240.00000000 9362.81054688   985436.62500000 783447.81250000 
0.12100    27831254.00000000 17693386.00000000 44372176.00000000 9138.95996094   964910.56250000 767203.87500000 
0.12200    27372312.00000000 17408358.00000000 43648800.00000000 8918.76464844   944721.75000000 751240.06250000 
0.12300    26921964.00000000 17128714.00000000 42938648.00000000 8702.31250000   924879.81250000 735530.06250000 
0.12400    26479462.00000000 16854048.00000000 42241596.00000000 8489.67773438   905356.31250000 720081.81250000 
0.12500    26044764.00000000 16584299.00000000 41556152.00000000 8280.54296875   886151.56250000 704878.31250000 
0.12600    25617818.00000000 16319306.00000000 40883468.00000000 8075.23779297   867260.37500000 689923.12500000 
0.12700    25198194.00000000 16058940.00000000 40221996.00000000 7873.38476562   848662.00000000 675196.87500000 
0.12800    24785640.00000000 15802969.00000000 39571732.00000000 7675.13671875   830364.31250000 660705.75000000 
0.12900    24379648.00000000 15551184.00000000 38932220.00000000 7480.45556641   812352.37500000 646440.37500000 
0.13000    23980468.00000000 15303518.00000000 38303048.00000000 7289.33496094   794627.56250000 632391.37500000 
0.13100    23587592.00000000 15059805.00000000 37683928.00000000 7101.63818359   777167.87500000 618554.06250000 
0.13200    23201200.00000000 14819882.00000000 37074952.00000000 6917.50195312   759983.12500000 604926.25000000 
0.13300    22820666.00000000 14583871.00000000 36475068.00000000 6736.89843750   743063.50000000 591516.18750000 
0.13400    22445988.00000000 14351326.00000000 35884744.00000000 6559.81542969   726406.06250000 578303.31250000 
0.13500    22077202.00000000 14122305.00000000 35303232.00000000 6386.26708984   710012.37500000 565294.75000000 
0.13600    21713804.00000000 13896800.00000000 34730536.00000000 6216.12548828   693872.56250000 552477.43750000 
0.13700    21355810.00000000 13674467.00000000 34166024.00000000 6049.57470703   677986.18750000 539868.56250000 
0.13800    21003282.00000000 13455487.00000000 33610000.00000000 5886.48535156   662346.62500000 527452.62500000 
0.13900    20655828.00000000 13239541.00000000 33062114.00000000 5727.02197266   646960.25000000 515230.75000000 
0.14000    20313246.00000000 13026787.00000000 32522158.00000000 5570.93701172   631830.18750000 503202.87500000 
0.14100    19976086.00000000 12816964.00000000 31989830.00000000 5418.48974609   616938.18750000 491367.03125000 
0.14200    19643546.00000000 12610157.00000000 31464772.00000000 5269.44189453   602293.31250000 479718.34375000 
0.14300    19315640.00000000 12406182.00000000 30947572.00000000 5124.01123047   587892.81250000 468266.18750000 
0.14400    18992498.00000000 12204936.00000000 30437300.00000000 4981.92773438   573730.62500000 456997.53125000 
0.14500    18674026.00000000 12006466.00000000 29934330.00000000 4843.36328125   559818.50000000 445920.25000000 
0.14600    18359886.00000000 11810820.00000000 29438532.00000000 4708.27929688   546142.62500000 435033.09375000 
0.14700    18050358.00000000 11617709.00000000 28949348.00000000 4576.66113281   532715.31250000 424333.65625000 
0.14800    17745190.00000000 11427416.00000000 28467082.00000000 4448.37792969   519521.37500000 413823.84375000 
0.14900    17444436.00000000 11239485.00000000 27991374.00000000 4323.49707031   506562.68750000 403493.15625000 
0.15000    17147812.00000000 11054224.00000000 27522462.00000000 4202.00927734   493846.18750000 393356.68750000 
0.15100    16855426.00000000 10871480.00000000 27059762.00000000 4083.79345703   481365.15625000 383399.25000000 
0.15200    16567261.00000000 10691194.00000000 26603976.00000000 3968.90600586   469127.93750000 373634.15625000 
0.15300    16283235.00000000 10513413.00000000 26154584.00000000 3857.27685547   457115.40625000 364051.21875000 
0.15400    16003199.00000000 10338057.00000000 25711012.00000000 3748.75415039   445341.09375000 354650.12500000 
0.15500    15727318.00000000 10165041.00000000 25274004.00000000 3643.42895508   433799.21875000 345432.15625000 
0.15600    15455379.00000000 9994443.00000000 24843280.00000000 3541.16381836   422490.25000000 336399.78125000 
0.15700    15187497.00000000 9826340.00000000 24418464.00000000 3441.98168945   411410.90625000 327547.50000000 
0.15800    14923499.00000000 9660347.00000000 23999924.00000000 3345.74707031   400557.31250000 318871.46875000 
0.15900    14663374.00000000 9496803.00000000 23587170.00000000 3252.44970703   389933.75000000 310379.84375000 
0.16000    14407119.00000000 9335552.00000000 23180476.00000000 3161.99047852   379533.03125000 302062.84375000 
0.16100    14154802.00000000 9176625.00000000 22779768.00000000 3074.36621094   369356.65625000 293924.37500000 
0.16200    13906227.00000000 9019975.00000000 22385190.00000000 2989.42846680   359401.34375000 285958.84375000 
0.16300    13661380.00000000 8865447.00000000 21996070.00000000 2907.19482422   349661.93750000 278169.71875000 
0.16400    13420377.00000000 8713287.00000000 21612996.00000000 2827.52734375   340139.62500000 270549.75000000 
0.16500    13182998.00000000 8563298.00000000 21235606.00000000 2750.39038086   330833.65625000 263101.43750000 
0.16600    12949365.00000000 8415528.00000000 20863924.00000000 2675.70971680   321739.25000000 255819.12500000 
0.16700    12719301.00000000 8269906.50000000 20497976.00000000 2603.38378906   312847.75000000 248703.68750000 
0.16800    12492825.00000000 8126490.50000000 20137394.00000000 2533.35205078   304163.31250000 241751.35937500 
0.16900    12270117.00000000 7985219.50000000 19782578.00000000 2465.61474609   295684.46875000 234961.70312500 
0.17000    12050907.00000000 7846134.00000000 19433204.00000000 2400.00341797   287405.06250000 228330.46875000 
