# SAXS profile: number of points = 501, q_min = 0, q_max = 0.5, delta_q = 0.001
#    q    intensity 
0.00000    162237712.00000000 101201512.00000000 256271232.00000000 100881.91406250 8091222.00000000 6390449.00000000 
0.00100    162204944.00000000 101180992.00000000 256220480.00000000 100855.93750000 8089346.50000000 6388950.50000000 
0.00200    162106640.00000000 101119744.00000000 256063168.00000000 100777.78906250 8083646.50000000 6384495.50000000 
0.00300    161942096.00000000 101015984.00000000 255801760.00000000 100648.23437500 8074212.50000000 6377041.00000000 
0.00400    161708736.00000000 100872744.00000000 255435856.00000000 100466.19531250 8061023.50000000 6366620.50000000 
0.00500    161410832.00000000 100688128.00000000 254966160.00000000 100233.93750000 8044063.00000000 6353288.50000000 
0.00600    161046192.00000000 100463224.00000000 254393664.00000000 99949.66406250  8023402.50000000 6337048.00000000 
0.00700    160616912.00000000 100197536.00000000 253717696.00000000 99615.55468750  7999064.50000000 6317873.50000000 
0.00800    160123840.00000000 99892528.00000000 252943504.00000000 99230.99218750  7971100.00000000 6295842.50000000 
0.00900    159563760.00000000 99548208.00000000 252067424.00000000 98797.28906250  7939533.00000000 6270983.00000000 
0.01000    158944224.00000000 99165120.00000000 251092688.00000000 98315.18750000  7904374.00000000 6243320.00000000 
0.01100    158261584.00000000 98743984.00000000 250020800.00000000 97784.55468750  7865732.00000000 6212916.50000000 
0.01200    157519920.00000000 98284376.00000000 248850736.00000000 97207.44531250  7823664.00000000 6179777.00000000 
0.01300    156717504.00000000 97787888.00000000 247587696.00000000 96584.19531250  7778238.00000000 6143976.50000000 
0.01400    155855792.00000000 97254656.00000000 246231824.00000000 95916.39843750  7729446.50000000 6105594.50000000 
0.01500    154935216.00000000 96686048.00000000 244784672.00000000 95204.88281250  7677478.00000000 6064636.50000000 
0.01600    153958304.00000000 96081208.00000000 243248720.00000000 94450.04687500  7622310.00000000 6021184.00000000 
0.01700    152925968.00000000 95443104.00000000 241625936.00000000 93653.38281250  7564083.00000000 5975365.00000000 
0.01800    151841200.00000000 94772144.00000000 239919136.00000000 92817.17968750  7502859.50000000 5927185.00000000 
0.01900    150704016.00000000 94068472.00000000 238129024.00000000 91941.21093750  7438737.50000000 5876679.50000000 
0.02000    149514096.00000000 93332040.00000000 236258880.00000000 91028.25000000  7371835.00000000 5823960.00000000 
0.02100    148275984.00000000 92566528.00000000 234310416.00000000 90078.99218750  7302228.00000000 5769160.00000000 
0.02200    146991120.00000000 91770920.00000000 232288720.00000000 89094.68750000  7229976.50000000 5712227.50000000 
0.02300    145658032.00000000 90947112.00000000 230192544.00000000 88077.54687500  7155236.50000000 5653382.00000000 
0.02400    144282912.00000000 90095648.00000000 228028752.00000000 87028.63281250  7078103.00000000 5592651.50000000 
0.02500    142865344.00000000 89218120.00000000 225797440.00000000 85949.93750000  6998709.50000000 5530067.50000000 
0.02600    141406064.00000000 88315632.00000000 223502464.00000000 84842.50781250  6917074.50000000 5465817.50000000 
0.02700    139908352.00000000 87388416.00000000 221144912.00000000 83708.64843750  6833446.00000000 5399926.00000000 
0.02800    138374432.00000000 86438368.00000000 218730192.00000000 82549.48437500  6747841.00000000 5332480.50000000 
0.02900    136805472.00000000 85466856.00000000 216261328.00000000 81367.19531250  6660384.00000000 5263613.00000000 
0.03000    135202544.00000000 84474992.00000000 213739392.00000000 80162.60156250  6571293.00000000 5193405.50000000 
0.03100    133569296.00000000 83463992.00000000 211169248.00000000 78939.08593750  6480532.00000000 5121968.00000000 
0.03200    131907408.00000000 82434560.00000000 208553600.00000000 77696.75781250  6388347.50000000 5049307.50000000 
0.03300    130218536.00000000 81388072.00000000 205894640.00000000 76437.83593750  6294793.00000000 4975580.00000000 
0.03400    128505168.00000000 80326264.00000000 203196464.00000000 75164.25000000  6200021.00000000 4900919.00000000 
0.03500    126767704.00000000 79250984.00000000 200463680.00000000 73877.64843750  6104156.50000000 4825376.50000000 
0.03600    125009872.00000000 78161720.00000000 197695248.00000000 72580.09375000  6007245.50000000 4749048.50000000 
0.03700    123233576.00000000 77061072.00000000 194898640.00000000 71272.74218750  5909541.00000000 4672007.00000000 
0.03800    121440456.00000000 75948920.00000000 192075616.00000000 69957.25000000  5811067.50000000 4594399.00000000 
0.03900    119632176.00000000 74828520.00000000 189227936.00000000 68635.87500000  5711937.50000000 4516303.00000000 
0.04000    117811776.00000000 73700216.00000000 186361472.00000000 67309.56250000  5612354.50000000 4437825.00000000 
0.04100    115980328.00000000 72564936.00000000 183478384.00000000 65980.72656250  5512328.50000000 4359017.50000000 
0.04200    114139832.00000000 71424480.00000000 180580080.00000000 64650.60546875  5412035.00000000 4279976.00000000 
0.04300    112292504.00000000 70278448.00000000 177669536.00000000 63320.71484375  5311629.00000000 4200794.50000000 
0.04400    110440840.00000000 69129872.00000000 174752880.00000000 61992.69531250  5211143.50000000 4121584.75000000 
0.04500    108586216.00000000 67978896.00000000 171831296.00000000 60667.69921875  5110712.00000000 4042403.25000000 
0.04600    106729552.00000000 66827164.00000000 168905408.00000000 59347.62500000  5010408.00000000 3963346.50000000 
0.04700    104873768.00000000 65675576.00000000 165982784.00000000 58033.85156250  4910406.50000000 3884498.75000000 
0.04800    103020904.00000000 64525440.00000000 163062848.00000000 56727.12109375  4810753.00000000 3805926.50000000 
0.04900    101172288.00000000 63378096.00000000 160150192.00000000 55429.82031250  4711595.50000000 3727726.75000000 
0.05000    99329208.00000000 62233828.00000000 157245520.00000000 54142.47265625  4612979.00000000 3649963.00000000 
0.05100    97493896.00000000 61094332.00000000 154352928.00000000 52866.41406250  4515032.50000000 3572726.75000000 
0.05200    95667296.00000000 59960172.00000000 151474976.00000000 51602.63281250  4417794.50000000 3496054.25000000 
0.05300    93852728.00000000 58832568.00000000 148614016.00000000 50353.09375000  4321393.00000000 3420022.50000000 
0.05400    92049736.00000000 57712384.00000000 145772016.00000000 49117.91406250  4225893.50000000 3344691.75000000 
0.05500    90260584.00000000 56600808.00000000 142949536.00000000 47898.21093750  4131413.50000000 3270160.25000000 
0.05600    88485872.00000000 55498172.00000000 140151872.00000000 46695.43359375  4037949.25000000 3196450.75000000 
0.05700    86728256.00000000 54405508.00000000 137380304.00000000 45510.08984375  3945628.00000000 3123601.25000000 
0.05800    84987936.00000000 53323636.00000000 134636320.00000000 44343.00390625  3854484.00000000 3051709.00000000 
0.05900    83266656.00000000 52253396.00000000 131922720.00000000 43195.17578125  3764606.00000000 2980789.75000000 
0.06000    81565752.00000000 51195516.00000000 129239592.00000000 42066.94140625  3676056.00000000 2910912.25000000 
0.06100    79885808.00000000 50150808.00000000 126589688.00000000 40959.26953125  3588866.00000000 2842108.25000000 
0.06200    78228072.00000000 49119784.00000000 123974720.00000000 39872.85156250  3503073.50000000 2774404.00000000 
0.06300    76593384.00000000 48102604.00000000 121396544.00000000 38807.89843750  3418772.75000000 2707870.50000000 
0.06400    74982816.00000000 47100308.00000000 118854840.00000000 37764.78515625  3335924.75000000 2642500.50000000 
0.06500    73396536.00000000 46113336.00000000 116352960.00000000 36743.94531250  3254675.75000000 2578354.25000000 
0.06600    71836608.00000000 45142256.00000000 113891128.00000000 35745.97265625  3174969.25000000 2515442.50000000 
0.06700    70303040.00000000 44187432.00000000 111470936.00000000 34771.10937500  3096879.25000000 2453782.25000000 
0.06800    68796176.00000000 43249680.00000000 109093312.00000000 33818.87890625  3020415.50000000 2393420.75000000 
0.06900    67317336.00000000 42328348.00000000 106758456.00000000 32891.17187500  2945594.50000000 2334330.25000000 
0.07000    65866164.00000000 41424616.00000000 104468232.00000000 31986.10156250  2872431.25000000 2276582.25000000 
0.07100    64444204.00000000 40538432.00000000 102222232.00000000 31105.10937500  2800976.25000000 2220136.50000000 
0.07200    63050120.00000000 39670088.00000000 100022600.00000000 30247.61523438  2731181.00000000 2165039.75000000 
0.07300    61685848.00000000 38819924.00000000 97868600.00000000 29413.55468750  2663106.50000000 2111268.75000000 
0.07400    60350996.00000000 37987928.00000000 95760936.00000000 28602.78710938  2596703.50000000 2058833.62500000 
0.07500    59045820.00000000 37174496.00000000 93699352.00000000 27815.66796875  2532042.75000000 2007733.12500000 
0.07600    57770576.00000000 36379440.00000000 91685752.00000000 27051.57226562  2469054.25000000 1957994.62500000 
0.07700    56524924.00000000 35603184.00000000 89719264.00000000 26310.58398438  2407754.75000000 1909551.50000000 
0.07800    55309564.00000000 34845284.00000000 87799720.00000000 25592.07617188  2348137.75000000 1862459.12500000 
0.07900    54124276.00000000 34105828.00000000 85926768.00000000 24896.10351562  2290183.00000000 1816660.87500000 
0.08000    52968608.00000000 33385028.00000000 84101520.00000000 24222.06445312  2233856.75000000 1772181.75000000 
0.08100    51842136.00000000 32682842.00000000 82323688.00000000 23569.73828125  2179209.50000000 1728981.62500000 
0.08200    50745896.00000000 31999004.00000000 80591488.00000000 22938.72460938  2126119.50000000 1687035.12500000 
0.08300    49678840.00000000 31333518.00000000 78905648.00000000 22328.59179688  2074653.12500000 1646351.75000000 
0.08400    48640620.00000000 30685732.00000000 77265488.00000000 21738.88085938  2024741.87500000 1606903.25000000 
0.08500    47631504.00000000 30056288.00000000 75671592.00000000 21169.04101562  1976341.37500000 1568655.75000000 
0.08600    46650568.00000000 29444430.00000000 74122440.00000000 20618.53320312  1929471.75000000 1531595.75000000 
0.08700    45697872.00000000 28849960.00000000 72617072.00000000 20087.04882812  1884057.75000000 1495705.87500000 
0.08800    44772280.00000000 28272854.00000000 71154760.00000000 19574.00390625  1840078.12500000 1460930.37500000 
0.08900    43874056.00000000 27712600.00000000 69735896.00000000 19078.55078125  1797511.12500000 1427277.87500000 
0.09000    43002636.00000000 27168962.00000000 68360000.00000000 18600.64843750  1756303.75000000 1394697.25000000 
0.09100    42157316.00000000 26641736.00000000 67023848.00000000 18139.17578125  1716422.25000000 1363171.87500000 
0.09200    41337608.00000000 26130568.00000000 65729392.00000000 17694.03906250  1677839.12500000 1332657.00000000 
0.09300    40542864.00000000 25634838.00000000 64474544.00000000 17264.28515625  1640500.25000000 1303139.12500000 
0.09400    39772520.00000000 25154696.00000000 63257700.00000000 16849.48437500  1604380.37500000 1274571.25000000 
0.09500    39026044.00000000 24689374.00000000 62078968.00000000 16448.93554688  1569427.62500000 1246934.12500000 
0.09600    38302668.00000000 24238540.00000000 60936508.00000000 16062.11425781  1535616.87500000 1220187.62500000 
0.09700    37602012.00000000 23801968.00000000 59830460.00000000 15688.57324219  1502879.62500000 1194297.00000000 
0.09800    36923132.00000000 23378944.00000000 58758260.00000000 15327.63867188  1471209.50000000 1169240.75000000 
0.09900    36265568.00000000 22969412.00000000 57720280.00000000 14978.71972656  1440522.50000000 1144981.00000000 
0.10000    35628100.00000000 22572716.00000000 56715032.00000000 14641.04687500  1410816.87500000 1121484.37500000 
0.10100    35011428.00000000 22188604.00000000 55740708.00000000 14314.26074219  1382019.00000000 1098705.87500000 
0.10200    34413324.00000000 21816542.00000000 54797024.00000000 13997.96484375  1354121.25000000 1076635.87500000 
0.10300    33833792.00000000 21455970.00000000 53882780.00000000 13691.26757812  1327058.12500000 1055222.75000000 
0.10400    33271924.00000000 21106896.00000000 52997020.00000000 13393.80761719  1300792.75000000 1034456.75000000 
0.10500    32727394.00000000 20768300.00000000 52138160.00000000 13105.27050781  1275302.25000000 1014289.12500000 
0.10600    32199088.00000000 20440140.00000000 51305288.00000000 12824.85156250  1250516.87500000 994684.31250000 
0.10700    31686782.00000000 20121948.00000000 50497172.00000000 12552.21484375  1226439.12500000 975627.62500000 
0.10800    31189260.00000000 19813238.00000000 49713604.00000000 12286.87402344  1203005.75000000 957087.87500000 
0.10900    30706206.00000000 19513512.00000000 48952160.00000000 12028.37890625  1180183.00000000 939032.81250000 
0.11000    30236928.00000000 19222596.00000000 48213056.00000000 11776.25390625  1157949.00000000 921434.56250000 
0.11100    29780716.00000000 18939710.00000000 47494296.00000000 11530.38671875  1136250.87500000 904275.12500000 
0.11200    29336860.00000000 18664766.00000000 46795668.00000000 11289.99511719  1115070.50000000 887507.43750000 
0.11300    28904660.00000000 18397228.00000000 46115532.00000000 11054.95703125  1094378.50000000 871127.25000000 
0.11400    28483922.00000000 18136822.00000000 45453200.00000000 10824.89746094  1074134.50000000 855107.81250000 
0.11500    28073730.00000000 17883072.00000000 44807620.00000000 10599.34472656  1054317.62500000 839427.75000000 
0.11600    27673536.00000000 17635822.00000000 44178136.00000000 10378.25781250  1034904.93750000 824049.43750000 
0.11700    27282938.00000000 17394416.00000000 43564052.00000000 10161.25195312  1015858.43750000 808976.06250000 
0.11800    26900974.00000000 17158540.00000000 42963632.00000000 9947.87792969   997156.31250000 794168.25000000 
0.11900    26527568.00000000 16928054.00000000 42376788.00000000 9738.09765625   978773.18750000 779615.37500000 
0.12000    26162122.00000000 16702533.00000000 41801904.00000000 9531.72265625   960703.25000000 765292.75000000 
0.12100    25804072.00000000 16481570.00000000 41239196.00000000 9328.48339844   942915.81250000 751209.12500000 
0.12200    25453036.00000000 16265109.00000000 40687548.00000000 9128.15722656   925390.87500000 737324.93750000 
0.12300    25108184.00000000 16052638.00000000 40146180.00000000 8930.63281250   908112.25000000 723635.25000000 
0.12400    24769576.00000000 15843951.00000000 39614356.00000000 8735.83984375   891064.68750000 710123.62500000 
0.12500    24436678.00000000 15638855.00000000 39091492.00000000 8543.51757812   874228.37500000 696778.18750000 
0.12600    24108962.00000000 15437068.00000000 38576836.00000000 8353.81152344   857607.56250000 683603.12500000 
0.12700    23786208.00000000 15238278.00000000 38070440.00000000 8166.31347656   841177.06250000 670568.31250000 
0.12800    23468230.00000000 15042408.00000000 37570708.00000000 7981.19531250   824914.87500000 657674.43750000 
0.12900    23154414.00000000 14849191.00000000 37078204.00000000 7798.30468750   808838.87500000 644921.43750000 
0.13000    22844696.00000000 14658411.00000000 36591680.00000000 7617.61767578   792923.06250000 632288.43750000 
0.13100    22538614.00000000 14469832.00000000 36111096.00000000 7439.07861328   777157.56250000 619781.00000000 
0.13200    22235890.00000000 14283542.00000000 35635688.00000000 7262.72802734   761552.62500000 607386.87500000 
0.13300    21936596.00000000 14099093.00000000 35165400.00000000 7088.57324219   746089.93750000 595106.37500000 
0.13400    21640250.00000000 13916471.00000000 34699932.00000000 6916.54248047   730770.31250000 582940.50000000 
0.13500    21346584.00000000 13735480.00000000 34238720.00000000 6746.72265625   715594.12500000 570881.43750000 
0.13600    21055792.00000000 13556160.00000000 33781600.00000000 6579.09960938   700554.81250000 558926.43750000 
0.13700    20767430.00000000 13378213.00000000 33328366.00000000 6413.78076172   685656.93750000 547083.93750000 
0.13800    20481394.00000000 13201611.00000000 32878798.00000000 6250.72070312   670897.12500000 535337.93750000 
0.13900    20197702.00000000 13026371.00000000 32432572.00000000 6090.00683594   656273.87500000 523705.87500000 
0.14000    19916274.00000000 12852387.00000000 31989678.00000000 5931.79003906   641795.43750000 512182.81250000 
0.14100    19636778.00000000 12679456.00000000 31550016.00000000 5775.94433594   627462.18750000 500770.53125000 
0.14200    19359244.00000000 12507760.00000000 31113120.00000000 5622.66259766   613273.50000000 489468.40625000 
0.14300    19083736.00000000 12337080.00000000 30679180.00000000 5472.00244141   599236.06250000 478279.09375000 
0.14400    18810008.00000000 12167325.00000000 30247976.00000000 5323.96826172   585343.68750000 467208.06250000 
0.14500    18538248.00000000 11998751.00000000 29819652.00000000 5178.73925781   571619.62500000 456260.84375000 
0.14600    18268426.00000000 11831110.00000000 29393932.00000000 5036.26953125   558055.62500000 445438.15625000 
0.14700    18000336.00000000 11664461.00000000 28971012.00000000 4896.64892578   544656.62500000 434745.34375000 
0.14800    17734038.00000000 11498739.00000000 28550852.00000000 4759.96191406   531425.31250000 424180.56250000 
0.14900    17469764.00000000 11334096.00000000 28133298.00000000 4626.29052734   518375.65625000 413757.21875000 
0.15000    17207378.00000000 11170373.00000000 27718492.00000000 4495.71582031   505503.71875000 403473.06250000 
0.15100    16946812.00000000 11007713.00000000 27306638.00000000 4368.20605469   492821.06250000 393332.31250000 
0.15200    16688255.00000000 10846086.00000000 26897692.00000000 4243.91162109   480333.18750000 383344.37500000 
0.15300    16431738.00000000 10685466.00000000 26491454.00000000 4122.79443359   468042.03125000 373507.03125000 
0.15400    16177183.00000000 10525966.00000000 26088418.00000000 4004.97973633   455952.12500000 363832.34375000 
0.15500    15924818.00000000 10367619.00000000 25688388.00000000 3890.48828125   444073.93750000 354313.71875000 
0.15600    15674531.00000000 10210311.00000000 25291458.00000000 3779.29907227   432405.81250000 344964.31250000 
0.15700    15426645.00000000 10054289.00000000 24897926.00000000 3671.51928711   420959.75000000 335788.03125000 
0.15800    15180927.00000000 9899484.00000000 24507676.00000000 3567.05810547   409732.00000000 326780.56250000 
0.15900    14937605.00000000 9746048.00000000 24121104.00000000 3466.08007812   398735.68750000 317954.00000000 
0.16000    14696573.00000000 9593810.00000000 23737892.00000000 3368.46923828   387961.03125000 309303.87500000 
0.16100    14458222.00000000 9442970.00000000 23358500.00000000 3274.30761719   377429.28125000 300843.75000000 
0.16200    14222428.00000000 9293619.00000000 22983096.00000000 3183.54028320   367131.71875000 292565.75000000 
0.16300    13989246.00000000 9145631.00000000 22611528.00000000 3096.16162109   357072.93750000 284477.03125000 
0.16400    13758714.00000000 8999197.00000000 22243782.00000000 3012.17602539   347261.28125000 276577.78125000 
0.16500    13530987.00000000 8854248.00000000 21880460.00000000 2931.54003906   337691.28125000 268870.81250000 
0.16600    13306134.00000000 8710903.00000000 21521320.00000000 2854.23266602   328368.46875000 261362.34375000 
0.16700    13084015.00000000 8569189.00000000 21166274.00000000 2780.18701172   319289.15625000 254043.25000000 
0.16800    12865024.00000000 8429118.00000000 20815852.00000000 2709.34765625   310457.53125000 246920.51562500 
0.16900    12649047.00000000 8290815.50000000 20470200.00000000 2641.72436523   301878.90625000 239995.90625000 
0.17000    12435983.00000000 8154226.50000000 20128856.00000000 2577.20727539   293545.96875000 233268.73437500 
