# SAXS profile: number of points = 501, q_min = 0, q_max = 0.5, delta_q = 0.001
#    q    intensity 
0.00000    162234944.00000000 101201872.00000000 256271504.00000000 103392.80468750 8191290.50000000 6469433.50000000 
0.00100    162203712.00000000 101181288.00000000 256220752.00000000 103365.93750000 8189410.50000000 6467985.50000000 
0.00200    162110448.00000000 101121376.00000000 256068576.00000000 103285.53906250 8183772.00000000 6463547.50000000 
0.00300    161950896.00000000 101021192.00000000 255813184.00000000 103152.74218750 8174308.50000000 6456120.00000000 
0.00400    161725040.00000000 100881888.00000000 255456256.00000000 102966.56250000 8161178.50000000 6445781.00000000 
0.00500    161432496.00000000 100702112.00000000 255000272.00000000 102728.00000000 8144311.00000000 6432496.50000000 
0.00600    161076544.00000000 100482424.00000000 254441888.00000000 102437.50000000 8123716.50000000 6416282.00000000 
0.00700    160659152.00000000 100224848.00000000 253785536.00000000 102094.60937500 8099467.50000000 6397190.50000000 
0.00800    160176080.00000000 99927912.00000000 253031088.00000000 101701.17968750 8071599.00000000 6375281.50000000 
0.00900    159632448.00000000 99593192.00000000 252178864.00000000 101257.16406250 8040151.50000000 6350538.00000000 
0.01000    159028640.00000000 99220168.00000000 251228592.00000000 100763.45312500 8005181.50000000 6322979.50000000 
0.01100    158364656.00000000 98810232.00000000 250184176.00000000 100221.65625000 7966678.50000000 6292695.50000000 
0.01200    157641792.00000000 98362720.00000000 249046976.00000000 99631.18750000  7924795.50000000 6259732.00000000 
0.01300    156859440.00000000 97879096.00000000 247814592.00000000 98993.77343750  7879542.00000000 6224165.00000000 
0.01400    156017872.00000000 97359504.00000000 246494512.00000000 98310.50000000  7831000.00000000 6185938.00000000 
0.01500    155120928.00000000 96805544.00000000 245085248.00000000 97583.30468750  7779242.50000000 6145195.50000000 
0.01600    154169200.00000000 96217336.00000000 243588976.00000000 96811.73437500  7724365.50000000 6102027.00000000 
0.01700    153164128.00000000 95595952.00000000 242007392.00000000 95998.78906250  7666412.00000000 6056405.00000000 
0.01800    152106048.00000000 94942368.00000000 240343472.00000000 95144.65625000  7605512.50000000 6008448.50000000 
0.01900    150995296.00000000 94256824.00000000 238598736.00000000 94251.25781250  7541744.50000000 5958244.50000000 
0.02000    149838480.00000000 93540136.00000000 236776496.00000000 93319.79687500  7475167.00000000 5905855.50000000 
0.02100    148629840.00000000 92793808.00000000 234877712.00000000 92352.03906250  7405917.50000000 5851333.50000000 
0.02200    147376192.00000000 92019016.00000000 232906112.00000000 91349.42968750  7334082.50000000 5794804.50000000 
0.02300    146077056.00000000 91215872.00000000 230863696.00000000 90313.31250000  7259772.00000000 5736301.50000000 
0.02400    144734800.00000000 90386104.00000000 228753456.00000000 89245.42187500  7183120.00000000 5675946.00000000 
0.02500    143352320.00000000 89530344.00000000 226576128.00000000 88147.46093750  7104181.00000000 5613781.50000000 
0.02600    141927344.00000000 88649952.00000000 224337456.00000000 87021.86718750  7023103.00000000 5549910.00000000 
0.02700    140466160.00000000 87745696.00000000 222037968.00000000 85868.99218750  6939964.00000000 5484457.50000000 
0.02800    138969504.00000000 86818888.00000000 219681696.00000000 84691.89062500  6854949.00000000 5417499.50000000 
0.02900    137436384.00000000 85871240.00000000 217272240.00000000 83491.37500000  6768089.50000000 5349082.50000000 
0.03000    135872288.00000000 84902752.00000000 214809680.00000000 82269.62500000  6679561.50000000 5279386.00000000 
0.03100    134276480.00000000 83915368.00000000 212300208.00000000 81028.07031250  6589469.50000000 5208434.00000000 
0.03200    132652480.00000000 82910072.00000000 209744192.00000000 79769.32812500  6497921.00000000 5136331.00000000 
0.03300    131003352.00000000 81888712.00000000 207147664.00000000 78494.07812500  6405051.00000000 5063147.00000000 
0.03400    129327232.00000000 80851048.00000000 204509952.00000000 77205.35937500  6310956.00000000 4989048.50000000 
0.03500    127628696.00000000 79798984.00000000 201837632.00000000 75903.81250000  6215773.50000000 4914045.00000000 
0.03600    125910112.00000000 78734096.00000000 199130976.00000000 74591.60156250  6119635.00000000 4838278.50000000 
0.03700    124171944.00000000 77657016.00000000 196394624.00000000 73270.18750000  6022665.00000000 4761858.00000000 
0.03800    122416656.00000000 76570128.00000000 193632736.00000000 71942.39062500  5924954.00000000 4684875.50000000 
0.03900    120646760.00000000 75473520.00000000 190845632.00000000 70608.73437500  5826622.00000000 4607395.00000000 
0.04000    118863120.00000000 74368192.00000000 188037920.00000000 69270.90625000  5727806.50000000 4529509.50000000 
0.04100    117068744.00000000 73256456.00000000 185209568.00000000 67931.07031250  5628598.00000000 4451291.50000000 
0.04200    115265080.00000000 72137000.00000000 182369520.00000000 66591.26562500  5529086.50000000 4372899.00000000 
0.04300    113453784.00000000 71013408.00000000 179515856.00000000 65251.53906250  5429435.50000000 4294316.00000000 
0.04400    111636600.00000000 69885856.00000000 176653072.00000000 63914.49609375  5329687.00000000 4215718.00000000 
0.04500    109815632.00000000 68755936.00000000 173784896.00000000 62581.39453125  5230007.00000000 4137115.75000000 
0.04600    107992536.00000000 67624168.00000000 170911664.00000000 61254.05468750  5130488.50000000 4058634.50000000 
0.04700    106168960.00000000 66492708.00000000 168038960.00000000 59933.16015625  5031245.00000000 3980355.75000000 
0.04800    104346688.00000000 65361148.00000000 165167888.00000000 58620.33203125  4932337.00000000 3902351.50000000 
0.04900    102528104.00000000 64231744.00000000 162300400.00000000 57316.82031250  4833858.50000000 3824677.75000000 
0.05000    100713640.00000000 63104884.00000000 159441328.00000000 56023.99609375  4735915.00000000 3747442.75000000 
0.05100    98905512.00000000 61982012.00000000 156591440.00000000 54743.02734375  4638582.50000000 3670684.50000000 
0.05200    97105224.00000000 60863152.00000000 153752032.00000000 53474.58593750  4541984.50000000 3594456.00000000 
0.05300    95314688.00000000 59750344.00000000 150928352.00000000 52220.34375000  4446148.00000000 3518832.75000000 
0.05400    93534392.00000000 58643448.00000000 148120880.00000000 50981.12109375  4351186.50000000 3443913.00000000 
0.05500    91765952.00000000 57543992.00000000 145332512.00000000 49757.33593750  4257152.50000000 3369698.50000000 
0.05600    90010152.00000000 56452888.00000000 142564240.00000000 48550.49609375  4164108.25000000 3296282.00000000 
0.05700    88270216.00000000 55370500.00000000 139820368.00000000 47361.17578125  4072169.75000000 3223721.50000000 
0.05800    86546656.00000000 54297896.00000000 137099616.00000000 46189.88671875  3981348.50000000 3152043.75000000 
0.05900    84839392.00000000 53235688.00000000 134405712.00000000 45037.57421875  3891716.50000000 3081309.00000000 
0.06000    83150624.00000000 52184440.00000000 131742304.00000000 43904.50000000  3803314.50000000 3011496.75000000 
0.06100    81480200.00000000 51145376.00000000 129106744.00000000 42792.13671875  3716236.25000000 2942762.00000000 
0.06200    79831256.00000000 50118368.00000000 126503872.00000000 41699.90234375  3630467.00000000 2875055.75000000 
0.06300    78202312.00000000 49104492.00000000 123934752.00000000 40629.04296875  3546105.75000000 2808447.75000000 
0.06400    76596544.00000000 48104192.00000000 121398864.00000000 39579.07421875  3463149.75000000 2742920.75000000 
0.06500    75012616.00000000 47117908.00000000 118899472.00000000 38551.41796875  3381651.75000000 2678569.50000000 
0.06600    73453656.00000000 46146068.00000000 116437456.00000000 37545.37500000  3301632.25000000 2615399.50000000 
0.06700    71918048.00000000 45189724.00000000 114013056.00000000 36561.39843750  3223156.00000000 2553387.75000000 
0.06800    70407560.00000000 44248244.00000000 111628648.00000000 35599.83203125  3146178.00000000 2492604.50000000 
0.06900    68922424.00000000 43322852.00000000 109283432.00000000 34660.57421875  3070756.50000000 2433037.50000000 
0.07000    67463744.00000000 42413152.00000000 106980072.00000000 33744.38281250  2996909.50000000 2374702.00000000 
0.07100    66030768.00000000 41520096.00000000 104718152.00000000 32850.22656250  2924655.50000000 2317612.50000000 
0.07200    64625288.00000000 40644016.00000000 102498280.00000000 31978.59765625  2853985.00000000 2261789.25000000 
0.07300    63247252.00000000 39784424.00000000 100321000.00000000 31129.00976562  2784911.25000000 2207231.25000000 
0.07400    61896600.00000000 38941964.00000000 98188184.00000000 30302.32421875  2717443.50000000 2153904.50000000 
0.07500    60573488.00000000 38117216.00000000 96097984.00000000 29497.41796875  2651570.00000000 2101847.50000000 
0.07600    59278376.00000000 37309200.00000000 94052296.00000000 28714.01367188  2587290.50000000 2051059.87500000 
0.07700    58011492.00000000 36518648.00000000 92051328.00000000 27952.47460938  2524593.00000000 2001512.25000000 
0.07800    56772908.00000000 35746324.00000000 90094152.00000000 27212.15039062  2463466.25000000 1953234.50000000 
0.07900    55562256.00000000 34990912.00000000 88181904.00000000 26492.98046875  2403927.00000000 1906175.00000000 
0.08000    54379980.00000000 34253384.00000000 86314736.00000000 25794.44140625  2345918.75000000 1860329.75000000 
0.08100    53225688.00000000 33533328.00000000 84491544.00000000 25116.08789062  2289476.75000000 1815721.50000000 
0.08200    52099760.00000000 32830958.00000000 82712416.00000000 24457.73828125  2234532.50000000 1772298.87500000 
0.08300    51001272.00000000 32145958.00000000 80977256.00000000 23818.93554688  2181086.25000000 1730059.00000000 
0.08400    49931032.00000000 31478188.00000000 79286576.00000000 23199.08593750  2129129.75000000 1688987.75000000 
0.08500    48888120.00000000 30827738.00000000 77639512.00000000 22597.98828125  2078599.87500000 1649061.25000000 
0.08600    47872104.00000000 30194296.00000000 76035288.00000000 22015.15820312  2029495.62500000 1610263.75000000 
0.08700    46883732.00000000 29577836.00000000 74473128.00000000 21449.76367188  1981796.62500000 1572564.25000000 
0.08800    45921464.00000000 28977798.00000000 72953768.00000000 20901.70117188  1935452.87500000 1535946.75000000 
0.08900    44985776.00000000 28394480.00000000 71476016.00000000 20370.32812500  1890457.87500000 1500393.37500000 
0.09000    44075700.00000000 27827378.00000000 70038576.00000000 19855.14062500  1846771.37500000 1465872.75000000 
0.09100    43191392.00000000 27276094.00000000 68642568.00000000 19355.69140625  1804361.00000000 1432355.00000000 
0.09200    42332116.00000000 26740496.00000000 67285400.00000000 18871.41015625  1763187.87500000 1399818.00000000 
0.09300    41497212.00000000 26220530.00000000 65967360.00000000 18401.86328125  1723218.12500000 1368238.50000000 
0.09400    40686100.00000000 25715650.00000000 64687916.00000000 17946.46093750  1684424.75000000 1337590.87500000 
0.09500    39899084.00000000 25225682.00000000 63445444.00000000 17504.73046875  1646766.75000000 1307830.25000000 
0.09600    39134840.00000000 24750162.00000000 62240020.00000000 17076.30468750  1610228.12500000 1278963.75000000 
0.09700    38393552.00000000 24288782.00000000 61069900.00000000 16660.44726562  1574756.12500000 1250937.87500000 
0.09800    37673956.00000000 23841232.00000000 59935044.00000000 16256.93750000  1540313.87500000 1223725.12500000 
0.09900    36976100.00000000 23407512.00000000 58834212.00000000 15865.19433594  1506873.37500000 1197308.75000000 
0.10000    36298636.00000000 22986538.00000000 57766508.00000000 15484.55664062  1474397.75000000 1171653.50000000 
0.10100    35641964.00000000 22578722.00000000 56730648.00000000 15114.88378906  1442854.62500000 1146734.37500000 
0.10200    35004656.00000000 22183094.00000000 55726772.00000000 14755.59179688  1412220.37500000 1122526.37500000 
0.10300    34386812.00000000 21799584.00000000 54752844.00000000 14406.11132812  1382422.50000000 1099003.00000000 
0.10400    33787076.00000000 21427780.00000000 53808408.00000000 14066.17675781  1353469.25000000 1076138.12500000 
0.10500    33205946.00000000 21067202.00000000 52892696.00000000 13735.65625000  1325321.12500000 1053898.50000000 
0.10600    32641704.00000000 20717546.00000000 52004508.00000000 13413.50390625  1297929.25000000 1032253.87500000 
0.10700    32094434.00000000 20378528.00000000 51142528.00000000 13099.88867188  1271279.87500000 1011203.25000000 
0.10800    31563122.00000000 20049660.00000000 50306492.00000000 12794.32812500  1245328.00000000 990699.00000000 
0.10900    31047648.00000000 19730734.00000000 49495148.00000000 12496.36621094  1220041.87500000 970732.18750000 
0.11000    30546902.00000000 19421312.00000000 48707604.00000000 12205.83789062  1195407.37500000 951268.75000000 
0.11100    30060852.00000000 19120836.00000000 47943368.00000000 11922.18457031  1171384.12500000 932286.75000000 
0.11200    29588470.00000000 18828908.00000000 47200548.00000000 11645.41796875  1147958.87500000 913770.06250000 
0.11300    29129532.00000000 18545510.00000000 46478972.00000000 11375.17089844  1125088.87500000 895705.00000000 
0.11400    28683078.00000000 18270346.00000000 45777684.00000000 11111.00585938  1102751.87500000 878052.81250000 
0.11500    28249096.00000000 18002644.00000000 45095684.00000000 10852.86914062  1080938.25000000 860805.18750000 
0.11600    27826684.00000000 17742110.00000000 44432260.00000000 10600.44238281  1059598.50000000 843935.25000000 
0.11700    27415592.00000000 17488798.00000000 43786080.00000000 10353.53710938  1038740.87500000 827439.87500000 
0.11800    27014668.00000000 17242134.00000000 43156948.00000000 10111.93750000  1018310.25000000 811292.06250000 
0.11900    26624160.00000000 17001482.00000000 42543680.00000000 9875.45996094   998317.93750000 795467.87500000 
0.12000    26243316.00000000 16767203.00000000 41946084.00000000 9643.85644531   978721.62500000 779965.50000000 
0.12100    25871582.00000000 16538353.00000000 41362552.00000000 9417.21679688   959518.68750000 764769.31250000 
0.12200    25508456.00000000 16315109.00000000 40792964.00000000 9195.12011719   940684.75000000 749857.43750000 
0.12300    25153654.00000000 16096945.00000000 40236260.00000000 8977.57617188   922200.06250000 735220.75000000 
0.12400    24806772.00000000 15883672.00000000 39691504.00000000 8764.44335938   904054.50000000 720852.25000000 
0.12500    24467050.00000000 15674755.00000000 39158900.00000000 8555.49609375   886231.18750000 706727.31250000 
0.12600    24134662.00000000 15470356.00000000 38637512.00000000 8350.79980469   868728.37500000 692844.12500000 
0.12700    23808820.00000000 15269938.00000000 38126004.00000000 8150.16943359   851511.06250000 679194.25000000 
0.12800    23489122.00000000 15073405.00000000 37624412.00000000 7953.54052734   834574.12500000 665760.81250000 
0.12900    23175380.00000000 14880479.00000000 37132276.00000000 7760.79052734   817927.87500000 652538.43750000 
0.13000    22867242.00000000 14690974.00000000 36648560.00000000 7571.95605469   801539.93750000 639531.62500000 
0.13100    22564400.00000000 14504423.00000000 36173132.00000000 7386.86474609   785397.06250000 626712.31250000 
0.13200    22266262.00000000 14321085.00000000 35705080.00000000 7205.50195312   769508.87500000 614082.25000000 
0.13300    21972946.00000000 14140340.00000000 35244448.00000000 7027.84179688   753859.43750000 601640.81250000 
0.13400    21684020.00000000 13962322.00000000 34790416.00000000 6853.81152344   738440.87500000 589372.56250000 
0.13500    21399074.00000000 13786535.00000000 34342552.00000000 6683.37207031   723250.25000000 577283.62500000 
0.13600    21118052.00000000 13613106.00000000 33900756.00000000 6516.45605469   708269.00000000 565359.62500000 
0.13700    20840584.00000000 13441817.00000000 33464670.00000000 6353.10839844   693514.75000000 553599.12500000 
0.13800    20566536.00000000 13272462.00000000 33033554.00000000 6193.19238281   678957.56250000 541996.93750000 
0.13900    20295792.00000000 13104859.00000000 32607342.00000000 6036.79101562   664612.62500000 530558.50000000 
0.14000    20027774.00000000 12939103.00000000 32185440.00000000 5883.75292969   650464.75000000 519269.40625000 
0.14100    19762914.00000000 12774852.00000000 31767900.00000000 5734.15771484   636518.18750000 508132.62500000 
0.14200    19500514.00000000 12611997.00000000 31354428.00000000 5587.87158203   622760.37500000 497146.03125000 
0.14300    19240560.00000000 12450568.00000000 30944734.00000000 5444.95263672   609198.75000000 486305.78125000 
0.14400    18982966.00000000 12290359.00000000 30538288.00000000 5305.31640625   595822.31250000 475611.56250000 
0.14500    18727688.00000000 12131455.00000000 30134954.00000000 5168.99316406   582641.00000000 465065.46875000 
0.14600    18474506.00000000 11973574.00000000 29734996.00000000 5035.87890625   569639.50000000 454661.78125000 
0.14700    18223390.00000000 11816840.00000000 29338022.00000000 4905.99462891   556831.31250000 444399.87500000 
0.14800    17974046.00000000 11660998.00000000 28943592.00000000 4779.27880859   544196.43750000 434279.65625000 
0.14900    17726456.00000000 11506043.00000000 28551726.00000000 4655.70800781   531746.68750000 424299.12500000 
0.15000    17480738.00000000 11352049.00000000 28162462.00000000 4535.22656250   519477.46875000 414459.43750000 
0.15100    17236572.00000000 11198849.00000000 27775506.00000000 4417.83837891   507388.46875000 404759.90625000 
0.15200    16993988.00000000 11046519.00000000 27390922.00000000 4303.53417969   495483.93750000 395204.31250000 
0.15300    16752991.00000000 10894933.00000000 27008624.00000000 4192.14843750   483757.43750000 385784.65625000 
0.15400    16513505.00000000 10743993.00000000 26628082.00000000 4083.65673828   472205.68750000 376503.46875000 
0.15500    16275441.00000000 10593868.00000000 26249964.00000000 3978.13891602   460835.50000000 367363.53125000 
0.15600    16038917.00000000 10444363.00000000 25873552.00000000 3875.43212891   449636.40625000 358363.65625000 
0.15700    15803737.00000000 10295604.00000000 25499540.00000000 3775.54858398   438621.84375000 349504.09375000 
0.15800    15569913.00000000 10147496.00000000 25127216.00000000 3678.37622070   427779.21875000 340779.09375000 
0.15900    15337451.00000000 10000153.00000000 24756964.00000000 3583.90405273   417117.03125000 332194.56250000 
0.16000    15106469.00000000 9853382.00000000 24388684.00000000 3492.06591797   406626.31250000 323750.68750000 
0.16100    14876870.00000000 9707393.00000000 24022446.00000000 3402.82348633   396314.34375000 315446.62500000 
0.16200    14648625.00000000 9562060.00000000 23657994.00000000 3316.10156250   386179.21875000 307281.00000000 
0.16300    14421643.00000000 9417559.00000000 23295706.00000000 3231.82519531   376214.03125000 299252.00000000 
0.16400    14196325.00000000 9273678.00000000 22935570.00000000 3149.97290039   366425.62500000 291361.28125000 
0.16500    13972391.00000000 9130545.00000000 22577250.00000000 3070.44506836   356812.18750000 283610.96875000 
0.16600    13749825.00000000 8988139.00000000 22221466.00000000 2993.21606445   347370.09375000 275996.46875000 
0.16700    13528696.00000000 8846495.00000000 21867400.00000000 2918.15649414   338098.09375000 268520.18750000 
0.16800    13309131.00000000 8705758.00000000 21515858.00000000 2845.27392578   328995.40625000 261178.23437500 
0.16900    13091192.00000000 8565818.00000000 21166350.00000000 2774.52368164   320068.50000000 253976.32812500 
0.17000    12874724.00000000 8426745.00000000 20819368.00000000 2705.77172852   311306.71875000 246909.51562500 
