# SAXS profile: number of points = 501, q_min = 0, q_max = 0.5, delta_q = 0.001
#    q    intensity 
0.00000    162235200.00000000 101201768.00000000 256271984.00000000 106736.15625000 8322703.00000000 6573258.50000000 
0.00100    162207568.00000000 101183552.00000000 256225936.00000000 106710.25000000 8320859.50000000 6571833.50000000 
0.00200    162122032.00000000 101130064.00000000 256086848.00000000 106631.94531250 8315492.00000000 6567604.00000000 
0.00300    161976400.00000000 101039320.00000000 255856880.00000000 106500.70312500 8306472.00000000 6560509.00000000 
0.00400    161770720.00000000 100912960.00000000 255533088.00000000 106318.00000000 8293898.00000000 6550631.00000000 
0.00500    161505360.00000000 100750328.00000000 255120640.00000000 106083.60937500 8277721.50000000 6537942.50000000 
0.00600    161182064.00000000 100553344.00000000 254614432.00000000 105796.99218750 8258009.50000000 6522479.00000000 
0.00700    160801216.00000000 100319560.00000000 254019200.00000000 105460.53125000 8234783.00000000 6504259.00000000 
0.00800    160363376.00000000 100051480.00000000 253334128.00000000 105072.62500000 8208089.00000000 6483257.50000000 
0.00900    159867088.00000000 99748216.00000000 252558560.00000000 104635.75000000 8177882.00000000 6459589.00000000 
0.01000    159315776.00000000 99410800.00000000 251697616.00000000 104148.61718750 8144312.50000000 6433222.50000000 
0.01100    158710608.00000000 99039632.00000000 250747552.00000000 103613.99218750 8107370.50000000 6404179.00000000 
0.01200    158049856.00000000 98634936.00000000 249712160.00000000 103030.57812500 8067096.50000000 6372624.50000000 
0.01300    157335536.00000000 98195832.00000000 248593248.00000000 102401.16406250 8023603.50000000 6338446.50000000 
0.01400    156566128.00000000 97724896.00000000 247388336.00000000 101725.67187500 7976874.00000000 6301752.00000000 
0.01500    155744720.00000000 97221456.00000000 246103888.00000000 101005.33593750 7926993.50000000 6262596.50000000 
0.01600    154871936.00000000 96686448.00000000 244736544.00000000 100240.92187500 7874072.00000000 6221058.00000000 
0.01700    153949424.00000000 96120088.00000000 243291008.00000000 99434.10937500  7818129.00000000 6177125.50000000 
0.01800    152977408.00000000 95523848.00000000 241767456.00000000 98585.54687500  7759264.50000000 6130905.00000000 
0.01900    151956768.00000000 94898024.00000000 240169024.00000000 97696.71875000  7697579.50000000 6082417.50000000 
0.02000    150889072.00000000 94243272.00000000 238495856.00000000 96768.89843750  7633032.50000000 6031780.00000000 
0.02100    149775008.00000000 93560000.00000000 236752608.00000000 95803.43750000  7565889.00000000 5979054.50000000 
0.02200    148617360.00000000 92848672.00000000 234937264.00000000 94801.82812500  7496094.00000000 5924236.50000000 
0.02300    147415616.00000000 92111360.00000000 233053696.00000000 93764.83593750  7423835.00000000 5867431.50000000 
0.02400    146172240.00000000 91347912.00000000 231104832.00000000 92695.24218750  7349129.00000000 5808794.00000000 
0.02500    144887968.00000000 90559192.00000000 229093008.00000000 91592.60156250  7272100.00000000 5748255.50000000 
0.02600    143564448.00000000 89746456.00000000 227017392.00000000 90460.17968750  7192839.50000000 5686019.50000000 
0.02700    142202704.00000000 88909976.00000000 224883056.00000000 89298.64843750  7111497.50000000 5622077.50000000 
0.02800    140804800.00000000 88050832.00000000 222692304.00000000 88110.25781250  7028078.00000000 5556548.00000000 
0.02900    139373040.00000000 87171248.00000000 220445520.00000000 86896.09375000  6942750.00000000 5489500.50000000 
0.03000    137906048.00000000 86269640.00000000 218146880.00000000 85657.22656250  6855632.00000000 5421023.00000000 
0.03100    136408896.00000000 85348712.00000000 215797600.00000000 84397.07812500  6766752.50000000 5351191.50000000 
0.03200    134881632.00000000 84408648.00000000 213401040.00000000 83115.57812500  6676247.50000000 5280098.50000000 
0.03300    133324176.00000000 83450984.00000000 210958480.00000000 81814.94531250  6584303.00000000 5207769.50000000 
0.03400    131740488.00000000 82476192.00000000 208474144.00000000 80497.27343750  6490918.00000000 5134379.50000000 
0.03500    130131368.00000000 81486480.00000000 205949728.00000000 79163.29687500  6396308.50000000 5059978.00000000 
0.03600    128498296.00000000 80481224.00000000 203386832.00000000 77815.50000000  6300441.00000000 4984656.00000000 
0.03700    126842848.00000000 79461872.00000000 200788480.00000000 76455.28125000  6203575.50000000 4908435.00000000 
0.03800    125167608.00000000 78429104.00000000 198158448.00000000 75084.09375000  6105717.50000000 4831479.50000000 
0.03900    123473096.00000000 77384664.00000000 195497152.00000000 73704.17187500  6006987.50000000 4753839.50000000 
0.04000    121760800.00000000 76329392.00000000 192807648.00000000 72315.67968750  5907554.00000000 4675577.00000000 
0.04100    120033528.00000000 75264496.00000000 190096304.00000000 70922.27343750  5807465.00000000 4596848.50000000 
0.04200    118291920.00000000 74190952.00000000 187361552.00000000 69524.32031250  5706837.00000000 4517676.50000000 
0.04300    116537352.00000000 73108824.00000000 184605072.00000000 68123.26562500  5605753.50000000 4438167.00000000 
0.04400    114772192.00000000 72019600.00000000 181830896.00000000 66721.46093750  5504369.50000000 4358337.50000000 
0.04500    112998144.00000000 70923832.00000000 179042096.00000000 65319.65625000  5402714.00000000 4278350.50000000 
0.04600    111216576.00000000 69823464.00000000 176241824.00000000 63919.33984375  5301002.50000000 4198243.50000000 
0.04700    109428712.00000000 68718320.00000000 173430496.00000000 62522.58203125  5199180.00000000 4118094.50000000 
0.04800    107635656.00000000 67609928.00000000 170611664.00000000 61130.00000000  5097457.50000000 4038014.50000000 
0.04900    105840504.00000000 66499956.00000000 167787296.00000000 59743.52343750  4995896.00000000 3958019.00000000 
0.05000    104042176.00000000 65388152.00000000 164959952.00000000 58364.47265625  4894584.50000000 3878214.75000000 
0.05100    102245104.00000000 64275876.00000000 162131856.00000000 56993.61718750  4793607.00000000 3798673.50000000 
0.05200    100448824.00000000 63164016.00000000 159305392.00000000 55632.68750000  4693103.50000000 3719455.25000000 
0.05300    98655856.00000000 62053320.00000000 156482368.00000000 54282.88671875  4593038.00000000 3640618.00000000 
0.05400    96866088.00000000 60944860.00000000 153665824.00000000 52944.89843750  4493618.00000000 3562237.00000000 
0.05500    95081784.00000000 59839008.00000000 150855776.00000000 51620.06250000  4394831.50000000 3484366.75000000 
0.05600    93304712.00000000 58736988.00000000 148056848.00000000 50309.75000000  4296793.50000000 3407078.50000000 
0.05700    91535656.00000000 57639344.00000000 145269040.00000000 49014.42187500  4199596.00000000 3330422.75000000 
0.05800    89775224.00000000 56547040.00000000 142496384.00000000 47735.28515625  4103253.75000000 3254453.50000000 
0.05900    88025192.00000000 55460608.00000000 139737888.00000000 46473.58593750  4007909.50000000 3179223.25000000 
0.06000    86286600.00000000 54380660.00000000 136998464.00000000 45229.31250000  3913544.25000000 3104762.25000000 
0.06100    84561072.00000000 53308608.00000000 134276976.00000000 44004.05078125  3820278.50000000 3031184.25000000 
0.06200    82849544.00000000 52244452.00000000 131579120.00000000 42797.77734375  3728146.75000000 2958446.75000000 
0.06300    81152216.00000000 51188692.00000000 128901944.00000000 41612.05468750  3637201.00000000 2886635.25000000 
0.06400    79470448.00000000 50142344.00000000 126248968.00000000 40446.25000000  3547495.75000000 2815798.50000000 
0.06500    77806192.00000000 49106264.00000000 123621800.00000000 39302.41015625  3459083.50000000 2745972.50000000 
0.06600    76158936.00000000 48080240.00000000 121021592.00000000 38180.09765625  3371979.50000000 2677166.75000000 
0.06700    74529608.00000000 47065108.00000000 118450200.00000000 37080.18359375  3286275.00000000 2609429.25000000 
0.06800    72920080.00000000 46061896.00000000 115908264.00000000 36002.76171875  3201958.25000000 2542794.00000000 
0.06900    71331184.00000000 45070476.00000000 113397960.00000000 34948.36328125  3119111.25000000 2477285.75000000 
0.07000    69762400.00000000 44091464.00000000 110919184.00000000 33917.01171875  3037716.75000000 2412939.00000000 
0.07100    68214720.00000000 43125576.00000000 108474104.00000000 32909.35546875  2957817.75000000 2349745.50000000 
0.07200    66689592.00000000 42172820.00000000 106062408.00000000 31925.43359375  2879449.75000000 2287745.00000000 
0.07300    65187336.00000000 41233896.00000000 103686808.00000000 30965.34179688  2802641.25000000 2226978.00000000 
0.07400    63707624.00000000 40308812.00000000 101347496.00000000 30029.46875000  2727404.25000000 2167414.25000000 
0.07500    62251724.00000000 39397852.00000000 99044208.00000000 29117.19531250  2653721.75000000 2109092.75000000 
0.07600    60820116.00000000 38502152.00000000 96778848.00000000 28229.20507812  2581651.00000000 2052009.12500000 
0.07700    59412924.00000000 37620864.00000000 94551496.00000000 27365.36328125  2511172.25000000 1996179.62500000 
0.07800    58030948.00000000 36754744.00000000 92362968.00000000 26525.48046875  2442311.25000000 1941613.00000000 
0.07900    56673524.00000000 35904184.00000000 90214568.00000000 25709.30273438  2375043.00000000 1888323.00000000 
0.08000    55342076.00000000 35069476.00000000 88105512.00000000 24916.75390625  2309416.75000000 1836289.87500000 
0.08100    54036132.00000000 34250372.00000000 86037008.00000000 24147.82617188  2245389.00000000 1785526.25000000 
0.08200    52756572.00000000 33446736.00000000 84009296.00000000 23402.17187500  2182987.50000000 1736014.00000000 
0.08300    51502940.00000000 32659368.00000000 82021744.00000000 22679.66406250  2122165.25000000 1687767.37500000 
0.08400    50275428.00000000 31888146.00000000 80076136.00000000 21979.91796875  2062946.75000000 1640768.87500000 
0.08500    49074328.00000000 31133344.00000000 78171376.00000000 21302.65820312  2005325.37500000 1595018.75000000 
0.08600    47899876.00000000 30394666.00000000 76308472.00000000 20647.38867188  1949252.37500000 1550516.75000000 
0.08700    46751728.00000000 29672344.00000000 74486400.00000000 20013.93554688  1894754.00000000 1507221.00000000 
0.08800    45629996.00000000 28966220.00000000 72706576.00000000 19401.77734375  1841799.75000000 1465147.75000000 
0.08900    44534388.00000000 28276496.00000000 70967984.00000000 18810.69531250  1790368.50000000 1424268.00000000 
0.09000    43465516.00000000 27603020.00000000 69270856.00000000 18240.15429688  1740426.00000000 1384582.50000000 
0.09100    42422612.00000000 26945878.00000000 67614688.00000000 17689.67578125  1691968.62500000 1346048.87500000 
0.09200    41405776.00000000 26304812.00000000 65999956.00000000 17158.83984375  1644985.50000000 1308672.87500000 
0.09300    40414688.00000000 25679776.00000000 64425488.00000000 16647.16015625  1599432.37500000 1272428.37500000 
0.09400    39449576.00000000 25070654.00000000 62891884.00000000 16153.95019531  1555285.87500000 1237300.50000000 
0.09500    38509520.00000000 24477566.00000000 61399008.00000000 15679.04492188  1512519.37500000 1203251.75000000 
0.09600    37595504.00000000 23900220.00000000 59945356.00000000 15221.73828125  1471109.37500000 1170283.50000000 
0.09700    36705872.00000000 23338464.00000000 58531324.00000000 14781.62500000  1431042.62500000 1138362.50000000 
0.09800    35841020.00000000 22791938.00000000 57156696.00000000 14358.12695312  1392263.50000000 1107477.62500000 
0.09900    35000812.00000000 22260932.00000000 55820388.00000000 13950.70605469  1354750.00000000 1077581.75000000 
0.10000    34184340.00000000 21745002.00000000 54522016.00000000 13558.80273438  1318480.50000000 1048685.50000000 
0.10100    33391584.00000000 21243934.00000000 53261500.00000000 13181.99023438  1283431.75000000 1020727.43750000 
0.10200    32622526.00000000 20757254.00000000 52037716.00000000 12819.56835938  1249536.25000000 993706.75000000 
0.10300    31876138.00000000 20285584.00000000 50851116.00000000 12471.27734375  1216797.37500000 967595.81250000 
0.10400    31152830.00000000 19827828.00000000 49699824.00000000 12136.31640625  1185171.50000000 942365.75000000 
0.10500    30451522.00000000 19384124.00000000 48583916.00000000 11814.44433594  1154627.12500000 918006.81250000 
0.10600    29771982.00000000 18954120.00000000 47502652.00000000 11504.86523438  1125132.50000000 894461.18750000 
0.10700    29113924.00000000 18537696.00000000 46455312.00000000 11207.30273438  1096663.12500000 871739.37500000 
0.10800    28476824.00000000 18134404.00000000 45441588.00000000 10921.12304688  1069174.87500000 849793.00000000 
0.10900    27860184.00000000 17744296.00000000 44459972.00000000 10645.94824219  1042636.18750000 828606.00000000 
0.11000    27263586.00000000 17366716.00000000 43510700.00000000 10381.25292969  1017022.56250000 808162.06250000 
0.11100    26686568.00000000 17001754.00000000 42592828.00000000 10126.49023438  992299.06250000 788417.62500000 
0.11200    26128832.00000000 16648836.00000000 41705484.00000000 9881.34570312   968435.87500000 769359.25000000 
0.11300    25589878.00000000 16307826.00000000 40847864.00000000 9645.28613281   945402.62500000 750963.50000000 
0.11400    25068928.00000000 15978519.00000000 40019316.00000000 9417.87597656   923176.06250000 733212.56250000 
0.11500    24565832.00000000 15660468.00000000 39219196.00000000 9198.72460938   901714.12500000 716070.75000000 
0.11600    24080194.00000000 15353435.00000000 38446472.00000000 8987.50878906   880990.68750000 699529.75000000 
0.11700    23611164.00000000 15057242.00000000 37700784.00000000 8783.73437500   860987.87500000 683552.18750000 
0.11800    23158472.00000000 14771340.00000000 36981092.00000000 8586.98339844   841658.37500000 668119.00000000 
0.11900    22721784.00000000 14495647.00000000 36287048.00000000 8396.97558594   822990.87500000 653217.00000000 
0.12000    22300438.00000000 14229783.00000000 35617536.00000000 8213.35742188   804951.81250000 638817.81250000 
0.12100    21894170.00000000 13973363.00000000 34971916.00000000 8035.87109375   787526.50000000 624909.75000000 
0.12200    21502014.00000000 13726433.00000000 34349296.00000000 7863.99560547   770671.50000000 611463.00000000 
0.12300    21124214.00000000 13488486.00000000 33749428.00000000 7697.62158203   754381.93750000 598465.25000000 
0.12400    20759898.00000000 13259205.00000000 33171112.00000000 7536.34521484   738614.68750000 585888.93750000 
0.12500    20408534.00000000 13038245.00000000 32613912.00000000 7379.93798828   723362.50000000 573723.68750000 
0.12600    20069962.00000000 12825468.00000000 32077090.00000000 7228.18261719   708594.06250000 561952.75000000 
0.12700    19743674.00000000 12620580.00000000 31559372.00000000 7080.79150391   694296.06250000 550558.56250000 
0.12800    19428976.00000000 12423141.00000000 31061042.00000000 6937.48095703   680436.62500000 539519.12500000 
0.12900    19125606.00000000 12233227.00000000 30580914.00000000 6798.13183594   667008.37500000 528825.62500000 
0.13000    18833296.00000000 12050157.00000000 30118000.00000000 6662.46923828   653983.43750000 518457.90625000 
0.13100    18551400.00000000 11873949.00000000 29672178.00000000 6530.35742188   641339.93750000 508402.68750000 
0.13200    18279490.00000000 11704156.00000000 29242228.00000000 6401.56787109   629073.75000000 498646.03125000 
0.13300    18017360.00000000 11540598.00000000 28827960.00000000 6275.95996094   617162.25000000 489176.37500000 
0.13400    17764496.00000000 11383096.00000000 28428832.00000000 6153.36962891   605586.43750000 479978.40625000 
0.13500    17520536.00000000 11231271.00000000 28043782.00000000 6033.68408203   594330.31250000 471038.87500000 
0.13600    17285126.00000000 11084885.00000000 27672194.00000000 5916.72460938   583386.81250000 462354.28125000 
0.13700    17057900.00000000 10943842.00000000 27313968.00000000 5802.35937500   572729.31250000 453902.31250000 
0.13800    16838222.00000000 10807740.00000000 26968060.00000000 5690.52685547   562356.31250000 445674.18750000 
0.13900    16626127.00000000 10676381.00000000 26634218.00000000 5581.09472656   552250.56250000 437666.53125000 
0.14000    16421046.00000000 10549668.00000000 26311620.00000000 5473.99560547   542404.75000000 429865.15625000 
0.14100    16222715.00000000 10427246.00000000 25999850.00000000 5369.14355469   532801.00000000 422260.71875000 
0.14200    16030857.00000000 10308894.00000000 25698288.00000000 5266.38818359   523431.21875000 414846.93750000 
0.14300    15844977.00000000 10194460.00000000 25406558.00000000 5165.73925781   514280.25000000 407611.59375000 
0.14400    15664838.00000000 10083644.00000000 25123894.00000000 5067.06835938   505343.84375000 400545.65625000 
0.14500    15490337.00000000 9976357.00000000 24850222.00000000 4970.35253906   496614.43750000 393645.96875000 
0.14600    15320877.00000000 9872379.00000000 24584592.00000000 4875.57226562   488080.81250000 386907.25000000 
0.14700    15156412.00000000 9771503.00000000 24326906.00000000 4782.61865234   479737.81250000 380317.50000000 
0.14800    14996379.00000000 9673598.00000000 24076418.00000000 4691.43798828   471567.43750000 373871.28125000 
0.14900    14840736.00000000 9578281.00000000 23832948.00000000 4602.03271484   463571.81250000 367560.09375000 
0.15000    14689217.00000000 9485625.00000000 23595830.00000000 4514.33203125   455742.21875000 361386.40625000 
0.15100    14541474.00000000 9395413.00000000 23364562.00000000 4428.37109375   448068.34375000 355337.18750000 
0.15200    14397375.00000000 9307420.00000000 23139576.00000000 4344.03417969   440552.53125000 349410.06250000 
0.15300    14256586.00000000 9221487.00000000 22919340.00000000 4261.36767578   433177.06250000 343600.25000000 
0.15400    14118836.00000000 9137380.00000000 22704092.00000000 4180.24804688   425941.75000000 337901.56250000 
0.15500    13983970.00000000 9055218.00000000 22493518.00000000 4100.72363281   418841.15625000 332310.06250000 
0.15600    13851793.00000000 8974581.00000000 22286856.00000000 4022.81225586   411873.93750000 326820.09375000 
0.15700    13722214.00000000 8895499.00000000 22084398.00000000 3946.36450195   405031.90625000 321430.75000000 
0.15800    13594714.00000000 8817699.00000000 21885096.00000000 3871.45043945   398305.62500000 316135.06250000 
0.15900    13469351.00000000 8741209.00000000 21689246.00000000 3798.03588867   391700.75000000 310932.53125000 
0.16000    13345923.00000000 8665797.00000000 21496270.00000000 3726.10229492   385202.53125000 305813.90625000 
0.16100    13224239.00000000 8591421.00000000 21306024.00000000 3655.63012695   378814.75000000 300785.56250000 
0.16200    13104078.00000000 8517925.00000000 21118038.00000000 3586.57543945   372531.34375000 295834.84375000 
0.16300    12985333.00000000 8445271.00000000 20932088.00000000 3518.94653320   366346.59375000 290961.84375000 
0.16400    12867872.00000000 8373222.00000000 20748270.00000000 3452.70166016   360261.59375000 286165.53125000 
0.16500    12751484.00000000 8301771.50000000 20565732.00000000 3387.82910156   354264.68750000 281439.46875000 
0.16600    12636062.00000000 8230861.00000000 20384752.00000000 3324.33007812   348359.50000000 276783.78125000 
0.16700    12521363.00000000 8160299.50000000 20204900.00000000 3262.11035156   342539.96875000 272193.81250000 
0.16800    12407506.00000000 8090068.50000000 20025982.00000000 3201.20166016   336803.78125000 267666.75000000 
0.16900    12294206.00000000 8020092.50000000 19847902.00000000 3141.60498047   331149.31250000 263203.37500000 
0.17000    12181380.00000000 7950266.00000000 19670366.00000000 3083.24340820   325572.71875000 258797.92187500 
