# SAXS profile: number of points = 501, q_min = 0, q_max = 0.5, delta_q = 0.001
#    q    intensity 
0.00000    162232384.00000000 101202008.00000000 256270848.00000000 112119.75781250 8529983.00000000 6736966.00000000 
0.00100    162184400.00000000 101169384.00000000 256188288.00000000 112075.80468750 8526899.00000000 6734536.00000000 
0.00200    162035648.00000000 101073496.00000000 255944784.00000000 111944.96093750 8517766.00000000 6727358.50000000 
0.00300    161778288.00000000 100912992.00000000 255537808.00000000 111728.82031250 8502568.00000000 6715445.50000000 
0.00400    161413440.00000000 100689200.00000000 254966720.00000000 111426.78125000 8481358.00000000 6698727.00000000 
0.00500    160946416.00000000 100401392.00000000 254236816.00000000 111039.26562500 8454224.00000000 6677364.50000000 
0.00600    160382528.00000000 100052352.00000000 253348944.00000000 110568.62500000 8421148.00000000 6651309.50000000 
0.00700    159712320.00000000 99642184.00000000 252303984.00000000 110014.70312500 8382210.00000000 6620716.50000000 
0.00800    158948432.00000000 99172024.00000000 251104720.00000000 109379.99218750 8337683.50000000 6585678.50000000 
0.00900    158089936.00000000 98642008.00000000 249753296.00000000 108667.31250000 8287494.00000000 6546131.50000000 
0.01000    157140336.00000000 98052088.00000000 248255360.00000000 107876.47656250 8231824.00000000 6502379.00000000 
0.01100    156094576.00000000 97405784.00000000 246612672.00000000 107010.82812500 8170894.50000000 6454393.00000000 
0.01200    154957536.00000000 96704120.00000000 244826624.00000000 106073.25781250 8104798.50000000 6402321.50000000 
0.01300    153735584.00000000 95948880.00000000 242906560.00000000 105064.28906250 8033699.00000000 6346386.50000000 
0.01400    152432624.00000000 95142024.00000000 240854448.00000000 103990.14062500 7957836.50000000 6286679.50000000 
0.01500    151044752.00000000 94285176.00000000 238674432.00000000 102850.72656250 7877349.50000000 6223331.00000000 
0.01600    149579328.00000000 93380256.00000000 236371232.00000000 101650.32812500 7792439.50000000 6156445.50000000 
0.01700    148041936.00000000 92428376.00000000 233949920.00000000 100391.29687500 7703325.00000000 6086296.50000000 
0.01800    146430928.00000000 91433536.00000000 231417888.00000000 99079.15625000  7610210.50000000 6013020.50000000 
0.01900    144753456.00000000 90396576.00000000 228780656.00000000 97714.56250000  7513339.00000000 5936764.50000000 
0.02000    143012816.00000000 89318992.00000000 226039200.00000000 96302.18750000  7412983.00000000 5857740.00000000 
0.02100    141211328.00000000 88204392.00000000 223208112.00000000 94846.17968750  7309370.00000000 5776117.00000000 
0.02200    139354496.00000000 87054784.00000000 220285248.00000000 93349.94531250  7202676.00000000 5692085.00000000 
0.02300    137445024.00000000 85872888.00000000 217281296.00000000 91816.47656250  7093259.50000000 5605903.50000000 
0.02400    135488128.00000000 84661024.00000000 214201888.00000000 90250.10937500  6981197.50000000 5517662.00000000 
0.02500    133487944.00000000 83422200.00000000 211053712.00000000 88654.67187500  6866925.00000000 5427604.00000000 
0.02600    131446872.00000000 82158240.00000000 207839712.00000000 87033.17968750  6750644.00000000 5336015.50000000 
0.02700    129370832.00000000 80872024.00000000 204571504.00000000 85389.83593750  6632604.00000000 5242951.00000000 
0.02800    127262152.00000000 79565432.00000000 201252928.00000000 83729.15625000  6512952.00000000 5148711.50000000 
0.02900    125127632.00000000 78241784.00000000 197890976.00000000 82053.43750000  6392065.00000000 5053482.00000000 
0.03000    122969168.00000000 76903144.00000000 194491648.00000000 80366.84375000  6270196.00000000 4957395.50000000 
0.03100    120792552.00000000 75554128.00000000 191064576.00000000 78673.75000000  6147577.50000000 4860737.00000000 
0.03200    118600504.00000000 74194760.00000000 187609952.00000000 76976.44531250  6024395.00000000 4763628.50000000 
0.03300    116397616.00000000 72828712.00000000 184139920.00000000 75278.53125000  5900941.00000000 4666324.00000000 
0.03400    114187416.00000000 71456264.00000000 180655920.00000000 73584.30468750  5777382.50000000 4568908.00000000 
0.03500    111973856.00000000 70081720.00000000 177168624.00000000 71894.89062500  5654013.50000000 4471638.00000000 
0.03600    109761992.00000000 68707128.00000000 173681088.00000000 70215.48437500  5530991.50000000 4374601.00000000 
0.03700    107553072.00000000 67334752.00000000 170199968.00000000 68547.84375000  5408585.00000000 4278031.00000000 
0.03800    105352592.00000000 65967384.00000000 166729936.00000000 66894.15625000  5286928.50000000 4182099.00000000 
0.03900    103163664.00000000 64606740.00000000 163278928.00000000 65258.27734375  5166278.50000000 4086923.50000000 
0.04000    100989616.00000000 63254328.00000000 159849712.00000000 63642.04687500  5046861.00000000 3992694.75000000 
0.04100    98833352.00000000 61913180.00000000 156447600.00000000 62047.94140625  4928709.00000000 3899446.50000000 
0.04200    96697176.00000000 60584072.00000000 153077264.00000000 60478.03906250  4812102.00000000 3807409.25000000 
0.04300    94585168.00000000 59269300.00000000 149743952.00000000 58934.26171875  4697112.50000000 3716676.50000000 
0.04400    92499080.00000000 57971072.00000000 146453280.00000000 57418.12109375  4583962.00000000 3627331.50000000 
0.04500    90441912.00000000 56689872.00000000 143206528.00000000 55932.13671875  4472678.00000000 3539495.00000000 
0.04600    88417576.00000000 55428088.00000000 140010208.00000000 54476.97265625  4363490.50000000 3453284.00000000 
0.04700    86425776.00000000 54186852.00000000 136865600.00000000 53054.20312500  4256435.00000000 3368766.50000000 
0.04800    84469864.00000000 52967428.00000000 133776560.00000000 51664.73046875  4151700.00000000 3285999.25000000 
0.04900    82551728.00000000 51771224.00000000 130747752.00000000 50309.49218750  4049199.00000000 3205092.50000000 
0.05000    80673024.00000000 50599536.00000000 127779992.00000000 48989.91406250  3949193.75000000 3126072.25000000 
0.05100    78835328.00000000 49453088.00000000 124876352.00000000 47706.30468750  3851637.75000000 3049023.75000000 
0.05200    77038920.00000000 48332804.00000000 122039760.00000000 46458.64453125  3756645.75000000 2973969.50000000 
0.05300    75286856.00000000 47239256.00000000 119272064.00000000 45247.34765625  3664188.75000000 2900935.25000000 
0.05400    73579808.00000000 46173208.00000000 116574048.00000000 44072.90234375  3574389.75000000 2829970.50000000 
0.05500    71918568.00000000 45135760.00000000 113946920.00000000 42935.44531250  3487181.75000000 2761067.75000000 
0.05600    70301784.00000000 44126620.00000000 111393888.00000000 41834.52734375  3402606.75000000 2694240.25000000 
0.05700    68733120.00000000 43146540.00000000 108912928.00000000 40769.77343750  3320716.50000000 2629535.75000000 
0.05800    67211216.00000000 42195776.00000000 106507400.00000000 39741.27343750  3241458.75000000 2566873.50000000 
0.05900    65737224.00000000 41274544.00000000 104176296.00000000 38748.04296875  3164811.25000000 2506305.75000000 
0.06000    64309472.00000000 40382732.00000000 101920056.00000000 37789.92968750  3090792.50000000 2447809.25000000 
0.06100    62930112.00000000 39520616.00000000 99739096.00000000 36865.75000000  3019325.00000000 2391327.25000000 
0.06200    61597488.00000000 38687984.00000000 97632064.00000000 35975.32031250  2950402.25000000 2336830.00000000 
0.06300    60312256.00000000 37884680.00000000 95599624.00000000 35117.24609375  2883950.50000000 2284328.00000000 
0.06400    59072392.00000000 37109868.00000000 93640760.00000000 34291.16796875  2819943.00000000 2233751.50000000 
0.06500    57879340.00000000 36364544.00000000 91754280.00000000 33495.42968750  2758314.75000000 2185055.50000000 
0.06600    56730720.00000000 35647628.00000000 89938872.00000000 32729.33203125  2699015.75000000 2138203.50000000 
0.06700    55626940.00000000 34958032.00000000 88194936.00000000 31992.20898438  2641975.25000000 2093127.00000000 
0.06800    54566460.00000000 34296380.00000000 86519336.00000000 31282.38867188  2587092.75000000 2049779.00000000 
0.06900    53548736.00000000 33661548.00000000 84910416.00000000 30598.68750000  2534339.75000000 2008102.62500000 
0.07000    52571996.00000000 33052594.00000000 83368296.00000000 29939.99804688  2483596.00000000 1968032.37500000 
0.07100    51635968.00000000 32469306.00000000 81890048.00000000 29305.49023438  2434828.50000000 1929537.87500000 
0.07200    50738832.00000000 31910510.00000000 80474656.00000000 28693.26562500  2387890.50000000 1892491.37500000 
0.07300    49879956.00000000 31375626.00000000 79118576.00000000 28102.91015625  2342763.25000000 1856876.25000000 
0.07400    49057340.00000000 30864198.00000000 77820952.00000000 27532.78906250  2299347.00000000 1822595.12500000 
0.07500    48270100.00000000 30374706.00000000 76579224.00000000 26981.66210938  2257533.50000000 1789611.25000000 
0.07600    47515912.00000000 29907270.00000000 75391680.00000000 26448.63476562  2217241.25000000 1757836.62500000 
0.07700    46794792.00000000 29460196.00000000 74256288.00000000 25932.65039062  2178409.25000000 1727211.25000000 
0.07800    46104396.00000000 29032916.00000000 73169984.00000000 25432.14453125  2140904.50000000 1697680.75000000 
0.07900    45443476.00000000 28624150.00000000 72130368.00000000 24946.78125000  2104719.00000000 1669151.62500000 
0.08000    44810776.00000000 28233578.00000000 71136208.00000000 24474.72070312  2069720.00000000 1641587.37500000 
0.08100    44204840.00000000 27859902.00000000 70184984.00000000 24015.77343750  2035838.25000000 1614894.25000000 
0.08200    43623744.00000000 27502388.00000000 69272792.00000000 23568.34765625  2002989.00000000 1589041.75000000 
0.08300    43066472.00000000 27159972.00000000 68398608.00000000 23132.01171875  1971121.75000000 1563948.62500000 
0.08400    42531360.00000000 26831682.00000000 67560392.00000000 22705.82031250  1940137.87500000 1539570.37500000 
0.08500    42016684.00000000 26517088.00000000 66755876.00000000 22288.78320312  1909983.37500000 1515829.12500000 
0.08600    41522084.00000000 26214632.00000000 65981544.00000000 21880.36132812  1880582.37500000 1492715.12500000 
0.08700    41045220.00000000 25923796.00000000 65236572.00000000 21479.97656250  1851873.12500000 1470130.75000000 
0.08800    40585108.00000000 25643758.00000000 64517684.00000000 21086.67382812  1823789.87500000 1448060.12500000 
0.08900    40140460.00000000 25373660.00000000 63824556.00000000 20700.56054688  1796311.75000000 1426428.12500000 
0.09000    39709700.00000000 25112768.00000000 63153688.00000000 20320.64453125  1769339.62500000 1405236.87500000 
0.09100    39291848.00000000 24859830.00000000 62503768.00000000 19946.03515625  1742836.50000000 1384402.37500000 
0.09200    38886020.00000000 24614970.00000000 61872540.00000000 19577.16796875  1716774.87500000 1363902.25000000 
0.09300    38490972.00000000 24376690.00000000 61258288.00000000 19213.39062500  1691081.37500000 1343711.37500000 
0.09400    38104948.00000000 24144366.00000000 60659236.00000000 18854.25390625  1665774.12500000 1323802.00000000 
0.09500    37727572.00000000 23917692.00000000 60074364.00000000 18499.56250000  1640746.37500000 1304106.12500000 
0.09600    37358172.00000000 23695876.00000000 59500728.00000000 18149.08007812  1616006.00000000 1284653.00000000 
0.09700    36995184.00000000 23478238.00000000 58937936.00000000 17802.73046875  1591512.37500000 1265394.12500000 
0.09800    36638060.00000000 23264214.00000000 58384176.00000000 17460.34960938  1567262.12500000 1246291.12500000 
0.09900    36285796.00000000 23053346.00000000 57838752.00000000 17122.03906250  1543215.37500000 1227347.62500000 
0.10000    35937980.00000000 22845150.00000000 57300140.00000000 16787.16601562  1519343.12500000 1208547.25000000 
0.10100    35593236.00000000 22639002.00000000 56766556.00000000 16456.16015625  1495632.12500000 1189871.87500000 
0.10200    35251680.00000000 22434622.00000000 56237596.00000000 16128.66601562  1472093.12500000 1171311.12500000 
0.10300    34912248.00000000 22231504.00000000 55712588.00000000 15804.94726562  1448707.87500000 1152860.62500000 
0.10400    34574784.00000000 22029260.00000000 55189432.00000000 15485.11132812  1425447.62500000 1134507.62500000 
0.10500    34238776.00000000 21827880.00000000 54668496.00000000 15169.00488281  1402327.25000000 1116243.25000000 
0.10600    33903348.00000000 21626784.00000000 54148368.00000000 14856.67968750  1379321.75000000 1098082.25000000 
0.10700    33568120.00000000 21425560.00000000 53628580.00000000 14548.28906250  1356453.50000000 1080006.87500000 
0.10800    33233444.00000000 21224156.00000000 53108752.00000000 14243.79101562  1333708.37500000 1062016.37500000 
0.10900    32898300.00000000 21022238.00000000 52588164.00000000 13943.39941406  1311086.87500000 1044122.37500000 
0.11000    32562598.00000000 20820106.00000000 52066464.00000000 13647.20507812  1288620.37500000 1026313.50000000 
0.11100    32226256.00000000 20616984.00000000 51543600.00000000 13355.17578125  1266266.37500000 1008606.75000000 
0.11200    31888904.00000000 20412906.00000000 51018164.00000000 13067.42187500  1244040.12500000 990997.87500000 
0.11300    31550712.00000000 20207936.00000000 50491120.00000000 12784.17578125  1221974.37500000 973495.43750000 
0.11400    31211282.00000000 20001912.00000000 49961616.00000000 12505.28710938  1200061.50000000 956106.37500000 
0.11500    30870712.00000000 19794614.00000000 49430076.00000000 12230.95117188  1178313.87500000 938834.62500000 
0.11600    30528984.00000000 19586390.00000000 48895700.00000000 11961.25292969  1156722.12500000 921682.43750000 
0.11700    30186090.00000000 19376718.00000000 48359068.00000000 11696.30859375  1135315.62500000 904667.31250000 
0.11800    29841502.00000000 19165864.00000000 47819788.00000000 11435.89453125  1114075.50000000 887783.56250000 
0.11900    29495964.00000000 18953920.00000000 47278076.00000000 11180.20996094  1093051.25000000 871041.68750000 
0.12000    29149308.00000000 18740868.00000000 46733600.00000000 10929.38574219  1072201.00000000 854440.87500000 
0.12100    28801536.00000000 18526424.00000000 46187784.00000000 10683.29394531  1051575.50000000 838011.00000000 
0.12200    28452634.00000000 18311154.00000000 45639248.00000000 10441.91503906  1031166.00000000 821742.31250000 
0.12300    28102908.00000000 18094826.00000000 45088988.00000000 10205.29589844  1010968.56250000 805646.81250000 
0.12400    27752460.00000000 17877748.00000000 44536924.00000000 9973.41210938   991004.75000000 789719.31250000 
0.12500    27401438.00000000 17659458.00000000 43983312.00000000 9746.00781250   971278.50000000 773978.25000000 
0.12600    27049900.00000000 17440862.00000000 43428228.00000000 9523.46093750   951796.62500000 758426.68750000 
0.12700    26697944.00000000 17221412.00000000 42872432.00000000 9305.34277344   932559.93750000 743064.31250000 
0.12800    26345934.00000000 17001408.00000000 42315712.00000000 9091.85742188   913575.50000000 727904.37500000 
0.12900    25993932.00000000 16781096.00000000 41758208.00000000 8882.75195312   894846.00000000 712946.43750000 
0.13000    25641936.00000000 16560660.00000000 41201104.00000000 8677.86328125   876385.43750000 698186.12500000 
0.13100    25290230.00000000 16339849.00000000 40643352.00000000 8477.18750000   858177.06250000 683629.81250000 
0.13200    24939168.00000000 16118972.00000000 40086460.00000000 8280.77539062   840243.68750000 669297.37500000 
0.13300    24588846.00000000 15898238.00000000 39530044.00000000 8088.37744141   822575.37500000 655172.81250000 
0.13400    24239458.00000000 15677597.00000000 38974612.00000000 7899.88476562   805182.50000000 641258.06250000 
0.13500    23890676.00000000 15457262.00000000 38420364.00000000 7715.21289062   788050.00000000 627560.93750000 
0.13600    23543330.00000000 15237585.00000000 37867600.00000000 7534.19580078   771190.50000000 614080.31250000 
0.13700    23197348.00000000 15018305.00000000 37316456.00000000 7356.77880859   754603.87500000 600807.75000000 
0.13800    22852632.00000000 14799624.00000000 36767652.00000000 7182.82177734   738287.43750000 587759.06250000 
0.13900    22510022.00000000 14581921.00000000 36221264.00000000 7012.27490234   722234.37500000 574922.31250000 
0.14000    22169252.00000000 14365038.00000000 35677328.00000000 6844.97802734   706449.43750000 562297.18750000 
0.14100    21830336.00000000 14149110.00000000 35136224.00000000 6680.81835938   690938.50000000 549886.81250000 
0.14200    21493370.00000000 13934349.00000000 34598196.00000000 6519.64697266   675671.62500000 537688.93750000 
0.14300    21158864.00000000 13720822.00000000 34063668.00000000 6361.48486328   660681.75000000 525702.68750000 
0.14400    20826734.00000000 13508568.00000000 33532902.00000000 6206.11914062   645931.31250000 513913.18750000 
0.14500    20497260.00000000 13297787.00000000 33005582.00000000 6053.57373047   631446.18750000 502337.21875000 
0.14600    20170186.00000000 13088551.00000000 32482400.00000000 5903.71093750   617208.81250000 490965.21875000 
0.14700    19845952.00000000 12880891.00000000 31963830.00000000 5756.48925781   603220.87500000 479785.03125000 
0.14800    19524820.00000000 12674874.00000000 31449068.00000000 5611.75585938   589474.43750000 468804.81250000 
0.14900    19206428.00000000 12470602.00000000 30939194.00000000 5469.61572266   575962.37500000 458020.31250000 
0.15000    18891090.00000000 12268252.00000000 30434058.00000000 5329.90039062   562688.50000000 447426.12500000 
0.15100    18578990.00000000 12067709.00000000 29933664.00000000 5192.56542969   549653.31250000 437019.53125000 
0.15200    18270058.00000000 11869282.00000000 29438488.00000000 5057.64111328   536845.75000000 426800.28125000 
0.15300    17964428.00000000 11672715.00000000 28948388.00000000 4925.06640625   524265.09375000 416768.59375000 
0.15400    17662330.00000000 11478307.00000000 28463548.00000000 4794.79736328   511904.59375000 406909.56250000 
0.15500    17363294.00000000 11285967.00000000 27984338.00000000 4666.90380859   499765.75000000 397230.00000000 
0.15600    17068074.00000000 11095736.00000000 27510354.00000000 4541.31054688   487835.75000000 387723.65625000 
0.15700    16776352.00000000 10907917.00000000 27042154.00000000 4418.11279297   476130.21875000 378398.12500000 
0.15800    16488169.00000000 10722177.00000000 26579606.00000000 4297.17236328   464629.59375000 369231.21875000 
0.15900    16203636.00000000 10538801.00000000 26122798.00000000 4178.59570312   453340.40625000 360241.15625000 
0.16000    15922651.00000000 10357605.00000000 25671750.00000000 4062.40063477   442254.12500000 351409.46875000 
0.16100    15645543.00000000 10178953.00000000 25226780.00000000 3948.61279297   431373.87500000 342743.62500000 
0.16200    15372032.00000000 10002472.00000000 24787572.00000000 3837.16137695   420694.84375000 334238.81250000 
0.16300    15102197.00000000 9828510.00000000 24354352.00000000 3728.22338867   410215.25000000 325894.68750000 
0.16400    14836435.00000000 9656908.00000000 23927144.00000000 3621.69238281   399932.68750000 317705.71875000 
0.16500    14574171.00000000 9487672.00000000 23506188.00000000 3517.70434570   389843.68750000 309673.68750000 
0.16600    14315691.00000000 9320810.00000000 23091014.00000000 3416.19238281   379951.37500000 301795.90625000 
0.16700    14061055.00000000 9156416.00000000 22681770.00000000 3317.23657227   370251.96875000 294069.50000000 
0.16800    13810216.00000000 8994501.00000000 22278900.00000000 3220.84863281   360735.56250000 286492.09375000 
0.16900    13563148.00000000 8835013.00000000 21881812.00000000 3127.11206055   351415.15625000 279070.75000000 
0.17000    13319959.00000000 8677798.00000000 21490844.00000000 3035.94653320   342283.43750000 271791.46875000 
