# SAXS profile: number of points = 501, q_min = 0, q_max = 0.5, delta_q = 0.001
#    q    intensity 
0.00000    162237744.00000000 101201696.00000000 256271424.00000000 114962.09375000 8637419.00000000 6821828.50000000 
0.00100    162207408.00000000 101182536.00000000 256222928.00000000 114934.52343750 8635549.00000000 6820359.50000000 
0.00200    162116928.00000000 101126104.00000000 256078864.00000000 114852.38281250 8629990.00000000 6815972.00000000 
0.00300    161964816.00000000 101031184.00000000 255837920.00000000 114715.15625000 8620698.00000000 6808624.00000000 
0.00400    161750320.00000000 100898368.00000000 255501536.00000000 114523.43750000 8607673.00000000 6798399.00000000 
0.00500    161474448.00000000 100728632.00000000 255068336.00000000 114277.18750000 8590957.00000000 6785280.50000000 
0.00600    161137648.00000000 100520640.00000000 254539408.00000000 113976.87500000 8570547.00000000 6769245.00000000 
0.00700    160740864.00000000 100275712.00000000 253914800.00000000 113622.85156250 8546530.00000000 6750347.00000000 
0.00800    160285376.00000000 99993904.00000000 253196976.00000000 113216.27343750 8518953.00000000 6728607.00000000 
0.00900    159766720.00000000 99675504.00000000 252387984.00000000 112756.89062500 8487745.00000000 6704068.50000000 
0.01000    159191104.00000000 99321096.00000000 251485728.00000000 112246.01562500 8452974.00000000 6676779.00000000 
0.01100    158559968.00000000 98931712.00000000 250493568.00000000 111684.48437500 8414771.00000000 6646705.50000000 
0.01200    157871728.00000000 98507048.00000000 249410976.00000000 111071.51562500 8373117.00000000 6613941.00000000 
0.01300    157127632.00000000 98047024.00000000 248239376.00000000 110409.96093750 8328106.50000000 6578533.00000000 
0.01400    156327904.00000000 97552976.00000000 246981440.00000000 109699.75781250 8279703.50000000 6540487.50000000 
0.01500    155472320.00000000 97024272.00000000 245638688.00000000 108941.25000000 8228085.50000000 6499865.50000000 
0.01600    154562096.00000000 96463600.00000000 244209456.00000000 108137.22656250 8173294.50000000 6456728.00000000 
0.01700    153601472.00000000 95869208.00000000 242699536.00000000 107288.14062500 8115326.50000000 6411163.00000000 
0.01800    152589104.00000000 95244792.00000000 241108000.00000000 106394.37500000 8054345.00000000 6363176.50000000 
0.01900    151527632.00000000 94589008.00000000 239439184.00000000 105457.92968750 7990363.00000000 6312866.50000000 
0.02000    150415648.00000000 93902880.00000000 237692416.00000000 104480.21875000 7923504.50000000 6260248.50000000 
0.02100    149256528.00000000 93187400.00000000 235872336.00000000 103461.67968750 7853835.50000000 6205478.00000000 
0.02200    148051824.00000000 92443336.00000000 233978176.00000000 102404.57031250 7781400.50000000 6148516.50000000 
0.02300    146802784.00000000 91671248.00000000 232011984.00000000 101309.90625000 7706417.00000000 6089465.00000000 
0.02400    145508592.00000000 90872232.00000000 229980448.00000000 100178.93750000 7628855.50000000 6028441.50000000 
0.02500    144173312.00000000 90048160.00000000 227881024.00000000 99013.95312500  7548856.00000000 5965519.00000000 
0.02600    142798368.00000000 89198160.00000000 225719616.00000000 97815.96875000  7466501.50000000 5900713.00000000 
0.02700    141383824.00000000 88324600.00000000 223495888.00000000 96586.88281250  7381962.00000000 5834193.50000000 
0.02800    139931664.00000000 87427280.00000000 221213008.00000000 95328.40625000  7295231.00000000 5765921.00000000 
0.02900    138443744.00000000 86508200.00000000 218873696.00000000 94040.64843750  7206452.50000000 5696071.00000000 
0.03000    136922288.00000000 85568024.00000000 216481632.00000000 92727.44531250  7115782.50000000 5624711.00000000 
0.03100    135368336.00000000 84607488.00000000 214038304.00000000 91388.99218750  7023284.00000000 5551910.50000000 
0.03200    133783352.00000000 83628160.00000000 211546176.00000000 90027.16406250  6929038.50000000 5477725.00000000 
0.03300    132169952.00000000 82630744.00000000 209009600.00000000 88644.80468750  6833226.00000000 5402348.50000000 
0.03400    130528496.00000000 81615808.00000000 206427232.00000000 87243.07812500  6735890.00000000 5325726.00000000 
0.03500    128861680.00000000 80585512.00000000 203807376.00000000 85822.85937500  6637233.00000000 5248037.00000000 
0.03600    127170896.00000000 79539840.00000000 201148752.00000000 84386.32031250  6537224.00000000 5169329.50000000 
0.03700    125458208.00000000 78481328.00000000 198455312.00000000 82935.90625000  6436113.00000000 5089715.00000000 
0.03800    123725496.00000000 77409408.00000000 195729504.00000000 81471.82031250  6333912.50000000 5009287.50000000 
0.03900    121974064.00000000 76326040.00000000 192974320.00000000 79997.45312500  6230805.00000000 4928090.50000000 
0.04000    120205576.00000000 75232664.00000000 190192416.00000000 78513.27343750  6126859.50000000 4846268.50000000 
0.04100    118422584.00000000 74128864.00000000 187386064.00000000 77021.91406250  6022239.00000000 4763835.50000000 
0.04200    116625976.00000000 73017720.00000000 184560528.00000000 75524.49218750  5916997.50000000 4680952.50000000 
0.04300    114817424.00000000 71899168.00000000 181715808.00000000 74022.39062500  5811236.00000000 4597700.00000000 
0.04400    112999288.00000000 70774592.00000000 178856128.00000000 72518.16406250  5705110.50000000 4514096.50000000 
0.04500    111174120.00000000 69644528.00000000 175983008.00000000 71012.42187500  5598736.00000000 4430295.50000000 
0.04600    109341456.00000000 68510328.00000000 173099888.00000000 69507.15625000  5492142.50000000 4346329.00000000 
0.04700    107504544.00000000 67373192.00000000 170209568.00000000 68004.00000000  5385485.00000000 4262315.00000000 
0.04800    105663808.00000000 66233448.00000000 167313168.00000000 66504.42968750  5278872.50000000 4178309.75000000 
0.04900    103823096.00000000 65093072.00000000 164414336.00000000 65009.89062500  5172403.00000000 4094424.50000000 
0.05000    101981808.00000000 63952836.00000000 161516336.00000000 63521.34375000  5066169.00000000 4010696.25000000 
0.05100    100142176.00000000 62813512.00000000 158621792.00000000 62041.44921875  4960248.50000000 3927230.00000000 
0.05200    98306808.00000000 61676044.00000000 155731104.00000000 60570.53125000  4854736.00000000 3844082.75000000 
0.05300    96475104.00000000 60541260.00000000 152847936.00000000 59110.17187500  4749765.50000000 3761337.00000000 
0.05400    94650952.00000000 59410584.00000000 149975024.00000000 57661.40625000  4645362.00000000 3679073.00000000 
0.05500    92834008.00000000 58284256.00000000 147114224.00000000 56225.94140625  4541685.50000000 3597316.75000000 
0.05600    91026744.00000000 57163828.00000000 144267872.00000000 54804.53906250  4438767.50000000 3516166.25000000 
0.05700    89230120.00000000 56049860.00000000 141437744.00000000 53398.57421875  4336692.00000000 3435685.75000000 
0.05800    87445880.00000000 54942924.00000000 138625904.00000000 52008.99218750  4235541.00000000 3355932.00000000 
0.05900    85673824.00000000 53844008.00000000 135835712.00000000 50636.80078125  4135397.75000000 3276962.00000000 
0.06000    83917040.00000000 52753864.00000000 133069152.00000000 49282.94531250  4036337.00000000 3198822.50000000 
0.06100    82175712.00000000 51673636.00000000 130326024.00000000 47948.69140625  3938427.75000000 3121600.00000000 
0.06200    80451448.00000000 50603348.00000000 127608264.00000000 46634.55859375  3841701.00000000 3045277.00000000 
0.06300    78744928.00000000 49544172.00000000 124919568.00000000 45341.45312500  3746256.50000000 2969989.25000000 
0.06400    77057352.00000000 48496468.00000000 122259792.00000000 44069.93750000  3652121.00000000 2895717.50000000 
0.06500    75389808.00000000 47461128.00000000 119632136.00000000 42820.92187500  3559402.00000000 2822537.75000000 
0.06600    73743288.00000000 46438696.00000000 117036992.00000000 41595.09765625  3468084.50000000 2750468.25000000 
0.06700    72119512.00000000 45429392.00000000 114476368.00000000 40392.64062500  3378258.50000000 2679560.00000000 
0.06800    70517248.00000000 44434196.00000000 111951128.00000000 39214.97656250  3289950.50000000 2609834.25000000 
0.06900    68939280.00000000 43453428.00000000 109463032.00000000 38061.68359375  3203208.00000000 2541364.50000000 
0.07000    67385512.00000000 42487796.00000000 107012928.00000000 36933.43750000  3118067.50000000 2474139.75000000 
0.07100    65856792.00000000 41537372.00000000 104602072.00000000 35830.67187500  3034551.00000000 2408184.00000000 
0.07200    64354152.00000000 40602936.00000000 102231248.00000000 34753.51562500  2952722.00000000 2343526.50000000 
0.07300    62877296.00000000 39684244.00000000 99901936.00000000 33702.46093750  2872567.25000000 2280221.50000000 
0.07400    61427472.00000000 38782308.00000000 97614808.00000000 32677.52539062  2794127.25000000 2218257.00000000 
0.07500    60004780.00000000 37897032.00000000 95370080.00000000 31679.15820312  2717424.50000000 2157638.50000000 
0.07600    58610016.00000000 37028788.00000000 93169488.00000000 30707.11914062  2642483.00000000 2098414.50000000 
0.07700    57243568.00000000 36178140.00000000 91012552.00000000 29761.66992188  2569286.25000000 2040566.37500000 
0.07800    55905340.00000000 35344796.00000000 88900504.00000000 28842.72460938  2497892.25000000 1984112.62500000 
0.07900    54596208.00000000 34529308.00000000 86833696.00000000 27950.34570312  2428274.75000000 1929063.50000000 
0.08000    53315520.00000000 33731364.00000000 84812560.00000000 27084.29296875  2360435.25000000 1875411.25000000 
0.08100    52064516.00000000 32951588.00000000 82836448.00000000 26244.66015625  2294379.00000000 1823176.87500000 
0.08200    50842576.00000000 32189992.00000000 80906976.00000000 25430.95117188  2230096.00000000 1772338.00000000 
0.08300    49650344.00000000 31446474.00000000 79023672.00000000 24643.06054688  2167615.00000000 1722903.50000000 
0.08400    48487204.00000000 30721112.00000000 77187184.00000000 23880.88476562  2106903.00000000 1674850.25000000 
0.08500    47353676.00000000 30014064.00000000 75396568.00000000 23144.10546875  2047950.62500000 1628194.37500000 
0.08600    46249664.00000000 29325078.00000000 73652000.00000000 22432.21093750  1990753.12500000 1582922.50000000 
0.08700    45175072.00000000 28654242.00000000 71953744.00000000 21745.08593750  1935288.87500000 1539006.62500000 
0.08800    44129448.00000000 28001572.00000000 70301064.00000000 21082.11132812  1881528.25000000 1496440.87500000 
0.08900    43112988.00000000 27366782.00000000 68694928.00000000 20443.01562500  1829481.37500000 1455212.37500000 
0.09000    42125812.00000000 26750008.00000000 67133376.00000000 19827.39843750  1779100.62500000 1415310.37500000 
0.09100    41166656.00000000 26150794.00000000 65617468.00000000 19234.59570312  1730381.75000000 1376699.00000000 
0.09200    40235596.00000000 25569080.00000000 64145808.00000000 18664.24804688  1683282.00000000 1339366.37500000 
0.09300    39333316.00000000 25004742.00000000 62718128.00000000 18115.90039062  1637783.75000000 1303310.75000000 
0.09400    38458408.00000000 24457628.00000000 61334152.00000000 17589.08789062  1593845.25000000 1268476.50000000 
0.09500    37610480.00000000 23927362.00000000 59993388.00000000 17082.75781250  1551441.25000000 1234852.25000000 
0.09600    36789484.00000000 23413978.00000000 58694588.00000000 16596.87890625  1510549.37500000 1202422.25000000 
0.09700    35995468.00000000 22916816.00000000 57437876.00000000 16130.75390625  1471128.50000000 1171150.37500000 
0.09800    35227188.00000000 22435812.00000000 56221864.00000000 15683.49218750  1433146.62500000 1141005.00000000 
0.09900    34484452.00000000 21970748.00000000 55046232.00000000 15254.93359375  1396559.00000000 1111971.62500000 
0.10000    33766648.00000000 21521132.00000000 53910084.00000000 14844.04785156  1361340.12500000 1084011.00000000 
0.10100    33073084.00000000 21086742.00000000 52812364.00000000 14450.45898438  1327443.25000000 1057099.87500000 
0.10200    32403684.00000000 20667386.00000000 51752580.00000000 14073.49902344  1294826.25000000 1031195.18750000 
0.10300    31757622.00000000 20262552.00000000 50729696.00000000 13712.53417969  1263465.62500000 1006278.68750000 
0.10400    31134386.00000000 19871712.00000000 49742620.00000000 13366.92578125  1233305.12500000 982322.25000000 
0.10500    30533536.00000000 19494964.00000000 48790664.00000000 13036.06738281  1204318.87500000 959283.43750000 
0.10600    29953756.00000000 19131534.00000000 47872820.00000000 12719.29296875  1176446.12500000 937130.68750000 
0.10700    29395400.00000000 18780966.00000000 46987836.00000000 12416.05371094  1149670.62500000 915846.75000000 
0.10800    28857250.00000000 18443438.00000000 46135084.00000000 12125.52539062  1123934.12500000 895372.18750000 
0.10900    28338936.00000000 18118090.00000000 45313680.00000000 11847.41503906  1099187.50000000 875697.87500000 
0.11000    27839434.00000000 17804642.00000000 44522264.00000000 11580.96582031  1075426.62500000 856787.62500000 
0.11100    27358426.00000000 17502666.00000000 43759968.00000000 11325.48437500  1052576.62500000 838603.37500000 
0.11200    26895210.00000000 17211914.00000000 43025656.00000000 11080.56835938  1030598.06250000 821118.93750000 
0.11300    26449174.00000000 16931708.00000000 42318492.00000000 10845.49902344  1009474.18750000 804298.75000000 
0.11400    26019676.00000000 16661907.00000000 41637436.00000000 10619.83398438  989143.31250000 788111.43750000 
0.11500    25605710.00000000 16401962.00000000 40981540.00000000 10402.96386719  969581.25000000 772529.68750000 
0.11600    25207064.00000000 16151449.00000000 40349316.00000000 10194.29589844  950741.75000000 757522.43750000 
0.11700    24822840.00000000 15910179.00000000 39740208.00000000 9993.47753906   932589.75000000 743057.31250000 
0.11800    24452504.00000000 15677527.00000000 39152708.00000000 9799.84179688   915073.00000000 729107.81250000 
0.11900    24095464.00000000 15453112.00000000 38586712.00000000 9612.99804688   898179.31250000 715639.75000000 
0.12000    23750866.00000000 15236655.00000000 38040384.00000000 9432.36621094   881861.43750000 702636.68750000 
0.12100    23418346.00000000 15027731.00000000 37513040.00000000 9257.80371094   866088.25000000 690063.56250000 
0.12200    23097268.00000000 14825904.00000000 37004156.00000000 9088.51464844   850820.00000000 677886.25000000 
0.12300    22786738.00000000 14630987.00000000 36511848.00000000 8924.29101562   836031.56250000 666094.18750000 
0.12400    22486580.00000000 14442349.00000000 36035516.00000000 8764.62304688   821687.06250000 654647.06250000 
0.12500    22195936.00000000 14259821.00000000 35574880.00000000 8609.23828125   807749.06250000 643539.81250000 
0.12600    21914320.00000000 14082988.00000000 35128608.00000000 8457.79003906   794204.00000000 632735.06250000 
0.12700    21641352.00000000 13911423.00000000 34695664.00000000 8309.83886719   781013.50000000 622214.25000000 
0.12800    21376122.00000000 13744912.00000000 34275112.00000000 8165.19335938   768156.12500000 611949.43750000 
0.12900    21118434.00000000 13583103.00000000 33866640.00000000 8023.49365234   755598.37500000 601933.31250000 
0.13000    20867838.00000000 13425686.00000000 33469328.00000000 7884.39599609   743313.62500000 592138.68750000 
0.13100    20623356.00000000 13272391.00000000 33081978.00000000 7747.76074219   731289.93750000 582546.12500000 
0.13200    20385032.00000000 13122728.00000000 32704208.00000000 7613.22802734   719498.87500000 573134.31250000 
0.13300    20152212.00000000 12976651.00000000 32335240.00000000 7480.72802734   707919.06250000 563896.06250000 
0.13400    19924190.00000000 12833692.00000000 31974158.00000000 7349.97802734   696536.87500000 554814.25000000 
0.13500    19701162.00000000 12693699.00000000 31620670.00000000 7220.75878906   685320.12500000 545865.81250000 
0.13600    19482278.00000000 12556490.00000000 31273534.00000000 7093.00390625   674266.75000000 537046.37500000 
0.13700    19267166.00000000 12421628.00000000 30933000.00000000 6966.41796875   663350.87500000 528333.62500000 
0.13800    19055646.00000000 12288995.00000000 30598036.00000000 6841.01513672   652554.81250000 519721.84375000 
0.13900    18847372.00000000 12158352.00000000 30267884.00000000 6716.58837891   641874.25000000 511201.06250000 
0.14000    18641756.00000000 12029512.00000000 29942258.00000000 6593.10302734   631293.62500000 502757.25000000 
0.14100    18438722.00000000 11902335.00000000 29620766.00000000 6470.42773438   620802.87500000 494385.87500000 
0.14200    18237820.00000000 11776401.00000000 29302526.00000000 6348.47265625   610382.25000000 486073.96875000 
0.14300    18039128.00000000 11651814.00000000 28987672.00000000 6227.22363281   600035.81250000 477818.37500000 
0.14400    17841824.00000000 11528196.00000000 28675286.00000000 6106.61132812   589742.12500000 469604.68750000 
0.14500    17646086.00000000 11405518.00000000 28365210.00000000 5986.59619141   579503.62500000 461436.46875000 
0.14600    17451702.00000000 11283605.00000000 28057354.00000000 5867.22314453   569315.31250000 453302.68750000 
0.14700    17258296.00000000 11162452.00000000 27750970.00000000 5748.44287109   559166.06250000 445206.37500000 
0.14800    17065614.00000000 11041656.00000000 27445844.00000000 5630.25244141   549051.68750000 437134.75000000 
0.14900    16873730.00000000 10921283.00000000 27141828.00000000 5512.61914062   538972.06250000 429084.21875000 
0.15000    16682249.00000000 10801250.00000000 26838554.00000000 5395.63574219   528919.75000000 421062.43750000 
0.15100    16491269.00000000 10681394.00000000 26535784.00000000 5279.27490234   518897.34375000 413060.68750000 
0.15200    16300669.00000000 10561784.00000000 26233800.00000000 5163.61425781   508902.50000000 405085.03125000 
0.15300    16110177.00000000 10442239.00000000 25931832.00000000 5048.69335938   498939.37500000 397127.31250000 
0.15400    15919646.00000000 10322605.00000000 25629762.00000000 4934.51806641   488995.62500000 389189.78125000 
0.15500    15729286.00000000 10202941.00000000 25327774.00000000 4821.15332031   479087.12500000 381272.87500000 
0.15600    15538727.00000000 10083208.00000000 25025628.00000000 4708.70166016   469204.87500000 373379.90625000 
0.15700    15348199.00000000 9963414.00000000 24723290.00000000 4597.22509766   459357.28125000 365515.21875000 
0.15800    15157413.00000000 9843367.00000000 24420428.00000000 4486.66162109   449540.03125000 357671.75000000 
0.15900    14966445.00000000 9723201.00000000 24117476.00000000 4377.25537109   439764.34375000 349859.84375000 
0.16000    14775363.00000000 9602857.00000000 23814044.00000000 4268.95068359   430029.31250000 342077.65625000 
0.16100    14584122.00000000 9482334.00000000 23510264.00000000 4161.88232422   420342.84375000 334332.28125000 
0.16200    14392665.00000000 9361627.00000000 23206274.00000000 4056.09399414   410701.90625000 326624.25000000 
0.16300    14201060.00000000 9240734.00000000 22901754.00000000 3951.68554688   401116.03125000 318958.84375000 
0.16400    14009432.00000000 9119697.00000000 22596882.00000000 3848.69189453   391592.40625000 311336.96875000 
0.16500    13817580.00000000 8998473.00000000 22291950.00000000 3747.20800781   382126.65625000 303767.15625000 
0.16600    13625793.00000000 8877187.00000000 21986718.00000000 3647.30615234   372735.84375000 296249.53125000 
0.16700    13433849.00000000 8755831.00000000 21681356.00000000 3549.02807617   363414.34375000 288788.00000000 
0.16800    13242022.00000000 8634283.00000000 21375846.00000000 3452.44140625   354174.12500000 281387.18750000 
0.16900    13050386.00000000 8512824.00000000 21070778.00000000 3357.64941406   345023.28125000 274056.03125000 
0.17000    12858838.00000000 8391407.00000000 20765596.00000000 3264.67602539   335957.62500000 266794.15625000 
