# SAXS profile: number of points = 501, q_min = 0, q_max = 0.5, delta_q = 0.001
#    q    intensity 
0.00000    162235648.00000000 101201512.00000000 256272128.00000000 104853.26562500 8248952.50000000 6515017.00000000 
0.00100    162206448.00000000 101182752.00000000 256224624.00000000 104826.10937500 8247107.50000000 6513576.50000000 
0.00200    162120448.00000000 101128288.00000000 256084608.00000000 104744.37500000 8241592.00000000 6509199.00000000 
0.00300    161972272.00000000 101036568.00000000 255851840.00000000 104608.72656250 8232395.00000000 6502003.50000000 
0.00400    161764992.00000000 100909168.00000000 255525072.00000000 104419.32031250 8219523.00000000 6491925.50000000 
0.00500    161496736.00000000 100745488.00000000 255105392.00000000 104176.33593750 8203023.00000000 6479019.50000000 
0.00600    161168448.00000000 100545576.00000000 254594624.00000000 103879.78906250 8182884.50000000 6463199.50000000 
0.00700    160782512.00000000 100308472.00000000 253989744.00000000 103530.32812500 8159192.50000000 6444624.00000000 
0.00800    160338352.00000000 100037992.00000000 253296768.00000000 103129.15625000 8131925.00000000 6423268.00000000 
0.00900    159833920.00000000 99731120.00000000 252513504.00000000 102676.09375000 8101142.00000000 6399115.00000000 
0.01000    159276704.00000000 99390704.00000000 251640752.00000000 102172.51562500 8066888.00000000 6372261.50000000 
0.01100    158662480.00000000 99015568.00000000 250679376.00000000 101618.43750000 8029175.50000000 6342705.00000000 
0.01200    157993728.00000000 98606016.00000000 249631472.00000000 101015.42968750 7988150.00000000 6310532.50000000 
0.01300    157271696.00000000 98162984.00000000 248499568.00000000 100365.00781250 7943774.00000000 6275749.00000000 
0.01400    156492656.00000000 97686040.00000000 247282560.00000000 99666.53125000  7896157.50000000 6238402.00000000 
0.01500    155661616.00000000 97178160.00000000 245982464.00000000 98921.80468750  7845335.50000000 6198574.00000000 
0.01600    154779024.00000000 96637528.00000000 244602144.00000000 98133.20312500  7791420.00000000 6156309.50000000 
0.01700    153845872.00000000 96066504.00000000 243140960.00000000 97300.08593750  7734472.50000000 6111606.50000000 
0.01800    152863440.00000000 95465440.00000000 241604160.00000000 96426.25000000  7674566.00000000 6064647.00000000 
0.01900    151832032.00000000 94834376.00000000 239990608.00000000 95509.77343750  7611810.00000000 6015383.00000000 
0.02000    150755072.00000000 94173808.00000000 238304368.00000000 94554.82812500  7546192.50000000 5963959.50000000 
0.02100    149630128.00000000 93484936.00000000 236543376.00000000 93561.73437500  7477966.50000000 5910396.50000000 
0.02200    148462624.00000000 92769664.00000000 234713728.00000000 92531.54687500  7407026.50000000 5854780.50000000 
0.02300    147249536.00000000 92026808.00000000 232816336.00000000 91466.57031250  7333666.50000000 5797175.50000000 
0.02400    145996000.00000000 91259104.00000000 230854928.00000000 90369.23437500  7257870.50000000 5737719.50000000 
0.02500    144702848.00000000 90466208.00000000 228828896.00000000 89238.69531250  7179724.00000000 5676417.50000000 
0.02600    143370480.00000000 89649112.00000000 226740976.00000000 88079.45312500  7099387.00000000 5613382.50000000 
0.02700    141999360.00000000 88809216.00000000 224595264.00000000 86891.32031250  7016999.00000000 5548655.00000000 
0.02800    140593200.00000000 87947176.00000000 222392704.00000000 85676.10156250  6932562.50000000 5482394.00000000 
0.02900    139153232.00000000 87063536.00000000 220136896.00000000 84436.98437500  6846237.50000000 5414642.00000000 
0.03000    137681648.00000000 86160504.00000000 217830352.00000000 83174.01562500  6758127.00000000 5345470.00000000 
0.03100    136178064.00000000 85237912.00000000 215475632.00000000 81890.07812500  6668348.00000000 5274983.00000000 
0.03200    134645936.00000000 84296400.00000000 213074560.00000000 80586.57812500  6577047.50000000 5203293.00000000 
0.03300    133085448.00000000 83338160.00000000 210628016.00000000 79265.26562500  6484259.50000000 5130427.00000000 
0.03400    131499120.00000000 82364584.00000000 208142112.00000000 77928.84375000  6390199.50000000 5056521.00000000 
0.03500    129888632.00000000 81375312.00000000 205617136.00000000 76577.07812500  6294903.00000000 4981644.50000000 
0.03600    128255800.00000000 80372368.00000000 203057696.00000000 75213.97656250  6198497.00000000 4905919.00000000 
0.03700    126602544.00000000 79355744.00000000 200465504.00000000 73840.01562500  6101108.00000000 4829423.50000000 
0.03800    124929792.00000000 78326832.00000000 197841552.00000000 72457.04687500  6002868.50000000 4752166.00000000 
0.03900    123239944.00000000 77287992.00000000 195191168.00000000 71067.33593750  5903866.50000000 4674353.50000000 
0.04000    121534216.00000000 76238896.00000000 192514320.00000000 69672.31250000  5804197.00000000 4596012.00000000 
0.04100    119814488.00000000 75180544.00000000 189817168.00000000 68273.78125000  5704034.50000000 4517260.50000000 
0.04200    118083016.00000000 74115152.00000000 187099280.00000000 66873.64062500  5603403.00000000 4438135.00000000 
0.04300    116340752.00000000 73042392.00000000 184364128.00000000 65472.91015625  5502446.00000000 4358756.50000000 
0.04400    114589120.00000000 71963312.00000000 181615520.00000000 64073.72265625  5401293.50000000 4279221.50000000 
0.04500    112830448.00000000 70879856.00000000 178854256.00000000 62677.39843750  5300064.00000000 4199535.50000000 
0.04600    111066216.00000000 69792416.00000000 176084016.00000000 61285.37890625  5198836.50000000 4119889.00000000 
0.04700    109298432.00000000 68701472.00000000 173306192.00000000 59899.84765625  5097705.50000000 4040285.25000000 
0.04800    107527520.00000000 67609616.00000000 170525008.00000000 58521.24218750  4996757.50000000 3960821.75000000 
0.04900    105756776.00000000 66516300.00000000 167741936.00000000 57151.93359375  4896108.50000000 3881595.50000000 
0.05000    103985680.00000000 65423064.00000000 164959120.00000000 55792.57031250  4795881.00000000 3802662.00000000 
0.05100    102217584.00000000 64330952.00000000 162179088.00000000 54444.92968750  4696089.50000000 3724064.25000000 
0.05200    100452552.00000000 63240376.00000000 159404992.00000000 53109.91015625  4596919.00000000 3645920.50000000 
0.05300    98692392.00000000 62152624.00000000 156637408.00000000 51788.76562500  4498385.00000000 3568296.25000000 
0.05400    96939656.00000000 61068520.00000000 153879616.00000000 50482.94140625  4400586.50000000 3491218.25000000 
0.05500    95194376.00000000 59988584.00000000 151133744.00000000 49193.20312500  4303601.50000000 3414769.50000000 
0.05600    93458376.00000000 58913812.00000000 148400992.00000000 47920.73046875  4207536.50000000 3339026.25000000 
0.05700    91732784.00000000 57845536.00000000 145685152.00000000 46666.40625000  4112431.25000000 3264020.25000000 
0.05800    90018512.00000000 56783492.00000000 142985776.00000000 45430.94531250  4018364.50000000 3189806.75000000 
0.05900    88316312.00000000 55729212.00000000 140308544.00000000 44215.64062500  3925405.25000000 3116474.50000000 
0.06000    86629608.00000000 54682856.00000000 137650928.00000000 43020.70703125  3833609.25000000 3044031.75000000 
0.06100    84957528.00000000 53645560.00000000 135016288.00000000 41847.68359375  3743034.75000000 2972527.50000000 
0.06200    83301440.00000000 52617676.00000000 132407688.00000000 40696.60546875  3653751.50000000 2902044.75000000 
0.06300    81661912.00000000 51599820.00000000 129824288.00000000 39568.01171875  3565801.25000000 2832586.25000000 
0.06400    80041264.00000000 50593176.00000000 127268872.00000000 38462.73046875  3479228.75000000 2764197.25000000 
0.06500    78439480.00000000 49597192.00000000 124742744.00000000 37380.91406250  3394090.75000000 2696903.25000000 
0.06600    76857816.00000000 48613520.00000000 122247336.00000000 36323.53125000  3310405.25000000 2630770.00000000 
0.06700    75295952.00000000 47641788.00000000 119784016.00000000 35290.40625000  3228240.00000000 2565796.50000000 
0.06800    73755960.00000000 46683128.00000000 117353920.00000000 34281.84765625  3147594.75000000 2502025.75000000 
0.06900    72238256.00000000 45737384.00000000 114957784.00000000 33298.29687500  3068533.00000000 2439503.50000000 
0.07000    70743152.00000000 44805872.00000000 112596816.00000000 32339.93945312  2991051.50000000 2378184.25000000 
0.07100    69271728.00000000 43888296.00000000 110272408.00000000 31406.84960938  2915185.25000000 2318125.00000000 
0.07200    67823712.00000000 42984872.00000000 107985424.00000000 30498.89843750  2840954.00000000 2259348.50000000 
0.07300    66400892.00000000 42096348.00000000 105736080.00000000 29616.73437500  2768390.75000000 2201879.75000000 
0.07400    65002344.00000000 41222780.00000000 103524936.00000000 28759.51953125  2697483.50000000 2145695.25000000 
0.07500    63629224.00000000 40364504.00000000 101353488.00000000 27927.46679688  2628237.50000000 2090835.37500000 
0.07600    62281272.00000000 39521832.00000000 99222304.00000000 27120.61718750  2560667.75000000 2037282.75000000 
0.07700    60959840.00000000 38694748.00000000 97131040.00000000 26338.66015625  2494785.25000000 1985028.00000000 
0.07800    59664104.00000000 37883648.00000000 95080176.00000000 25581.21289062  2430590.25000000 1934096.12500000 
0.07900    58394916.00000000 37088192.00000000 93070992.00000000 24848.22070312  2368054.50000000 1884493.37500000 
0.08000    57152156.00000000 36309164.00000000 91103424.00000000 24139.43164062  2307185.50000000 1836179.25000000 
0.08100    55936292.00000000 35546344.00000000 89176456.00000000 23454.50781250  2247998.75000000 1789181.62500000 
0.08200    54746948.00000000 34799780.00000000 87292336.00000000 22792.90234375  2190458.00000000 1743473.00000000 
0.08300    53584308.00000000 34069872.00000000 85449216.00000000 22153.99804688  2134544.75000000 1699049.50000000 
0.08400    52448340.00000000 33356076.00000000 83647896.00000000 21537.74609375  2080248.37500000 1655901.62500000 
0.08500    51339284.00000000 32658522.00000000 81889184.00000000 20943.69140625  2027557.25000000 1614002.25000000 
0.08600    50256704.00000000 31977478.00000000 80170864.00000000 20371.14648438  1976453.12500000 1573360.75000000 
0.08700    49200300.00000000 31312478.00000000 78494856.00000000 19819.62695312  1926888.00000000 1533933.00000000 
0.08800    48170348.00000000 30663900.00000000 76860104.00000000 19288.58398438  1878866.12500000 1495710.12500000 
0.08900    47166608.00000000 30031240.00000000 75265968.00000000 18777.60546875  1832351.62500000 1458672.12500000 
0.09000    46188688.00000000 29414312.00000000 73712496.00000000 18285.99609375  1787297.75000000 1422806.37500000 
0.09100    45236400.00000000 28813370.00000000 72199488.00000000 17812.96484375  1743690.00000000 1388078.25000000 
0.09200    44308808.00000000 28227800.00000000 70725696.00000000 17358.40234375  1701505.62500000 1354463.25000000 
0.09300    43406848.00000000 27657884.00000000 69291472.00000000 16921.23828125  1660709.25000000 1321935.37500000 
0.09400    42529392.00000000 27103212.00000000 67896200.00000000 16501.02539062  1621248.50000000 1290480.25000000 
0.09500    41676000.00000000 26563478.00000000 66538592.00000000 16097.24902344  1583107.25000000 1260053.50000000 
0.09600    40846544.00000000 26038416.00000000 65218548.00000000 15709.03125000  1546238.75000000 1230643.75000000 
0.09700    40040340.00000000 25528128.00000000 63935280.00000000 15336.10839844  1510624.00000000 1202221.87500000 
0.09800    39257440.00000000 25032010.00000000 62688932.00000000 14977.58007812  1476197.75000000 1174744.00000000 
0.09900    38496656.00000000 24549994.00000000 61477540.00000000 14632.80566406  1442949.37500000 1148200.62500000 
0.10000    37757824.00000000 24081564.00000000 60300848.00000000 14301.14550781  1410820.00000000 1122543.37500000 
0.10100    37040784.00000000 23626518.00000000 59158232.00000000 13982.30664062  1379783.25000000 1097753.62500000 
0.10200    36344740.00000000 23184674.00000000 58049036.00000000 13675.25488281  1349787.87500000 1073798.87500000 
0.10300    35668908.00000000 22755648.00000000 56971728.00000000 13379.65722656  1320831.75000000 1050644.50000000 
0.10400    35013424.00000000 22339318.00000000 55926632.00000000 13094.88183594  1292823.87500000 1028264.18750000 
0.10500    34376852.00000000 21934932.00000000 54912176.00000000 12820.29785156  1265754.75000000 1006634.50000000 
0.10600    33759292.00000000 21542470.00000000 53927784.00000000 12555.24121094  1239583.12500000 985705.31250000 
0.10700    33160070.00000000 21161412.00000000 52971804.00000000 12299.33496094  1214273.00000000 965478.00000000 
0.10800    32578608.00000000 20791662.00000000 52044244.00000000 12052.01464844  1189774.75000000 945894.68750000 
0.10900    32014286.00000000 20432650.00000000 51143984.00000000 11812.56835938  1166062.37500000 926942.87500000 
0.11000    31466700.00000000 20084138.00000000 50270340.00000000 11580.83691406  1143108.25000000 908583.62500000 
0.11100    30934914.00000000 19745952.00000000 49421916.00000000 11355.98535156  1120854.62500000 890794.43750000 
0.11200    30418794.00000000 19417428.00000000 48598232.00000000 11137.79882812  1099270.25000000 873543.12500000 
0.11300    29917460.00000000 19098352.00000000 47798136.00000000 10925.66210938  1078334.00000000 856806.37500000 
0.11400    29430270.00000000 18788422.00000000 47021088.00000000 10719.25781250  1057999.62500000 840560.25000000 
0.11500    28957150.00000000 18487094.00000000 46265876.00000000 10518.11621094  1038249.18750000 824769.12500000 
0.11600    28497120.00000000 18194344.00000000 45532016.00000000 10321.87890625  1019024.00000000 809416.62500000 
0.11700    28049782.00000000 17909744.00000000 44818288.00000000 10130.17773438  1000321.43750000 794477.56250000 
0.11800    27614588.00000000 17632862.00000000 44123600.00000000 9942.51953125   982098.06250000 779918.56250000 
0.11900    27190920.00000000 17363220.00000000 43447792.00000000 9758.78515625   964327.25000000 765728.25000000 
0.12000    26778242.00000000 17100908.00000000 42789436.00000000 9578.50097656   946970.31250000 751876.68750000 
0.12100    26376388.00000000 16845334.00000000 42148760.00000000 9401.61621094   930024.18750000 738352.25000000 
0.12200    25984112.00000000 16596266.00000000 41523648.00000000 9227.62792969   913438.43750000 725131.75000000 
0.12300    25601798.00000000 16353351.00000000 40913928.00000000 9056.38183594   897209.18750000 712188.25000000 
0.12400    25228548.00000000 16116284.00000000 40319052.00000000 8887.61425781   881299.68750000 699507.75000000 
0.12500    24863664.00000000 15884722.00000000 39737856.00000000 8721.18066406   865692.25000000 687072.81250000 
0.12600    24507350.00000000 15658646.00000000 39169648.00000000 8556.89355469   850371.87500000 674871.56250000 
0.12700    24158344.00000000 15437397.00000000 38614220.00000000 8394.50683594   835308.25000000 662877.31250000 
0.12800    23816850.00000000 15220922.00000000 38070368.00000000 8233.92578125   820484.81250000 651080.87500000 
0.12900    23482194.00000000 15008967.00000000 37537672.00000000 8075.02978516   805897.87500000 639472.00000000 
0.13000    23153970.00000000 14801311.00000000 37015492.00000000 7917.67529297   791511.75000000 628038.00000000 
0.13100    22831852.00000000 14597530.00000000 36503056.00000000 7761.72949219   777320.75000000 616758.06250000 
0.13200    22515510.00000000 14397631.00000000 35999968.00000000 7607.18261719   763311.18750000 605624.00000000 
0.13300    22204500.00000000 14201229.00000000 35505684.00000000 7453.96533203   749470.12500000 594635.81250000 
0.13400    21898668.00000000 14008141.00000000 35019828.00000000 7301.95800781   735790.12500000 583771.87500000 
0.13500    21597558.00000000 13818170.00000000 34541400.00000000 7151.17724609   722255.06250000 573030.56250000 
0.13600    21300760.00000000 13631131.00000000 34070148.00000000 7001.50488281   708851.93750000 562394.43750000 
0.13700    21008174.00000000 13446799.00000000 33605832.00000000 6853.08593750   695581.25000000 551865.31250000 
0.13800    20719438.00000000 13265053.00000000 33147482.00000000 6705.79052734   682431.00000000 541430.75000000 
0.13900    20434370.00000000 13085747.00000000 32695226.00000000 6559.61572266   669391.37500000 531099.25000000 
0.14000    20152756.00000000 12908654.00000000 32248612.00000000 6414.69628906   656462.25000000 520848.12500000 
0.14100    19874244.00000000 12733614.00000000 31807122.00000000 6270.91455078   643638.62500000 510685.46875000 
0.14200    19598708.00000000 12560641.00000000 31370310.00000000 6128.44189453   630912.81250000 500600.93750000 
0.14300    19325938.00000000 12389403.00000000 30938080.00000000 5987.16406250   618282.75000000 490595.43750000 
0.14400    19055680.00000000 12219901.00000000 30509860.00000000 5847.24755859   605748.62500000 480662.03125000 
0.14500    18788080.00000000 12051935.00000000 30085866.00000000 5708.63281250   593303.62500000 470806.90625000 
0.14600    18522492.00000000 11885609.00000000 29665484.00000000 5571.53857422   580950.81250000 461026.15625000 
0.14700    18259116.00000000 11720575.00000000 29248560.00000000 5435.86962891   568693.81250000 451315.53125000 
0.14800    17997810.00000000 11556876.00000000 28834998.00000000 5301.75488281   556525.75000000 441673.65625000 
0.14900    17738382.00000000 11394412.00000000 28424292.00000000 5169.25683594   544443.25000000 432106.90625000 
0.15000    17480852.00000000 11233091.00000000 28016532.00000000 5038.38720703   532462.12500000 422613.59375000 
0.15100    17224900.00000000 11072925.00000000 27611750.00000000 4909.28955078   520571.06250000 413195.59375000 
0.15200    16970834.00000000 10913901.00000000 27209474.00000000 4781.98681641   508777.96875000 403853.00000000 
0.15300    16718191.00000000 10755813.00000000 26809838.00000000 4656.56152344   497085.75000000 394586.75000000 
0.15400    16467211.00000000 10598649.00000000 26412720.00000000 4533.09179688   485490.56250000 385396.75000000 
0.15500    16217584.00000000 10442467.00000000 26017842.00000000 4411.62744141   474003.84375000 376293.87500000 
0.15600    15969577.00000000 10287251.00000000 25625212.00000000 4292.17480469   462621.90625000 367267.21875000 
0.15700    15723035.00000000 10132974.00000000 25235152.00000000 4174.91162109   451358.78125000 358334.15625000 
0.15800    15477826.00000000 9979377.00000000 24847076.00000000 4059.83007812   440204.34375000 349488.00000000 
0.15900    15234222.00000000 9826844.00000000 24461262.00000000 3946.96655273   429172.37500000 340732.46875000 
0.16000    14991907.00000000 9675004.00000000 24077736.00000000 3836.43798828   418260.21875000 332072.00000000 
0.16100    14751212.00000000 9524206.00000000 23696608.00000000 3728.28393555   407481.15625000 323514.43750000 
0.16200    14511884.00000000 9374226.00000000 23317650.00000000 3622.50756836   396830.78125000 315052.00000000 
0.16300    14274165.00000000 9225088.00000000 22941082.00000000 3519.16381836   386315.40625000 306696.65625000 
0.16400    14037906.00000000 9076919.00000000 22566792.00000000 3418.29760742   375938.46875000 298450.78125000 
0.16500    13803288.00000000 8929566.00000000 22194856.00000000 3319.95214844   365705.84375000 290313.65625000 
0.16600    13570197.00000000 8783253.00000000 21825592.00000000 3224.15429688   355621.28125000 282290.68750000 
0.16700    13338831.00000000 8637890.00000000 21458728.00000000 3130.88281250   345686.50000000 274382.56250000 
0.16800    13109125.00000000 8493417.00000000 21094164.00000000 3040.17456055   335905.53125000 266594.87500000 
0.16900    12881262.00000000 8350057.50000000 20732814.00000000 2952.14331055   326286.00000000 258931.42187500 
0.17000    12655107.00000000 8207700.00000000 20373856.00000000 2866.66796875   316825.40625000 251390.56250000 
