# SAXS profile: number of points = 501, q_min = 0, q_max = 0.5, delta_q = 0.001
#    q    intensity 
0.00000    162231296.00000000 101202744.00000000 256270384.00000000 106526.17968750 8314461.50000000 6566724.00000000 
0.00100    162199072.00000000 101179688.00000000 256212832.00000000 106493.49218750 8312301.00000000 6565037.00000000 
0.00200    162097584.00000000 101113432.00000000 256045840.00000000 106398.60937500 8305762.50000000 6559897.00000000 
0.00300    161923552.00000000 101003984.00000000 255764192.00000000 106240.15625000 8294846.50000000 6551366.50000000 
0.00400    161669616.00000000 100849184.00000000 255371280.00000000 106019.54687500 8279629.00000000 6539408.00000000 
0.00500    161346160.00000000 100651256.00000000 254867984.00000000 105735.59375000 8260123.50000000 6524095.50000000 
0.00600    160952256.00000000 100409536.00000000 254250800.00000000 105389.53906250 8236323.50000000 6505421.00000000 
0.00700    160485856.00000000 100125648.00000000 253528208.00000000 104983.64062500 8208357.50000000 6483476.50000000 
0.00800    159951072.00000000 99801032.00000000 252695088.00000000 104516.31250000 8176216.00000000 6458224.50000000 
0.00900    159352224.00000000 99433952.00000000 251754080.00000000 103990.89062500 8139933.00000000 6429753.00000000 
0.01000    158686112.00000000 99024512.00000000 250709024.00000000 103407.47656250 8099649.00000000 6398146.00000000 
0.01100    157955312.00000000 98574592.00000000 249560560.00000000 102766.60937500 8055406.00000000 6363412.50000000 
0.01200    157154880.00000000 98084560.00000000 248308544.00000000 102070.39843750 8007311.50000000 6325667.00000000 
0.01300    156292928.00000000 97554768.00000000 246959152.00000000 101319.56250000 7955400.50000000 6284902.00000000 
0.01400    155367440.00000000 96988096.00000000 245510176.00000000 100517.06250000 7899815.50000000 6241303.50000000 
0.01500    154382992.00000000 96383608.00000000 243967600.00000000 99663.25000000  7840633.50000000 6194807.00000000 
0.01600    153337312.00000000 95742144.00000000 242328720.00000000 98759.96093750  7777961.00000000 6145600.50000000 
0.01700    152234736.00000000 95065480.00000000 240601856.00000000 97809.21093750  7711979.50000000 6093779.50000000 
0.01800    151078864.00000000 94354392.00000000 238786176.00000000 96813.31250000  7642682.00000000 6039377.00000000 
0.01900    149864912.00000000 93610152.00000000 236888128.00000000 95774.42187500  7570336.50000000 5982589.50000000 
0.02000    148601632.00000000 92833144.00000000 234906048.00000000 94693.05468750  7494978.50000000 5923375.50000000 
0.02100    147286800.00000000 92025944.00000000 232845248.00000000 93573.16406250  7416795.50000000 5861950.50000000 
0.02200    145923632.00000000 91188520.00000000 230707040.00000000 92415.21875000  7335820.50000000 5798347.00000000 
0.02300    144515184.00000000 90322216.00000000 228498368.00000000 91223.53125000  7252321.50000000 5732722.50000000 
0.02400    143062208.00000000 89429224.00000000 226218368.00000000 89997.80468750  7166318.00000000 5665206.00000000 
0.02500    141568320.00000000 88509376.00000000 223875584.00000000 88742.03906250  7078117.50000000 5595859.50000000 
0.02600    140033600.00000000 87564536.00000000 221467888.00000000 87458.03125000  6987728.50000000 5524789.50000000 
0.02700    138460544.00000000 86597648.00000000 219002016.00000000 86148.07031250  6895328.00000000 5452165.00000000 
0.02800    136853856.00000000 85607768.00000000 216477504.00000000 84814.46875000  6801069.50000000 5378051.00000000 
0.02900    135214096.00000000 84597856.00000000 213903712.00000000 83459.64843750  6705155.50000000 5302611.50000000 
0.03000    133542288.00000000 83568128.00000000 211280352.00000000 82085.74218750  6607669.00000000 5225974.00000000 
0.03100    131843848.00000000 82520832.00000000 208613136.00000000 80696.12500000  6508738.00000000 5148160.00000000 
0.03200    130118144.00000000 81456320.00000000 205902064.00000000 79290.74218750  6408593.50000000 5069427.00000000 
0.03300    128369536.00000000 80377944.00000000 203154000.00000000 77874.31250000  6307382.00000000 4989781.00000000 
0.03400    126598464.00000000 79285888.00000000 200373376.00000000 76447.29687500  6205199.00000000 4909380.00000000 
0.03500    124808920.00000000 78181216.00000000 197561264.00000000 75013.21093750  6102220.00000000 4828369.50000000 
0.03600    123002400.00000000 77066040.00000000 194720016.00000000 73573.32031250  5998568.50000000 4746805.00000000 
0.03700    121180720.00000000 75941040.00000000 191856912.00000000 72130.51562500  5894426.50000000 4664778.00000000 
0.03800    119346664.00000000 74806896.00000000 188973328.00000000 70685.72656250  5789867.50000000 4582481.50000000 
0.03900    117502976.00000000 73666096.00000000 186072832.00000000 69242.32812500  5685078.50000000 4499954.50000000 
0.04000    115650712.00000000 72519736.00000000 183158608.00000000 67801.02343750  5580194.50000000 4417361.50000000 
0.04100    113792232.00000000 71369816.00000000 180234032.00000000 66364.15625000  5475279.00000000 4334710.00000000 
0.04200    111929864.00000000 70216856.00000000 177304336.00000000 64933.67187500  5370598.00000000 4252180.00000000 
0.04300    110065952.00000000 69062144.00000000 174370032.00000000 63511.22265625  5266113.00000000 4169848.00000000 
0.04400    108201672.00000000 67906672.00000000 171434656.00000000 62098.46093750  5162035.00000000 4087817.50000000 
0.04500    106340584.00000000 66752108.00000000 168500416.00000000 60697.40234375  5058481.50000000 4006151.50000000 
0.04600    104482432.00000000 65599368.00000000 165574240.00000000 59308.84765625  4955472.50000000 3924981.25000000 
0.04700    102629992.00000000 64449392.00000000 162655248.00000000 57934.41015625  4853178.50000000 3844306.75000000 
0.04800    100785088.00000000 63303472.00000000 159747216.00000000 56575.66015625  4751808.00000000 3764276.00000000 
0.04900    98949960.00000000 62163404.00000000 156851840.00000000 55233.66015625  4651231.00000000 3684947.00000000 
0.05000    97124536.00000000 61028496.00000000 153974816.00000000 53909.73046875  4551662.50000000 3606381.25000000 
0.05100    95312128.00000000 59901304.00000000 151116464.00000000 52604.60937500  4453198.00000000 3528642.75000000 
0.05200    93513032.00000000 58781936.00000000 148278832.00000000 51319.55468750  4355875.50000000 3451802.75000000 
0.05300    91729168.00000000 57671584.00000000 145464016.00000000 50055.31640625  4259767.00000000 3375930.00000000 
0.05400    89962392.00000000 56570760.00000000 142674560.00000000 48812.92968750  4164968.25000000 3301046.25000000 
0.05500    88212768.00000000 55480980.00000000 139913216.00000000 47592.89453125  4071529.75000000 3227226.00000000 
0.05600    86483064.00000000 54402192.00000000 137181632.00000000 46395.98828125  3979479.25000000 3154494.00000000 
0.05700    84773184.00000000 53335544.00000000 134480416.00000000 45222.70703125  3888921.75000000 3082919.50000000 
0.05800    83084184.00000000 52281128.00000000 131812144.00000000 44073.28125000  3799857.25000000 3012512.50000000 
0.05900    81417456.00000000 51240644.00000000 129177992.00000000 42948.59765625  3712374.25000000 2943332.75000000 
0.06000    79773936.00000000 50213916.00000000 126579976.00000000 41848.57421875  3626446.75000000 2875372.00000000 
0.06100    78154720.00000000 49201660.00000000 124018960.00000000 40773.83593750  3542146.25000000 2808682.75000000 
0.06200    76559400.00000000 48204312.00000000 121496904.00000000 39723.68750000  3459488.00000000 2743289.75000000 
0.06300    74990304.00000000 47222332.00000000 119014024.00000000 38699.59765625  3378519.25000000 2679201.25000000 
0.06400    73446824.00000000 46256104.00000000 116571512.00000000 37700.23437500  3299231.25000000 2616433.75000000 
0.06500    71929792.00000000 45306532.00000000 114170720.00000000 36726.45703125  3221615.75000000 2554987.50000000 
0.06600    70439808.00000000 44373048.00000000 111811912.00000000 35777.94140625  3145721.25000000 2494903.00000000 
0.06700    68977616.00000000 43456456.00000000 109496344.00000000 34854.52734375  3071545.75000000 2436135.00000000 
0.06800    67542720.00000000 42557236.00000000 107223808.00000000 33955.39453125  2999060.50000000 2378698.25000000 
0.06900    66135596.00000000 41674488.00000000 104996304.00000000 33081.43359375  2928287.50000000 2322644.50000000 
0.07000    64757496.00000000 40809696.00000000 102812600.00000000 32231.82031250  2859224.25000000 2267895.25000000 
0.07100    63407652.00000000 39962540.00000000 100673200.00000000 31405.84570312  2791858.00000000 2214507.00000000 
0.07200    62086040.00000000 39132724.00000000 98579904.00000000 30603.65820312  2726150.00000000 2162416.25000000 
0.07300    60793544.00000000 38321076.00000000 96530320.00000000 29824.64648438  2662123.50000000 2111646.75000000 
0.07400    59529516.00000000 37527072.00000000 94526344.00000000 29068.30468750  2599742.75000000 2062193.25000000 
0.07500    58293936.00000000 36750392.00000000 92568048.00000000 28334.19921875  2538969.75000000 2014000.12500000 
0.07600    57086732.00000000 35992048.00000000 90654360.00000000 27621.84570312  2479833.75000000 1967066.50000000 
0.07700    55908448.00000000 35250952.00000000 88785656.00000000 26930.69921875  2422232.25000000 1921392.12500000 
0.07800    54758088.00000000 34527632.00000000 86960360.00000000 26260.25000000  2366192.25000000 1876921.12500000 
0.07900    53635488.00000000 33822076.00000000 85180864.00000000 25610.01171875  2311653.00000000 1833668.37500000 
0.08000    52541048.00000000 33134206.00000000 83444416.00000000 24979.13671875  2258611.75000000 1791564.12500000 
0.08100    51473488.00000000 32463028.00000000 81752496.00000000 24367.54882812  2207044.25000000 1750636.37500000 
0.08200    50433560.00000000 31808748.00000000 80100928.00000000 23774.02343750  2156882.00000000 1710826.75000000 
0.08300    49420420.00000000 31171230.00000000 78494208.00000000 23198.70117188  2108101.25000000 1672113.00000000 
0.08400    48433296.00000000 30550880.00000000 76928688.00000000 22640.38281250  2060695.62500000 1634475.75000000 
0.08500    47472304.00000000 29946556.00000000 75404312.00000000 22098.82031250  2014611.50000000 1597889.62500000 
0.08600    46536552.00000000 29358460.00000000 73921264.00000000 21573.30468750  1969791.25000000 1562316.37500000 
0.08700    45626460.00000000 28786102.00000000 72477120.00000000 21063.41796875  1926235.12500000 1527742.50000000 
0.08800    44740604.00000000 28229382.00000000 71072384.00000000 20568.19140625  1883880.75000000 1494111.62500000 
0.08900    43878804.00000000 27688014.00000000 69706264.00000000 20087.82421875  1842688.25000000 1461426.00000000 
0.09000    43040552.00000000 27161820.00000000 68378352.00000000 19620.88671875  1802646.75000000 1429634.37500000 
0.09100    42225728.00000000 26649896.00000000 67086296.00000000 19167.47265625  1763721.12500000 1398719.87500000 
0.09200    41433336.00000000 26152642.00000000 65831244.00000000 18726.87109375  1725841.50000000 1368653.50000000 
0.09300    40663372.00000000 25669592.00000000 64610716.00000000 18298.54492188  1688994.50000000 1339418.87500000 
0.09400    39914544.00000000 25200018.00000000 63425120.00000000 17882.01757812  1653148.25000000 1310965.12500000 
0.09500    39186732.00000000 24743650.00000000 62271888.00000000 17476.80273438  1618265.87500000 1283297.50000000 
0.09600    38478968.00000000 24300616.00000000 61152076.00000000 17082.38281250  1584308.87500000 1256351.50000000 
0.09700    37791752.00000000 23870200.00000000 60064012.00000000 16698.64062500  1551263.75000000 1230116.75000000 
0.09800    37123792.00000000 23452202.00000000 59006756.00000000 16325.07031250  1519055.50000000 1204584.50000000 
0.09900    36474476.00000000 23046334.00000000 57979808.00000000 15960.95996094  1487709.37500000 1179712.37500000 
0.10000    35843308.00000000 22651792.00000000 56981356.00000000 15606.25585938  1457152.50000000 1155472.75000000 
0.10100    35229572.00000000 22268710.00000000 56011732.00000000 15260.24121094  1427366.75000000 1131859.37500000 
0.10200    34633404.00000000 21896622.00000000 55068968.00000000 14922.90917969  1398327.50000000 1108836.75000000 
0.10300    34053168.00000000 21535120.00000000 54152856.00000000 14593.89843750  1370008.75000000 1086371.37500000 
0.10400    33489290.00000000 21183712.00000000 53262792.00000000 14272.70605469  1342395.25000000 1064478.75000000 
0.10500    32940892.00000000 20842532.00000000 52397380.00000000 13959.28417969  1315433.75000000 1043104.75000000 
0.10600    32407504.00000000 20510730.00000000 51555396.00000000 13653.07910156  1289116.87500000 1022244.37500000 
0.10700    31888192.00000000 20188242.00000000 50736808.00000000 13354.07714844  1263412.12500000 1001881.75000000 
0.10800    31383158.00000000 19874442.00000000 49940616.00000000 13061.95703125  1238316.75000000 981983.93750000 
0.10900    30891522.00000000 19569542.00000000 49166008.00000000 12776.39746094  1213777.50000000 962542.81250000 
0.11000    30412490.00000000 19272812.00000000 48411732.00000000 12497.32031250  1189797.00000000 943549.18750000 
0.11100    29946270.00000000 18984004.00000000 47677196.00000000 12224.39550781  1166357.37500000 924979.12500000 
0.11200    29491848.00000000 18702892.00000000 46962240.00000000 11957.47363281  1143417.25000000 906810.50000000 
0.11300    29048754.00000000 18429016.00000000 46265176.00000000 11696.49902344  1120989.75000000 889033.50000000 
0.11400    28616998.00000000 18162398.00000000 45586388.00000000 11440.99121094  1099035.37500000 871643.25000000 
0.11500    28195608.00000000 17902168.00000000 44924052.00000000 11191.13378906  1077536.12500000 854620.43750000 
0.11600    27784352.00000000 17648776.00000000 44278080.00000000 10946.63378906  1056489.50000000 837946.50000000 
0.11700    27383156.00000000 17401382.00000000 43647328.00000000 10707.35058594  1035877.00000000 821621.18750000 
0.11800    26991100.00000000 17160008.00000000 43031888.00000000 10473.07031250  1015672.87500000 805621.93750000 
0.11900    26607958.00000000 16924188.00000000 42430328.00000000 10243.72167969  995877.06250000 789941.75000000 
0.12000    26233414.00000000 16693680.00000000 41842180.00000000 10019.24023438  976464.75000000 774569.75000000 
0.12100    25866924.00000000 16468494.00000000 41267568.00000000 9799.42578125   957441.06250000 759503.93750000 
0.12200    25508340.00000000 16248142.00000000 40704892.00000000 9584.23242188   938779.68750000 744720.31250000 
0.12300    25157178.00000000 16032391.00000000 40154148.00000000 9373.41308594   920463.43750000 730217.31250000 
0.12400    24813094.00000000 15821084.00000000 39614568.00000000 9167.07519531   902500.12500000 715985.31250000 
0.12500    24475742.00000000 15614095.00000000 39085548.00000000 8964.93359375   884864.75000000 702014.00000000 
0.12600    24144854.00000000 15410956.00000000 38567004.00000000 8767.04492188   867564.62500000 688307.62500000 
0.12700    23820314.00000000 15211547.00000000 38057948.00000000 8573.22265625   850571.62500000 674839.50000000 
0.12800    23501436.00000000 15015844.00000000 37558112.00000000 8383.26757812   833878.62500000 661612.43750000 
0.12900    23188126.00000000 14823523.00000000 37067020.00000000 8197.31152344   817487.68750000 648620.62500000 
0.13000    22880128.00000000 14634364.00000000 36583576.00000000 8015.13037109   801382.50000000 635858.31250000 
0.13100    22577032.00000000 14448286.00000000 36108460.00000000 7836.61523438   785551.37500000 623306.56250000 
0.13200    22278802.00000000 14265013.00000000 35640476.00000000 7661.70947266   769998.37500000 610973.50000000 
0.13300    21984780.00000000 14084512.00000000 35179924.00000000 7490.35888672   754710.06250000 598853.81250000 
0.13400    21695396.00000000 13906498.00000000 34725112.00000000 7322.45556641   739673.50000000 586926.31250000 
0.13500    21410006.00000000 13730903.00000000 34277328.00000000 7157.90039062   724890.87500000 575199.06250000 
0.13600    21128466.00000000 13557529.00000000 33835152.00000000 6996.59521484   710349.50000000 563661.50000000 
0.13700    20850384.00000000 13386283.00000000 33398402.00000000 6838.49658203   696042.56250000 552310.50000000 
0.13800    20575758.00000000 13216987.00000000 32967096.00000000 6683.53759766   681962.56250000 541141.75000000 
0.13900    20304440.00000000 13049585.00000000 32540566.00000000 6531.50634766   668113.25000000 530147.43750000 
0.14000    20036104.00000000 12883976.00000000 32118732.00000000 6382.49511719   654480.43750000 519325.81250000 
0.14100    19770580.00000000 12719910.00000000 31701176.00000000 6236.35449219   641063.62500000 508667.28125000 
0.14200    19508028.00000000 12557348.00000000 31287786.00000000 6092.99902344   627844.06250000 498174.46875000 
0.14300    19248036.00000000 12396409.00000000 30878520.00000000 5952.31835938   614830.93750000 487840.03125000 
0.14400    18990302.00000000 12236559.00000000 30472522.00000000 5814.25683594   602014.25000000 477656.50000000 
0.14500    18735094.00000000 12078179.00000000 30070114.00000000 5678.86962891   589388.06250000 467626.34375000 
0.14600    18481826.00000000 11920923.00000000 29670980.00000000 5545.95019531   576956.31250000 457743.40625000 
0.14700    18231020.00000000 11764785.00000000 29275094.00000000 5415.43457031   564700.81250000 448005.15625000 
0.14800    17981956.00000000 11609757.00000000 28881884.00000000 5287.32910156   552625.43750000 438405.43750000 
0.14900    17734740.00000000 11455735.00000000 28491422.00000000 5161.49658203   540719.31250000 428941.78125000 
0.15000    17489508.00000000 11302495.00000000 28103754.00000000 5037.98291016   528991.37500000 419615.68750000 
0.15100    17246040.00000000 11150309.00000000 27718598.00000000 4916.61035156   517425.62500000 410421.37500000 
0.15200    17004104.00000000 10998922.00000000 27335796.00000000 4797.43164062   506026.12500000 401354.90625000 
0.15300    16763729.00000000 10848382.00000000 26955276.00000000 4680.33691406   494784.50000000 392414.56250000 
0.15400    16525076.00000000 10698560.00000000 26577104.00000000 4565.31445312   483699.34375000 383595.12500000 
0.15500    16287877.00000000 10549552.00000000 26201014.00000000 4452.33984375   472769.28125000 374902.37500000 
0.15600    16052075.00000000 10401310.00000000 25826740.00000000 4341.29052734   461992.62500000 366326.21875000 
0.15700    15817740.00000000 10253757.00000000 25454984.00000000 4232.21826172   451365.46875000 357874.46875000 
0.15800    15584603.00000000 10106914.00000000 25085028.00000000 4125.05273438   440883.90625000 349532.50000000 
0.15900    15352962.00000000 9960768.00000000 24717048.00000000 4019.82470703   430550.43750000 341310.50000000 
0.16000    15122683.00000000 9815326.00000000 24350962.00000000 3916.44433594   420359.37500000 333199.59375000 
0.16100    14893756.00000000 9670643.00000000 23986990.00000000 3814.94042969   410312.25000000 325202.50000000 
0.16200    14666170.00000000 9526632.00000000 23624840.00000000 3715.22119141   400404.31250000 317317.15625000 
0.16300    14439902.00000000 9383229.00000000 23264820.00000000 3617.34082031   390636.78125000 309542.78125000 
0.16400    14215194.00000000 9240635.00000000 22906756.00000000 3521.28735352   381010.50000000 301878.75000000 
0.16500    13991698.00000000 9098719.00000000 22550540.00000000 3427.02929688   371522.00000000 294322.31250000 
0.16600    13769657.00000000 8957625.00000000 22196744.00000000 3334.56787109   362172.90625000 286877.56250000 
0.16700    13549012.00000000 8817366.00000000 21844802.00000000 3243.86474609   352953.37500000 279539.90625000 
0.16800    13329715.00000000 8677771.00000000 21495020.00000000 3154.97412109   343875.50000000 272308.46875000 
0.16900    13112141.00000000 8539113.00000000 21147664.00000000 3067.92358398   334939.84375000 265189.53125000 
0.17000    12895923.00000000 8401189.00000000 20802314.00000000 2982.64453125   326136.37500000 258180.04687500 
