# SAXS profile: number of points = 501, q_min = 0, q_max = 0.5, delta_q = 0.001
#    q    intensity 
0.00000    162237792.00000000 101201552.00000000 256271440.00000000 104151.29687500 8221285.00000000 6493155.50000000 
0.00100    162213808.00000000 101186928.00000000 256233424.00000000 104130.81250000 8219875.50000000 6492040.50000000 
0.00200    162142320.00000000 101141992.00000000 256120112.00000000 104069.98437500 8215588.00000000 6488666.50000000 
0.00300    162022768.00000000 101067336.00000000 255929872.00000000 103969.23437500 8208462.50000000 6483062.50000000 
0.00400    161853040.00000000 100962672.00000000 255662848.00000000 103826.69531250 8198518.00000000 6475228.00000000 
0.00500    161636192.00000000 100828432.00000000 255320976.00000000 103644.99218750 8185708.50000000 6465174.00000000 
0.00600    161369936.00000000 100664720.00000000 254904880.00000000 103423.39843750 8170101.00000000 6452897.00000000 
0.00700    161057072.00000000 100471240.00000000 254412512.00000000 103161.47656250 8151696.50000000 6438395.50000000 
0.00800    160695936.00000000 100248192.00000000 253845744.00000000 102860.22656250 8130513.00000000 6421727.00000000 
0.00900    160288144.00000000 99997048.00000000 253205280.00000000 102519.76562500 8106584.00000000 6402891.50000000 
0.01000    159832192.00000000 99716672.00000000 252492432.00000000 102141.17968750 8079913.00000000 6381913.50000000 
0.01100    159330832.00000000 99407408.00000000 251704304.00000000 101723.81250000 8050528.00000000 6358774.50000000 
0.01200    158785376.00000000 99070464.00000000 250845520.00000000 101268.86718750 8018461.50000000 6333575.00000000 
0.01300    158192928.00000000 98704728.00000000 249915056.00000000 100776.11718750 7983736.00000000 6306227.00000000 
0.01400    157555664.00000000 98312064.00000000 248914608.00000000 100247.25000000 7946417.50000000 6276885.50000000 
0.01500    156875712.00000000 97891376.00000000 247844512.00000000 99681.78906250  7906562.50000000 6245478.50000000 
0.01600    156150528.00000000 97444112.00000000 246704816.00000000 99080.95312500  7864129.50000000 6212109.00000000 
0.01700    155382256.00000000 96970344.00000000 245497760.00000000 98445.50781250  7819241.50000000 6176744.50000000 
0.01800    154571808.00000000 96469608.00000000 244225776.00000000 97775.57812500  7771887.50000000 6139488.50000000 
0.01900    153720208.00000000 95943392.00000000 242886912.00000000 97072.26562500  7722164.00000000 6100334.50000000 
0.02000    152827664.00000000 95392504.00000000 241483984.00000000 96336.28125000  7670042.50000000 6059354.50000000 
0.02100    151895104.00000000 94816712.00000000 240017728.00000000 95568.65625000  7615670.50000000 6016590.00000000 
0.02200    150923680.00000000 94217088.00000000 238490112.00000000 94769.88281250  7559042.50000000 5972021.50000000 
0.02300    149912624.00000000 93593360.00000000 236902304.00000000 93941.38281250  7500259.50000000 5925741.00000000 
0.02400    148864144.00000000 92945792.00000000 235255312.00000000 93083.12500000  7439341.50000000 5877777.50000000 
0.02500    147779920.00000000 92276400.00000000 233550064.00000000 92197.00000000  7376335.50000000 5828203.50000000 
0.02600    146659856.00000000 91584272.00000000 231789424.00000000 91283.90625000  7311352.00000000 5777028.00000000 
0.02700    145504736.00000000 90870840.00000000 229973792.00000000 90343.48437500  7244387.50000000 5724367.00000000 
0.02800    144315328.00000000 90136368.00000000 228104368.00000000 89378.53906250  7175610.00000000 5670171.00000000 
0.02900    143093984.00000000 89382016.00000000 226184832.00000000 88388.81250000  7104941.50000000 5614555.50000000 
0.03000    141841072.00000000 88607992.00000000 224214480.00000000 87376.10156250  7032570.00000000 5557580.50000000 
0.03100    140556992.00000000 87814136.00000000 222195664.00000000 86340.88281250  6958536.00000000 5499291.00000000 
0.03200    139243504.00000000 87002384.00000000 220129696.00000000 85284.78906250  6882877.50000000 5439740.50000000 
0.03300    137901568.00000000 86173272.00000000 218020400.00000000 84208.31250000  6805676.00000000 5378965.50000000 
0.03400    136531904.00000000 85326936.00000000 215866832.00000000 83113.44531250  6727008.50000000 5317048.00000000 
0.03500    135136208.00000000 84463520.00000000 213672560.00000000 82000.09375000  6646987.50000000 5254033.50000000 
0.03600    133715128.00000000 83585504.00000000 211437680.00000000 80870.03906250  6565633.00000000 5189973.00000000 
0.03700    132270440.00000000 82692120.00000000 209166016.00000000 79724.50781250  6482992.00000000 5124892.50000000 
0.03800    130803288.00000000 81784616.00000000 206857392.00000000 78564.08593750  6399224.00000000 5058943.00000000 
0.03900    129314008.00000000 80863880.00000000 204515904.00000000 77391.07812500  6314364.50000000 4992116.00000000 
0.04000    127804304.00000000 79930216.00000000 202141376.00000000 76204.77343750  6228448.50000000 4924476.00000000 
0.04100    126275048.00000000 78984680.00000000 199736304.00000000 75008.37500000  6141641.50000000 4856065.50000000 
0.04200    124728304.00000000 78027648.00000000 197302272.00000000 73801.41406250  6053933.00000000 4786996.00000000 
0.04300    123164400.00000000 77059928.00000000 194842176.00000000 72585.60156250  5965445.00000000 4717279.50000000 
0.04400    121584728.00000000 76082656.00000000 192356128.00000000 71362.21093750  5876208.50000000 4647027.50000000 
0.04500    119990800.00000000 75095800.00000000 189848720.00000000 70132.33593750  5786336.00000000 4576247.00000000 
0.04600    118383160.00000000 74100848.00000000 187319392.00000000 68896.42187500  5695918.00000000 4505000.00000000 
0.04700    116763584.00000000 73098712.00000000 184770608.00000000 67656.48437500  5605015.50000000 4433373.00000000 
0.04800    115133600.00000000 72089344.00000000 182204928.00000000 66412.93750000  5513657.00000000 4361394.50000000 
0.04900    113493536.00000000 71074048.00000000 179624256.00000000 65167.65234375  5421919.50000000 4289156.00000000 
0.05000    111845400.00000000 70053352.00000000 177029344.00000000 63920.70703125  5329981.00000000 4216682.00000000 
0.05100    110188544.00000000 69027872.00000000 174422928.00000000 62673.58203125  5237804.00000000 4144050.00000000 
0.05200    108526632.00000000 67997824.00000000 171805712.00000000 61427.34375000  5145498.00000000 4071297.50000000 
0.05300    106859096.00000000 66964624.00000000 169181184.00000000 60183.06640625  5053114.00000000 3998492.25000000 
0.05400    105188304.00000000 65929060.00000000 166549792.00000000 58941.40625000  4960715.00000000 3925697.25000000 
0.05500    103514328.00000000 64891508.00000000 163913904.00000000 57703.87890625  4868416.50000000 3852945.00000000 
0.05600    101839160.00000000 63853036.00000000 161275728.00000000 56470.89062500  4776283.50000000 3780292.25000000 
0.05700    100162896.00000000 62813620.00000000 158636272.00000000 55243.51953125  4684296.00000000 3707822.50000000 
0.05800    98487360.00000000 61774580.00000000 155997568.00000000 54022.73828125  4592605.00000000 3635524.25000000 
0.05900    96813368.00000000 60736412.00000000 153360592.00000000 52809.50000000  4501229.50000000 3563494.25000000 
0.06000    95141968.00000000 59699648.00000000 150727088.00000000 51604.28125000  4410298.00000000 3491763.50000000 
0.06100    93474392.00000000 58664888.00000000 148100528.00000000 50408.34375000  4319788.50000000 3420393.75000000 
0.06200    91811712.00000000 57633000.00000000 145480368.00000000 49222.44531250  4229757.00000000 3349424.00000000 
0.06300    90154928.00000000 56604456.00000000 142869488.00000000 48046.80078125  4140310.00000000 3278868.75000000 
0.06400    88504264.00000000 55579712.00000000 140268384.00000000 46882.67968750  4051467.25000000 3208811.50000000 
0.06500    86861848.00000000 54559632.00000000 137679472.00000000 45730.67578125  3963321.75000000 3139257.50000000 
0.06600    85227296.00000000 53544652.00000000 135103072.00000000 44591.24218750  3875865.50000000 3070285.00000000 
0.06700    83602232.00000000 52535172.00000000 132541808.00000000 43465.10156250  3789222.00000000 3001908.00000000 
0.06800    81987432.00000000 51531748.00000000 129996288.00000000 42353.25390625  3703351.00000000 2934178.00000000 
0.06900    80384096.00000000 50535320.00000000 127467800.00000000 41255.83984375  3618379.50000000 2867115.25000000 
0.07000    78792552.00000000 49546052.00000000 124958192.00000000 40173.32421875  3534301.00000000 2800774.75000000 
0.07100    77213880.00000000 48564380.00000000 122468568.00000000 39106.80859375  3451169.50000000 2735167.25000000 
0.07200    75648368.00000000 47591076.00000000 119999600.00000000 38055.92187500  3369026.50000000 2670321.75000000 
0.07300    74097560.00000000 46626200.00000000 117552544.00000000 37021.86328125  3287897.50000000 2606296.00000000 
0.07400    72561280.00000000 45670460.00000000 115129192.00000000 36004.80859375  3207838.75000000 2543096.75000000 
0.07500    71040344.00000000 44724456.00000000 112730472.00000000 35004.80859375  3128865.25000000 2480732.25000000 
0.07600    69535848.00000000 43788116.00000000 110357080.00000000 34022.64062500  3051038.50000000 2419262.50000000 
0.07700    68049056.00000000 42862104.00000000 108009616.00000000 33058.42968750  2974337.25000000 2358711.00000000 
0.07800    66579624.00000000 41946740.00000000 105689728.00000000 32112.56054688  2898830.50000000 2299048.00000000 
0.07900    65127484.00000000 41042348.00000000 103397816.00000000 31185.20898438  2824512.50000000 2240364.00000000 
0.08000    63694396.00000000 40149528.00000000 101135680.00000000 30276.40234375  2751440.25000000 2182629.50000000 
0.08100    62280364.00000000 39268380.00000000 98903152.00000000 29386.80468750  2679615.75000000 2125892.00000000 
0.08200    60885848.00000000 38398980.00000000 96700584.00000000 28516.03906250  2609047.25000000 2070134.87500000 
0.08300    59511456.00000000 37541824.00000000 94529624.00000000 27664.75781250  2539769.75000000 2015384.87500000 
0.08400    58157120.00000000 36697488.00000000 92391384.00000000 26832.76171875  2471813.00000000 1961660.75000000 
0.08500    56823668.00000000 35865636.00000000 90284936.00000000 26020.15625000  2405137.25000000 1908968.00000000 
0.08600    55511544.00000000 35046832.00000000 88211792.00000000 25226.95312500  2339792.75000000 1857309.87500000 
0.08700    54220924.00000000 34241380.00000000 86172216.00000000 24453.25390625  2275809.25000000 1806705.00000000 
0.08800    52951740.00000000 33448794.00000000 84166216.00000000 23699.12304688  2213133.50000000 1757146.87500000 
0.08900    51704772.00000000 32670024.00000000 82195064.00000000 22964.29492188  2151843.25000000 1708659.62500000 
0.09000    50479908.00000000 31904960.00000000 80259192.00000000 22248.99218750  2091884.12500000 1661232.37500000 
0.09100    49277672.00000000 31153686.00000000 78358432.00000000 21552.77343750  2033257.50000000 1614853.37500000 
0.09200    48097828.00000000 30416240.00000000 76493056.00000000 20875.71875000  1976006.12500000 1569555.37500000 
0.09300    46940892.00000000 29692968.00000000 74663344.00000000 20217.87500000  1920098.25000000 1525313.62500000 
0.09400    45806644.00000000 28983626.00000000 72869440.00000000 19578.70703125  1865556.37500000 1482128.50000000 
0.09500    44695560.00000000 28288586.00000000 71112064.00000000 18958.31054688  1812339.50000000 1439996.87500000 
0.09600    43607272.00000000 27607722.00000000 69389616.00000000 18356.55078125  1760470.50000000 1398932.50000000 
0.09700    42542484.00000000 26941246.00000000 67705400.00000000 17772.87304688  1709927.37500000 1358910.75000000 
0.09800    41500564.00000000 26288976.00000000 66056324.00000000 17207.43359375  1660718.87500000 1319926.50000000 
0.09900    40481820.00000000 25650894.00000000 64443848.00000000 16659.82617188  1612812.00000000 1281977.87500000 
0.10000    39486140.00000000 25027148.00000000 62867448.00000000 16129.62597656  1566210.00000000 1245057.62500000 
0.10100    38513384.00000000 24417616.00000000 61327244.00000000 15616.66210938  1520891.50000000 1209145.87500000 
0.10200    37563576.00000000 23822298.00000000 59823368.00000000 15120.80371094  1476849.87500000 1174232.75000000 
0.10300    36636384.00000000 23241110.00000000 58355128.00000000 14641.53613281  1434068.25000000 1140316.25000000 
0.10400    35732192.00000000 22674014.00000000 56922784.00000000 14178.53222656  1392530.87500000 1107381.00000000 
0.10500    34850556.00000000 22121002.00000000 55526324.00000000 13731.65234375  1352225.25000000 1075400.75000000 
0.10600    33991064.00000000 21581604.00000000 54164868.00000000 13300.40039062  1313111.62500000 1044381.50000000 
0.10700    33154154.00000000 21056330.00000000 52837904.00000000 12884.40429688  1275191.75000000 1014297.37500000 
0.10800    32338970.00000000 20544436.00000000 51546088.00000000 12483.30468750  1238440.62500000 985132.68750000 
0.10900    31545734.00000000 20046264.00000000 50288964.00000000 12096.85058594  1202834.75000000 956868.50000000 
0.11000    30773854.00000000 19561392.00000000 49065324.00000000 11724.65429688  1168351.25000000 929495.68750000 
0.11100    30023390.00000000 19089924.00000000 47875388.00000000 11366.21582031  1134981.12500000 902991.75000000 
0.11200    29293900.00000000 18631356.00000000 46718820.00000000 11021.20019531  1102683.50000000 877339.25000000 
0.11300    28585294.00000000 18185810.00000000 45594884.00000000 10689.21777344  1071443.12500000 852521.12500000 
0.11400    27897124.00000000 17753028.00000000 44503492.00000000 10369.92773438  1041239.31250000 828519.25000000 
0.11500    27229136.00000000 17332770.00000000 43443764.00000000 10062.92968750  1012042.81250000 805316.43750000 
0.11600    26580818.00000000 16924990.00000000 42415220.00000000 9767.70800781   983838.31250000 782888.06250000 
0.11700    25952192.00000000 16529355.00000000 41417816.00000000 9484.10253906   956585.75000000 761214.93750000 
0.11800    25342650.00000000 16145617.00000000 40450444.00000000 9211.50878906   930262.25000000 740286.00000000 
0.11900    24751766.00000000 15773592.00000000 39512764.00000000 8949.57714844   904850.00000000 720071.06250000 
0.12000    24179464.00000000 15413183.00000000 38604352.00000000 8698.00683594   880318.75000000 700547.50000000 
0.12100    23625258.00000000 15064065.00000000 37724548.00000000 8456.39355469   856658.25000000 681712.43750000 
0.12200    23088858.00000000 14726051.00000000 36872756.00000000 8224.25390625   833818.56250000 663527.56250000 
0.12300    22569744.00000000 14398918.00000000 36048248.00000000 8001.31640625   811786.81250000 645984.68750000 
0.12400    22067342.00000000 14082242.00000000 35250784.00000000 7787.09521484   790535.06250000 629055.50000000 
0.12500    21581660.00000000 13776028.00000000 34479120.00000000 7581.33837891   770033.25000000 612724.68750000 
0.12600    21112172.00000000 13480014.00000000 33733264.00000000 7383.73974609   750266.31250000 596969.37500000 
0.12700    20658270.00000000 13193807.00000000 33012506.00000000 7193.70800781   731200.62500000 581775.12500000 
0.12800    20219736.00000000 12917300.00000000 32315792.00000000 7011.11376953   712812.68750000 567113.18750000 
0.12900    19796120.00000000 12650021.00000000 31643034.00000000 6835.56054688   695075.93750000 552971.06250000 
0.13000    19387236.00000000 12392072.00000000 30993050.00000000 6666.63427734   677970.18750000 539322.93750000 
0.13100    18992280.00000000 12142866.00000000 30365548.00000000 6504.05664062   661465.43750000 526157.25000000 
0.13200    18610934.00000000 11902373.00000000 29759636.00000000 6347.59277344   645540.50000000 513447.15625000 
0.13300    18243008.00000000 11670167.00000000 29175264.00000000 6196.81396484   630175.81250000 501184.00000000 
0.13400    17887898.00000000 11446090.00000000 28610898.00000000 6051.45947266   615340.43750000 489343.78125000 
0.13500    17545282.00000000 11229965.00000000 28066526.00000000 5911.32324219   601021.87500000 477904.15625000 
0.13600    17214742.00000000 11021332.00000000 27541136.00000000 5776.06005859   587185.50000000 466854.75000000 
0.13700    16895852.00000000 10820206.00000000 27034572.00000000 5645.38281250   573812.87500000 456172.78125000 
0.13800    16588165.00000000 10626083.00000000 26545646.00000000 5519.05566406   560885.62500000 445845.59375000 
0.13900    16291497.00000000 10438928.00000000 26074202.00000000 5396.82421875   548387.06250000 435857.00000000 
0.14000    16005208.00000000 10258371.00000000 25619534.00000000 5278.48046875   536289.25000000 426188.59375000 
0.14100    15728993.00000000 10084180.00000000 25180630.00000000 5163.77441406   524576.43750000 416826.56250000 
0.14200    15462543.00000000 9916154.00000000 24757232.00000000 5052.44628906   513230.84375000 407754.03125000 
0.14300    15205379.00000000 9754055.00000000 24348810.00000000 4944.34033203   502227.31250000 398958.43750000 
0.14400    14957164.00000000 9597647.00000000 23954564.00000000 4839.26220703   491553.75000000 390422.12500000 
0.14500    14717578.00000000 9446695.00000000 23574152.00000000 4737.02441406   481193.93750000 382138.62500000 
0.14600    14486177.00000000 9300923.00000000 23206850.00000000 4637.43505859   471128.34375000 374087.50000000 
0.14700    14262752.00000000 9160228.00000000 22852074.00000000 4540.36083984   461343.25000000 366260.50000000 
0.14800    14046782.00000000 9024288.00000000 22509286.00000000 4445.59326172   451815.84375000 358640.15625000 
0.14900    13838026.00000000 8892994.00000000 22177830.00000000 4352.99462891   442539.65625000 351216.84375000 
0.15000    13636063.00000000 8765930.00000000 21857638.00000000 4262.43310547   433496.75000000 343985.96875000 
0.15100    13440730.00000000 8643132.00000000 21547756.00000000 4173.83105469   424674.75000000 336929.71875000 
0.15200    13251722.00000000 8524284.00000000 21247904.00000000 4087.03076172   416065.18750000 330040.93750000 
0.15300    13068496.00000000 8409235.00000000 20957446.00000000 4001.88061523   407646.93750000 323307.50000000 
0.15400    12890942.00000000 8297721.00000000 20675936.00000000 3918.32348633   399413.09375000 316723.28125000 
0.15500    12718711.00000000 8189709.00000000 20402998.00000000 3836.29467773   391351.68750000 310273.62500000 
0.15600    12551596.00000000 8084840.50000000 20137994.00000000 3755.67431641   383453.53125000 303959.46875000 
0.15700    12389154.00000000 7983067.50000000 19880914.00000000 3676.39379883   375711.12500000 297765.68750000 
0.15800    12231222.00000000 7884124.00000000 19630778.00000000 3598.32495117   368108.90625000 291685.34375000 
0.15900    12077694.00000000 7788001.50000000 19387664.00000000 3521.55639648   360643.65625000 285717.31250000 
0.16000    11928030.00000000 7694353.50000000 19150794.00000000 3445.86572266   353302.12500000 279849.93750000 
0.16100    11782279.00000000 7603176.00000000 18920136.00000000 3371.33007812   346085.65625000 274079.09375000 
0.16200    11640048.00000000 7514248.50000000 18695084.00000000 3297.84399414   338977.84375000 268397.71875000 
0.16300    11501076.00000000 7427473.50000000 18475294.00000000 3225.37988281   331977.53125000 262803.65625000 
0.16400    11365310.00000000 7342653.00000000 18260604.00000000 3153.93725586   325077.62500000 257290.82812500 
0.16500    11232400.00000000 7259693.00000000 18050520.00000000 3083.46752930   318275.15625000 251852.71875000 
0.16600    11102284.00000000 7178503.00000000 17844808.00000000 3013.93627930   311560.15625000 246487.98437500 
0.16700    10974555.00000000 7098879.50000000 17643046.00000000 2945.35742188   304930.43750000 241190.06250000 
0.16800    10849254.00000000 7020767.00000000 17445106.00000000 2877.66772461   298380.96875000 235959.15625000 
0.16900    10726227.00000000 6944111.00000000 17250910.00000000 2810.98291016   291912.00000000 230791.26562500 
0.17000    10605224.00000000 6868681.00000000 17059602.00000000 2745.17504883   285518.78125000 225683.90625000 
