# SAXS profile: number of points = 501, q_min = 0, q_max = 0.5, delta_q = 0.001
#    q    intensity 
0.00000    162236544.00000000 101202024.00000000 256271120.00000000 101971.09375000 8134738.00000000 6424851.50000000 
0.00100    162194160.00000000 101174360.00000000 256200832.00000000 101937.35937500 8132350.50000000 6422903.00000000 
0.00200    162064784.00000000 101091928.00000000 255992768.00000000 101836.95312500 8124936.00000000 6417094.00000000 
0.00300    161844720.00000000 100954896.00000000 255644896.00000000 101669.56250000 8112605.50000000 6407396.50000000 
0.00400    161534640.00000000 100764216.00000000 255157904.00000000 101435.23437500 8095412.50000000 6393888.50000000 
0.00500    161136976.00000000 100518736.00000000 254534672.00000000 101135.27343750 8073403.00000000 6376502.00000000 
0.00600    160653232.00000000 100219104.00000000 253774368.00000000 100769.94531250 8046502.00000000 6355351.00000000 
0.00700    160083312.00000000 99867288.00000000 252879456.00000000 100340.10156250 8014954.00000000 6330529.50000000 
0.00800    159426432.00000000 99462912.00000000 251851952.00000000 99847.46875000  7978701.00000000 6301979.00000000 
0.00900    158691248.00000000 99007408.00000000 250693120.00000000 99291.25781250  7937856.50000000 6269809.00000000 
0.01000    157875520.00000000 98502312.00000000 249406368.00000000 98675.58593750  7892489.00000000 6234091.00000000 
0.01100    156978096.00000000 97945792.00000000 247993472.00000000 97999.79687500  7842696.00000000 6194922.50000000 
0.01200    156000512.00000000 97342248.00000000 246456688.00000000 97265.67968750  7788600.50000000 6152307.50000000 
0.01300    154945776.00000000 96689904.00000000 244800448.00000000 96475.46093750  7730327.00000000 6106454.00000000 
0.01400    153818944.00000000 95992120.00000000 243026000.00000000 95630.33593750  7667960.50000000 6057364.00000000 
0.01500    152619280.00000000 95249688.00000000 241138720.00000000 94731.77343750  7601633.50000000 6005167.00000000 
0.01600    151350176.00000000 94463616.00000000 239140448.00000000 93784.03125000  7531540.50000000 5949942.50000000 
0.01700    150011936.00000000 93636152.00000000 237037568.00000000 92787.24218750  7457812.00000000 5891856.50000000 
0.01800    148610272.00000000 92768416.00000000 234831280.00000000 91743.71093750  7380530.50000000 5831015.00000000 
0.01900    147145616.00000000 91861328.00000000 232524992.00000000 90655.90625000  7299904.00000000 5767568.50000000 
0.02000    145622304.00000000 90917840.00000000 230127536.00000000 89526.07031250  7216037.50000000 5701540.50000000 
0.02100    144040736.00000000 89939128.00000000 227638416.00000000 88357.32812500  7129236.00000000 5633154.00000000 
0.02200    142406592.00000000 88926696.00000000 225066928.00000000 87150.86718750  7039497.00000000 5562484.50000000 
0.02300    140720496.00000000 87882112.00000000 222411664.00000000 85909.95312500  6947144.00000000 5489725.00000000 
0.02400    138986560.00000000 86808864.00000000 219682288.00000000 84637.96093750  6852294.50000000 5415009.50000000 
0.02500    137208048.00000000 85706448.00000000 216883216.00000000 83336.31250000  6755055.00000000 5338462.00000000 
0.02600    135387296.00000000 84578928.00000000 214017632.00000000 82006.86718750  6655722.00000000 5260205.00000000 
0.02700    133528936.00000000 83426576.00000000 211090672.00000000 80654.51562500  6554466.50000000 5180397.50000000 
0.02800    131633992.00000000 82252936.00000000 208108736.00000000 79280.07031250  6451438.50000000 5099240.00000000 
0.02900    129708920.00000000 81059392.00000000 205076000.00000000 77886.51562500  6346791.50000000 5016824.50000000 
0.03000    127753768.00000000 79847504.00000000 201998336.00000000 76476.55468750  6240767.00000000 4933241.50000000 
0.03100    125773880.00000000 78619240.00000000 198879280.00000000 75053.92968750  6133568.50000000 4848763.50000000 
0.03200    123770456.00000000 77377088.00000000 195724992.00000000 73618.85937500  6025348.00000000 4763442.00000000 
0.03300    121748560.00000000 76122120.00000000 192537984.00000000 72175.75781250  5916226.00000000 4677530.00000000 
0.03400    119710520.00000000 74858464.00000000 189327520.00000000 70726.39843750  5806489.50000000 4590992.50000000 
0.03500    117659592.00000000 73586416.00000000 186098304.00000000 69273.73437500  5696306.00000000 4504151.50000000 
0.03600    115598784.00000000 72308184.00000000 182850368.00000000 67819.60156250  5585758.50000000 4417007.50000000 
0.03700    113531192.00000000 71025328.00000000 179592608.00000000 66366.50000000  5475117.00000000 4329783.00000000 
0.03800    111460456.00000000 69739208.00000000 176330304.00000000 64916.33203125  5364455.50000000 4242546.50000000 
0.03900    109388608.00000000 68452912.00000000 173065216.00000000 63471.63281250  5254032.00000000 4155469.75000000 
0.04000    107319176.00000000 67167624.00000000 169803392.00000000 62034.86718750  5143934.00000000 4068665.00000000 
0.04100    105254664.00000000 65885256.00000000 166549152.00000000 60607.42968750  5034402.00000000 3982242.25000000 
0.04200    103197912.00000000 64607792.00000000 163306944.00000000 59191.17187500  4925512.50000000 3896338.00000000 
0.04300    101151688.00000000 63336180.00000000 160081408.00000000 57788.54687500  4817365.50000000 3811049.75000000 
0.04400    99118360.00000000 62072132.00000000 156873952.00000000 56400.73046875  4710143.50000000 3726474.00000000 
0.04500    97100440.00000000 60817836.00000000 153692864.00000000 55030.13671875  4603989.00000000 3642739.75000000 
0.04600    95100192.00000000 59574468.00000000 150537840.00000000 53677.31250000  4499091.00000000 3559918.00000000 
0.04700    93119600.00000000 58342480.00000000 147413408.00000000 52344.28906250  4395392.00000000 3478136.50000000 
0.04800    91161328.00000000 57124732.00000000 144324496.00000000 51032.16015625  4293114.50000000 3397417.00000000 
0.04900    89226704.00000000 55921664.00000000 141273056.00000000 49742.32031250  4192384.75000000 3317905.75000000 
0.05000    87318024.00000000 54734320.00000000 138262656.00000000 48476.02343750  4093215.50000000 3239641.50000000 
0.05100    85437408.00000000 53564028.00000000 135295968.00000000 47233.73828125  3995717.75000000 3162682.25000000 
0.05200    83585936.00000000 52411772.00000000 132375088.00000000 46016.64062500  3899994.00000000 3087127.75000000 
0.05300    81765848.00000000 51278420.00000000 129502368.00000000 44825.65625000  3806126.25000000 3013013.25000000 
0.05400    79977544.00000000 50165084.00000000 126680520.00000000 43661.44140625  3714135.50000000 2940368.75000000 
0.05500    78223672.00000000 49072668.00000000 123911592.00000000 42524.54687500  3624114.00000000 2869280.50000000 
0.05600    76503480.00000000 48001388.00000000 121196944.00000000 41415.46093750  3536076.25000000 2799754.75000000 
0.05700    74819824.00000000 46953096.00000000 118540112.00000000 40334.00781250  3450102.00000000 2731868.25000000 
0.05800    73173336.00000000 45926828.00000000 115940048.00000000 39281.64062500  3366178.50000000 2665589.50000000 
0.05900    71564368.00000000 44924600.00000000 113399216.00000000 38257.64453125  3284378.75000000 2600965.50000000 
0.06000    69993256.00000000 43945388.00000000 110918336.00000000 37261.91796875  3204687.25000000 2538042.25000000 
0.06100    68461200.00000000 42990224.00000000 108499536.00000000 36294.97265625  3127195.50000000 2476785.00000000 
0.06200    66967780.00000000 42059512.00000000 106142552.00000000 35357.20703125  3051825.50000000 2417257.00000000 
0.06300    65514928.00000000 41153668.00000000 103847352.00000000 34447.26562500  2978608.00000000 2359405.75000000 
0.06400    64101676.00000000 40272524.00000000 101615480.00000000 33565.64453125  2907512.00000000 2303226.25000000 
0.06500    62728308.00000000 39416540.00000000 99446808.00000000 32711.94335938  2838554.75000000 2248761.00000000 
0.06600    61395180.00000000 38584664.00000000 97340384.00000000 31885.77148438  2771783.00000000 2195958.25000000 
0.06700    60101400.00000000 37778644.00000000 95297872.00000000 31086.49804688  2707025.75000000 2144832.00000000 
0.06800    58847716.00000000 36996684.00000000 93317176.00000000 30313.70507812  2644416.00000000 2095323.87500000 
0.06900    57633072.00000000 36239088.00000000 91398920.00000000 29566.83398438  2583787.75000000 2047447.25000000 
0.07000    56457612.00000000 35506160.00000000 89542992.00000000 28845.44335938  2525223.25000000 2001147.00000000 
0.07100    55320680.00000000 34797152.00000000 87747392.00000000 28148.66992188  2468574.50000000 1956409.50000000 
0.07200    54222276.00000000 34112128.00000000 86012384.00000000 27475.99218750  2413905.75000000 1913185.37500000 
0.07300    53160204.00000000 33450814.00000000 84336152.00000000 26826.50000000  2361065.25000000 1871461.12500000 
0.07400    52135904.00000000 32812482.00000000 82718552.00000000 26199.78125000  2310099.75000000 1831180.50000000 
0.07500    51147384.00000000 32196290.00000000 81157320.00000000 25594.39257812  2260897.25000000 1792303.87500000 
0.07600    50194100.00000000 31602354.00000000 79651944.00000000 25010.28710938  2213425.00000000 1754810.50000000 
0.07700    49274808.00000000 31030106.00000000 78201200.00000000 24446.25976562  2167634.25000000 1718628.75000000 
0.07800    48389532.00000000 30478718.00000000 76804152.00000000 23901.56054688  2123430.75000000 1683718.00000000 
0.07900    47536172.00000000 29947736.00000000 75457152.00000000 23375.21093750  2080769.75000000 1650032.12500000 
0.08000    46714780.00000000 29436722.00000000 74162032.00000000 22866.72656250  2039642.50000000 1617543.75000000 
0.08100    45923344.00000000 28944896.00000000 72913720.00000000 22374.92187500  1999914.50000000 1586184.25000000 
0.08200    45161900.00000000 28471362.00000000 71712600.00000000 21899.24023438  1961561.12500000 1555903.75000000 
0.08300    44428576.00000000 28015892.00000000 70557128.00000000 21438.79492188  1924504.37500000 1526661.12500000 
0.08400    43722656.00000000 27577622.00000000 69444176.00000000 20992.65234375  1888704.75000000 1498395.87500000 
0.08500    43042444.00000000 27155826.00000000 68373184.00000000 20560.24804688  1854076.50000000 1471079.00000000 
0.08600    42387560.00000000 26749862.00000000 67341376.00000000 20140.68554688  1820576.50000000 1444645.37500000 
0.08700    41756584.00000000 26358908.00000000 66348568.00000000 19733.16015625  1788131.25000000 1419056.12500000 
0.08800    41148100.00000000 25982680.00000000 65390688.00000000 19337.17382812  1756673.00000000 1394244.50000000 
0.08900    40561096.00000000 25619772.00000000 64468364.00000000 18951.79296875  1726183.50000000 1370190.62500000 
0.09000    39994984.00000000 25269978.00000000 63577908.00000000 18576.40625000  1696545.00000000 1346829.37500000 
0.09100    39448552.00000000 24932510.00000000 62718908.00000000 18210.58593750  1667753.50000000 1324140.12500000 
0.09200    38919832.00000000 24606542.00000000 61888864.00000000 17853.67773438  1639733.87500000 1302053.37500000 
0.09300    38408760.00000000 24291620.00000000 61085816.00000000 17504.86328125  1612432.37500000 1280542.00000000 
0.09400    37913412.00000000 23986970.00000000 60308560.00000000 17163.62695312  1585792.75000000 1259561.50000000 
0.09500    37433344.00000000 23691914.00000000 59555740.00000000 16829.63671875  1559784.12500000 1239067.12500000 
0.09600    36967324.00000000 23405868.00000000 58825264.00000000 16502.40234375  1534360.50000000 1219034.25000000 
0.09700    36514936.00000000 23128210.00000000 58115904.00000000 16181.48437500  1509464.50000000 1199422.50000000 
0.09800    36073928.00000000 22858064.00000000 57426312.00000000 15866.39453125  1485056.87500000 1180204.62500000 
0.09900    35644788.00000000 22595254.00000000 56754044.00000000 15556.86328125  1461099.25000000 1161347.25000000 
0.10000    35225816.00000000 22338946.00000000 56098648.00000000 15252.46972656  1437574.00000000 1142805.62500000 
0.10100    34816664.00000000 22088922.00000000 55458328.00000000 14952.95019531  1414428.00000000 1124575.50000000 
0.10200    34415892.00000000 21844142.00000000 54831732.00000000 14657.99902344  1391635.75000000 1106616.87500000 
0.10300    34023156.00000000 21604358.00000000 54218156.00000000 14367.44628906  1369151.62500000 1088913.50000000 
0.10400    33637628.00000000 21369274.00000000 53615740.00000000 14080.95703125  1346970.87500000 1071441.50000000 
0.10500    33258542.00000000 21138288.00000000 53023824.00000000 13798.49218750  1325069.00000000 1054180.50000000 
0.10600    32885266.00000000 20911040.00000000 52440828.00000000 13519.74023438  1303398.87500000 1037106.37500000 
0.10700    32517536.00000000 20686992.00000000 51866512.00000000 13244.70117188  1281970.87500000 1020211.68750000 
0.10800    32154322.00000000 20466130.00000000 51299476.00000000 12973.16894531  1260754.75000000 1003482.25000000 
0.10900    31795346.00000000 20247352.00000000 50738996.00000000 12705.10546875  1239742.37500000 986905.06250000 
0.11000    31439990.00000000 20031014.00000000 50184372.00000000 12440.48339844  1218900.75000000 970456.50000000 
0.11100    31087846.00000000 19816646.00000000 49634724.00000000 12179.23046875  1198237.87500000 954154.75000000 
0.11200    30738454.00000000 19604026.00000000 49089316.00000000 11921.21386719  1177734.25000000 937969.50000000 
0.11300    30391618.00000000 19392706.00000000 48547164.00000000 11666.57812500  1157395.50000000 921904.12500000 
0.11400    30046798.00000000 19182622.00000000 48008700.00000000 11415.26757812  1137201.50000000 905940.75000000 
0.11500    29703696.00000000 18973452.00000000 47473044.00000000 11167.29003906  1117156.37500000 890091.18750000 
0.11600    29362352.00000000 18765190.00000000 46939328.00000000 10922.66015625  1097249.37500000 874359.43750000 
0.11700    29022194.00000000 18557472.00000000 46407896.00000000 10681.39550781  1077489.87500000 858722.06250000 
0.11800    28683136.00000000 18350438.00000000 45877148.00000000 10443.60839844  1057861.12500000 843188.43750000 
0.11900    28345078.00000000 18143770.00000000 45348228.00000000 10209.16894531  1038394.31250000 827766.56250000 
0.12000    28007608.00000000 17937300.00000000 44820212.00000000 9978.32031250   1019057.00000000 812443.31250000 
0.12100    27671066.00000000 17731016.00000000 44293128.00000000 9751.12988281   999874.25000000 797241.31250000 
0.12200    27335170.00000000 17525004.00000000 43766380.00000000 9527.36328125   980852.50000000 782146.25000000 
0.12300    26999778.00000000 17319230.00000000 43240628.00000000 9307.45019531   961983.87500000 767169.68750000 
0.12400    26664756.00000000 17113262.00000000 42715140.00000000 9091.17480469   943279.37500000 752315.18750000 
0.12500    26330364.00000000 16907442.00000000 42190664.00000000 8878.70019531   924737.50000000 737587.18750000 
0.12600    25996654.00000000 16701816.00000000 41665744.00000000 8670.04882812   906375.25000000 722992.06250000 
0.12700    25663336.00000000 16496021.00000000 41142012.00000000 8465.24218750   888194.00000000 708528.00000000 
0.12800    25330852.00000000 16290573.00000000 40619000.00000000 8264.28808594   870200.56250000 694207.31250000 
0.12900    24999056.00000000 16085140.00000000 40096544.00000000 8067.27734375   852404.68750000 680037.62500000 
0.13000    24667898.00000000 15879892.00000000 39575112.00000000 7874.23632812   834804.62500000 666017.18750000 
0.13100    24337474.00000000 15674960.00000000 39054436.00000000 7685.11572266   817419.93750000 652154.56250000 
0.13200    24008130.00000000 15470209.00000000 38534916.00000000 7499.95996094   800239.50000000 638454.81250000 
0.13300    23679730.00000000 15265814.00000000 38016564.00000000 7318.76367188   783285.37500000 624928.68750000 
0.13400    23352540.00000000 15061958.00000000 37499896.00000000 7141.49853516   766559.18750000 611573.37500000 
0.13500    23026650.00000000 14858447.00000000 36984492.00000000 6968.20703125   750063.43750000 598395.12500000 
0.13600    22702096.00000000 14655626.00000000 36471340.00000000 6798.80712891   733804.50000000 585403.81250000 
0.13700    22379132.00000000 14453349.00000000 35959772.00000000 6633.25634766   717783.43750000 572597.31250000 
0.13800    22057676.00000000 14251922.00000000 35450496.00000000 6471.64062500   702016.93750000 559989.75000000 
0.13900    21738168.00000000 14051257.00000000 34943992.00000000 6313.73779297   686495.56250000 547568.25000000 
0.14000    21420478.00000000 13851496.00000000 34440052.00000000 6159.66113281   671233.43750000 535352.18750000 
0.14100    21104900.00000000 13652749.00000000 33938956.00000000 6009.17431641   656234.68750000 523330.65625000 
0.14200    20791500.00000000 13455031.00000000 33441066.00000000 5862.31738281   641489.87500000 511515.12500000 
0.14300    20480302.00000000 13258602.00000000 32946432.00000000 5719.10302734   627002.62500000 499909.46875000 
0.14400    20171424.00000000 13063296.00000000 32455054.00000000 5579.21679688   612783.12500000 488508.78125000 
0.14500    19865186.00000000 12869419.00000000 31967590.00000000 5442.81054688   598825.37500000 477316.03125000 
0.14600    19561552.00000000 12676926.00000000 31483918.00000000 5309.65234375   585132.50000000 466332.53125000 
0.14700    19260802.00000000 12485884.00000000 31004388.00000000 5179.77587891   571706.18750000 455559.71875000 
0.14800    18962586.00000000 12296321.00000000 30528880.00000000 5052.97949219   558542.75000000 444990.65625000 
0.14900    18667332.00000000 12108500.00000000 30057690.00000000 4929.20996094   545638.68750000 434634.93750000 
0.15000    18375200.00000000 11922363.00000000 29591186.00000000 4808.34570312   532995.62500000 424486.56250000 
0.15100    18086034.00000000 11737911.00000000 29129216.00000000 4690.32861328   520608.21875000 414537.53125000 
0.15200    17800412.00000000 11555253.00000000 28672302.00000000 4575.10742188   508478.93750000 404800.15625000 
0.15300    17517602.00000000 11374557.00000000 28220036.00000000 4462.55371094   496603.59375000 395262.46875000 
0.15400    17238166.00000000 11195577.00000000 27772690.00000000 4352.45800781   484971.71875000 385924.81250000 
0.15500    16962034.00000000 11018651.00000000 27330842.00000000 4244.91308594   473586.87500000 376779.68750000 
0.15600    16689542.00000000 10843720.00000000 26893674.00000000 4139.66455078   462442.15625000 367836.87500000 
0.15700    16420378.00000000 10670811.00000000 26462086.00000000 4036.80249023   451540.18750000 359080.56250000 
0.15800    16154424.00000000 10499800.00000000 26035718.00000000 3936.06494141   440863.93750000 350510.87500000 
0.15900    15892015.00000000 10331088.00000000 25614772.00000000 3837.50561523   430421.62500000 342126.81250000 
0.16000    15633142.00000000 10164403.00000000 25199082.00000000 3740.99243164   420195.06250000 333922.78125000 
0.16100    15377644.00000000 9999722.00000000 24789140.00000000 3646.50634766   410197.12500000 325898.28125000 
0.16200    15125848.00000000 9837205.00000000 24384428.00000000 3553.93359375   400404.25000000 318046.18750000 
0.16300    14877389.00000000 9676867.00000000 23985362.00000000 3463.18676758   390822.59375000 310357.37500000 
0.16400    14632380.00000000 9518656.00000000 23591458.00000000 3374.31176758   381443.59375000 302842.18750000 
0.16500    14391006.00000000 9362625.00000000 23203302.00000000 3287.15283203   372264.50000000 295485.56250000 
0.16600    14152957.00000000 9208743.00000000 22820512.00000000 3201.72607422   363275.31250000 288282.68750000 
0.16700    13918446.00000000 9056815.00000000 22443120.00000000 3117.96777344   354472.50000000 281236.03125000 
0.16800    13687236.00000000 8907197.00000000 22071126.00000000 3035.83837891   345858.40625000 274337.25000000 
0.16900    13459505.00000000 8759812.00000000 21704856.00000000 2955.37963867   337420.87500000 267585.46875000 
0.17000    13235108.00000000 8614392.00000000 21343520.00000000 2876.48803711   329157.81250000 260976.54687500 
