# SAXS profile: number of points = 501, q_min = 0, q_max = 0.5, delta_q = 0.001
#    q    intensity 
0.00000    162235344.00000000 101202184.00000000 256271536.00000000 111651.75781250 8512200.00000000 6722901.50000000 
0.00100    162196816.00000000 101176480.00000000 256206640.00000000 111616.54687500 8509770.00000000 6720956.50000000 
0.00200    162076192.00000000 101100768.00000000 256015296.00000000 111511.17968750 8502455.00000000 6715256.00000000 
0.00300    161872240.00000000 100974296.00000000 255692048.00000000 111335.94531250 8490284.00000000 6705683.00000000 
0.00400    161586560.00000000 100797960.00000000 255243168.00000000 111091.93750000 8473282.00000000 6692330.00000000 
0.00500    161218128.00000000 100571560.00000000 254666464.00000000 110777.39062500 8451462.00000000 6675196.00000000 
0.00600    160770848.00000000 100294584.00000000 253960560.00000000 110395.57031250 8424995.00000000 6654301.50000000 
0.00700    160242896.00000000 99969280.00000000 253133488.00000000 109945.07812500 8393693.00000000 6629727.50000000 
0.00800    159632992.00000000 99595408.00000000 252182912.00000000 109428.52343750 8357818.00000000 6601533.50000000 
0.00900    158949264.00000000 99174096.00000000 251108592.00000000 108846.14843750 8317340.00000000 6569692.50000000 
0.01000    158188976.00000000 98706192.00000000 249913840.00000000 108198.91406250 8272343.50000000 6534315.00000000 
0.01100    157354928.00000000 98191496.00000000 248601792.00000000 107488.66406250 8222939.00000000 6495443.50000000 
0.01200    156448096.00000000 97630112.00000000 247173680.00000000 106716.48437500 8169205.00000000 6453240.00000000 
0.01300    155464896.00000000 97024512.00000000 245632736.00000000 105884.50000000 8111208.50000000 6407591.50000000 
0.01400    154412240.00000000 96375872.00000000 243979728.00000000 104993.60937500 8049126.00000000 6358782.00000000 
0.01500    153289536.00000000 95684352.00000000 242220000.00000000 104045.75781250 7983049.00000000 6306796.00000000 
0.01600    152103152.00000000 94951872.00000000 240353600.00000000 103042.35937500 7912996.50000000 6251732.50000000 
0.01700    150849856.00000000 94179256.00000000 238385968.00000000 101986.32812500 7839259.50000000 6193687.50000000 
0.01800    149535184.00000000 93367632.00000000 236319248.00000000 100878.91406250 7761851.50000000 6132848.00000000 
0.01900    148159472.00000000 92518272.00000000 234157200.00000000 99722.27343750  7681006.00000000 6069163.50000000 
0.02000    146724704.00000000 91632480.00000000 231903568.00000000 98520.07812500  7596767.00000000 6002948.00000000 
0.02100    145232736.00000000 90712632.00000000 229559792.00000000 97272.00781250  7509324.50000000 5934162.50000000 
0.02200    143688432.00000000 89760016.00000000 227133312.00000000 95982.44531250  7418849.00000000 5862958.00000000 
0.02300    142092928.00000000 88774656.00000000 224626976.00000000 94653.36718750  7325451.50000000 5789507.50000000 
0.02400    140448016.00000000 87759744.00000000 222041600.00000000 93286.48437500  7229367.00000000 5713912.00000000 
0.02500    138757296.00000000 86715848.00000000 219383648.00000000 91885.13281250  7130684.50000000 5636255.00000000 
0.02600    137024096.00000000 85645184.00000000 216660048.00000000 90451.65625000  7029642.00000000 5556738.50000000 
0.02700    135249760.00000000 84549664.00000000 213870064.00000000 88988.35156250  6926345.50000000 5475468.00000000 
0.02800    133436720.00000000 83429656.00000000 211021744.00000000 87497.87500000  6820969.00000000 5392580.50000000 
0.02900    131588832.00000000 82288192.00000000 208115456.00000000 85982.82031250  6713783.00000000 5308178.00000000 
0.03000    129708816.00000000 81125768.00000000 205159648.00000000 84445.70312500  6604842.50000000 5222423.00000000 
0.03100    127799216.00000000 79945520.00000000 202158048.00000000 82889.71875000  6494397.00000000 5135496.00000000 
0.03200    125862144.00000000 78748704.00000000 199113056.00000000 81316.71875000  6382522.00000000 5047443.50000000 
0.03300    123901720.00000000 77537200.00000000 196028640.00000000 79729.56250000  6269536.00000000 4958479.50000000 
0.03400    121920072.00000000 76311120.00000000 192912320.00000000 78131.03906250  6155524.50000000 4868718.00000000 
0.03500    119920776.00000000 75073880.00000000 189765776.00000000 76523.50000000  6040664.00000000 4778278.00000000 
0.03600    117904720.00000000 73827120.00000000 186595440.00000000 74909.60937500  5925116.50000000 4687296.00000000 
0.03700    115875968.00000000 72572560.00000000 183404064.00000000 73291.35937500  5809106.50000000 4595941.00000000 
0.03800    113837808.00000000 71311560.00000000 180198880.00000000 71672.23437500  5692736.00000000 4504291.00000000 
0.03900    111792360.00000000 70045800.00000000 176979664.00000000 70052.90625000  5576220.50000000 4412534.50000000 
0.04000    109742016.00000000 68776336.00000000 173752736.00000000 68438.02343750  5459666.50000000 4320695.50000000 
0.04100    107689192.00000000 67505144.00000000 170521520.00000000 66827.62500000  5343297.00000000 4229015.50000000 
0.04200    105638144.00000000 66234300.00000000 167292352.00000000 65224.70312500  5227173.50000000 4137540.75000000 
0.04300    103589664.00000000 64965532.00000000 164068448.00000000 63631.78906250  5111536.50000000 4046428.00000000 
0.04400    101546928.00000000 63699204.00000000 160852080.00000000 62050.47265625  4996496.50000000 3955772.50000000 
0.04500    99512200.00000000 62437920.00000000 157647840.00000000 60482.96875000  4882214.50000000 3865672.25000000 
0.04600    97487656.00000000 61182932.00000000 154460176.00000000 58930.98046875  4768787.50000000 3776253.75000000 
0.04700    95476088.00000000 59935208.00000000 151291712.00000000 57396.55468750  4656354.00000000 3687625.25000000 
0.04800    93479400.00000000 58696672.00000000 148145152.00000000 55881.08593750  4545062.50000000 3599860.75000000 
0.04900    91500280.00000000 57467900.00000000 145026224.00000000 54386.54687500  4435024.50000000 3513082.00000000 
0.05000    89539208.00000000 56251056.00000000 141936816.00000000 52914.20703125  4326280.50000000 3427349.75000000 
0.05100    87599080.00000000 55046808.00000000 138878816.00000000 51465.27734375  4219040.50000000 3342769.25000000 
0.05200    85681984.00000000 53856360.00000000 135856432.00000000 50041.60937500  4113367.00000000 3259403.00000000 
0.05300    83789088.00000000 52680384.00000000 132874616.00000000 48644.11328125  4009329.25000000 3177356.00000000 
0.05400    81922392.00000000 51520752.00000000 129932568.00000000 47273.69531250  3907055.00000000 3096665.00000000 
0.05500    80084216.00000000 50377704.00000000 127032632.00000000 45932.00000000  3806616.75000000 3017387.75000000 
0.05600    78274488.00000000 49253216.00000000 124180000.00000000 44619.17578125  3708083.75000000 2939621.00000000 
0.05700    76495216.00000000 48146816.00000000 121373576.00000000 43336.80078125  3611493.00000000 2863392.00000000 
0.05800    74749160.00000000 47060196.00000000 118618160.00000000 42085.37109375  3516978.00000000 2788769.25000000 
0.05900    73034464.00000000 45993524.00000000 115913688.00000000 40865.14843750  3424519.25000000 2715770.75000000 
0.06000    71354760.00000000 44947752.00000000 113262528.00000000 39676.83203125  3334221.75000000 2644468.25000000 
0.06100    69710064.00000000 43923668.00000000 110667440.00000000 38520.90234375  3246070.00000000 2574841.50000000 
0.06200    68102120.00000000 42921552.00000000 108128016.00000000 37397.74609375  3160147.75000000 2506987.25000000 
0.06300    66529412.00000000 41942232.00000000 105647024.00000000 36307.50000000  3076481.00000000 2440868.50000000 
0.06400    64995124.00000000 40986192.00000000 103223368.00000000 35250.19140625  2995077.00000000 2376528.50000000 
0.06500    63498508.00000000 40053108.00000000 100860176.00000000 34226.10546875  2915947.25000000 2313999.00000000 
0.06600    62040208.00000000 39143628.00000000 98556464.00000000 33234.95312500  2839124.25000000 2253286.50000000 
0.06700    60620612.00000000 38257996.00000000 96314744.00000000 32276.74414062  2764597.25000000 2194371.25000000 
0.06800    59240340.00000000 37396448.00000000 94132824.00000000 31351.24023438  2692381.50000000 2137275.25000000 
0.06900    57898984.00000000 36559528.00000000 92013920.00000000 30458.42578125  2622437.75000000 2081950.87500000 
0.07000    56597180.00000000 35746360.00000000 89956248.00000000 29597.58203125  2554791.50000000 2028442.87500000 
0.07100    55334776.00000000 34957996.00000000 87960592.00000000 28768.16015625  2489404.50000000 1976714.37500000 
0.07200    54111432.00000000 34193476.00000000 86026704.00000000 27970.27929688  2426267.50000000 1926758.12500000 
0.07300    52926660.00000000 33453456.00000000 84154016.00000000 27202.74414062  2365337.00000000 1878556.00000000 
0.07400    51781364.00000000 32737312.00000000 82343080.00000000 26465.48632812  2306591.50000000 1832042.75000000 
0.07500    50674276.00000000 32045392.00000000 80591864.00000000 25757.64843750  2250028.25000000 1787258.62500000 
0.07600    49605480.00000000 31376634.00000000 78900456.00000000 25078.14453125  2195570.25000000 1744127.50000000 
0.07700    48574124.00000000 30731456.00000000 77269664.00000000 24426.75000000  2143158.50000000 1702635.37500000 
0.07800    47580024.00000000 30109312.00000000 75696544.00000000 23802.47265625  2092789.00000000 1662742.12500000 
0.07900    46622240.00000000 29510168.00000000 74181144.00000000 23204.38085938  2044382.75000000 1624404.87500000 
0.08000    45700420.00000000 28932908.00000000 72722160.00000000 22631.86523438  1997919.62500000 1587578.12500000 
0.08100    44813796.00000000 28377770.00000000 71318800.00000000 22083.79687500  1953330.50000000 1552246.62500000 
0.08200    43960992.00000000 27843972.00000000 69969848.00000000 21559.42578125  1910570.50000000 1518344.37500000 
0.08300    43142076.00000000 27331062.00000000 68673504.00000000 21057.58398438  1869518.37500000 1485817.00000000 
0.08400    42355684.00000000 26838644.00000000 67428392.00000000 20577.62304688  1830183.00000000 1454638.25000000 
0.08500    41600968.00000000 26366016.00000000 66233940.00000000 20118.37500000  1792494.25000000 1424748.62500000 
0.08600    40877312.00000000 25912778.00000000 65088016.00000000 19678.88476562  1756362.12500000 1396105.75000000 
0.08700    40183392.00000000 25478142.00000000 63990240.00000000 19258.22851562  1721723.37500000 1368642.25000000 
0.08800    39518252.00000000 25061544.00000000 62937084.00000000 18855.62500000  1688555.62500000 1342316.50000000 
0.08900    38881312.00000000 24662676.00000000 61928328.00000000 18469.84179688  1656739.75000000 1317080.12500000 
0.09000    38270588.00000000 24280436.00000000 60962316.00000000 18100.09179688  1626231.25000000 1292891.50000000 
0.09100    37685932.00000000 23914430.00000000 60037208.00000000 17745.08398438  1596971.75000000 1269672.50000000 
0.09200    37125808.00000000 23563790.00000000 59150560.00000000 17404.41015625  1568880.00000000 1247389.12500000 
0.09300    36589300.00000000 23228208.00000000 58302036.00000000 17076.80664062  1541909.50000000 1225989.00000000 
0.09400    36074908.00000000 22906692.00000000 57488284.00000000 16761.52539062  1515975.50000000 1205420.12500000 
0.09500    35582268.00000000 22598740.00000000 56709168.00000000 16457.67773438  1491039.37500000 1185624.87500000 
0.09600    35109460.00000000 22303558.00000000 55962004.00000000 16164.45996094  1467002.50000000 1166554.87500000 
0.09700    34656336.00000000 22020678.00000000 55245900.00000000 15880.86718750  1443838.00000000 1148171.25000000 
0.09800    34221252.00000000 21749226.00000000 54558140.00000000 15606.20214844  1421462.00000000 1130431.25000000 
0.09900    33803252.00000000 21488676.00000000 53897752.00000000 15339.90234375  1399838.50000000 1113273.25000000 
0.10000    33401134.00000000 21238198.00000000 53262936.00000000 15080.95703125  1378873.00000000 1096638.25000000 
0.10100    33014010.00000000 20997142.00000000 52651752.00000000 14828.84570312  1358541.75000000 1080505.37500000 
0.10200    32640864.00000000 20765074.00000000 52063124.00000000 14582.75683594  1338789.50000000 1064844.75000000 
0.10300    32280436.00000000 20541202.00000000 51495124.00000000 14342.15332031  1319554.62500000 1049588.37500000 
0.10400    31932396.00000000 20325018.00000000 50946168.00000000 14106.49316406  1300779.62500000 1034704.12500000 
0.10500    31595132.00000000 20115758.00000000 50414824.00000000 13875.31152344  1282445.00000000 1020162.31250000 
0.10600    31267776.00000000 19913050.00000000 49899264.00000000 13647.82128906  1264466.87500000 1005920.43750000 
0.10700    30949996.00000000 19716356.00000000 49399096.00000000 13423.72558594  1246838.62500000 991939.75000000 
0.10800    30640166.00000000 19524822.00000000 48911604.00000000 13202.58886719  1229501.62500000 978209.00000000 
0.10900    30337992.00000000 19338208.00000000 48436460.00000000 12983.93066406  1212431.87500000 964675.25000000 
0.11000    30042484.00000000 19155912.00000000 47972144.00000000 12767.37597656  1195574.50000000 951317.18750000 
0.11100    29752722.00000000 18977576.00000000 47516780.00000000 12552.68359375  1178908.75000000 938122.56250000 
0.11200    29468414.00000000 18802382.00000000 47070664.00000000 12339.64062500  1162408.12500000 925039.75000000 
0.11300    29188418.00000000 18630120.00000000 46631216.00000000 12127.81054688  1146030.50000000 912071.18750000 
0.11400    28912412.00000000 18460586.00000000 46198364.00000000 11917.02441406  1129760.50000000 899183.43750000 
0.11500    28639436.00000000 18292892.00000000 45770056.00000000 11707.13183594  1113576.25000000 886366.43750000 
0.11600    28369380.00000000 18126930.00000000 45346564.00000000 11497.95703125  1097449.62500000 873596.31250000 
0.11700    28101224.00000000 17962384.00000000 44926460.00000000 11289.37109375  1081372.87500000 860864.06250000 
0.11800    27834564.00000000 17798896.00000000 44508460.00000000 11081.17285156  1065322.50000000 848143.31250000 
0.11900    27569046.00000000 17636094.00000000 44092372.00000000 10873.48339844  1049280.37500000 835443.62500000 
0.12000    27304244.00000000 17473568.00000000 43677800.00000000 10666.14648438  1033235.93750000 822731.00000000 
0.12100    27039864.00000000 17311574.00000000 43263408.00000000 10459.24804688  1017188.56250000 810024.06250000 
0.12200    26775318.00000000 17149494.00000000 42848852.00000000 10252.59472656  1001127.25000000 797301.06250000 
0.12300    26510420.00000000 16986918.00000000 42433848.00000000 10046.28613281  985047.62500000 784561.50000000 
0.12400    26244658.00000000 16824032.00000000 42017472.00000000 9840.48925781   968933.31250000 771794.06250000 
0.12500    25978166.00000000 16660414.00000000 41599396.00000000 9635.21289062   952808.06250000 759007.37500000 
0.12600    25710424.00000000 16496213.00000000 41179976.00000000 9430.56250000   936645.25000000 746200.31250000 
0.12700    25441414.00000000 16331027.00000000 40758024.00000000 9226.59863281   920455.81250000 733363.75000000 
0.12800    25170980.00000000 16164725.00000000 40333624.00000000 9023.33203125   904251.18750000 720513.31250000 
0.12900    24898850.00000000 15997403.00000000 39907056.00000000 8821.07910156   888023.12500000 707640.18750000 
0.13000    24625098.00000000 15828941.00000000 39477188.00000000 8619.87011719   871781.43750000 694763.37500000 
0.13100    24349506.00000000 15659167.00000000 39044360.00000000 8419.85839844   855527.37500000 681866.62500000 
0.13200    24072272.00000000 15488253.00000000 38608852.00000000 8221.20800781   839280.37500000 668972.25000000 
0.13300    23793118.00000000 15315947.00000000 38170036.00000000 8024.04052734   823045.06250000 656084.31250000 
0.13400    23512312.00000000 15142415.00000000 37728280.00000000 7828.53515625   806823.62500000 643199.50000000 
0.13500    23229746.00000000 14967695.00000000 37283508.00000000 7634.86230469   790629.06250000 630341.81250000 
0.13600    22945186.00000000 14791690.00000000 36836064.00000000 7443.14794922   774477.81250000 617512.12500000 
0.13700    22659328.00000000 14614429.00000000 36385636.00000000 7253.58056641   758375.31250000 604711.12500000 
0.13800    22371848.00000000 14436078.00000000 35932484.00000000 7066.32470703   742333.12500000 591958.43750000 
0.13900    22082942.00000000 14256648.00000000 35476856.00000000 6881.54638672   726363.25000000 579259.56250000 
0.14000    21792684.00000000 14076213.00000000 35019264.00000000 6699.41357422   710482.31250000 566627.43750000 
0.14100    21501538.00000000 13894743.00000000 34559488.00000000 6519.97753906   694698.50000000 554063.50000000 
0.14200    21209066.00000000 13712521.00000000 34097492.00000000 6343.48632812   679022.25000000 541591.68750000 
0.14300    20916020.00000000 13529627.00000000 33634408.00000000 6169.91943359   663478.37500000 529209.12500000 
0.14400    20622390.00000000 13346002.00000000 33169542.00000000 5999.61083984   648059.18750000 516927.18750000 
0.14500    20328162.00000000 13161962.00000000 32704178.00000000 5832.56738281   632791.25000000 504765.09375000 
0.14600    20033780.00000000 12977425.00000000 32237910.00000000 5668.95312500   617679.56250000 492719.12500000 
0.14700    19739124.00000000 12792565.00000000 31771152.00000000 5508.82568359   602743.50000000 480810.12500000 
0.14800    19444708.00000000 12607601.00000000 31304420.00000000 5352.25537109   587983.00000000 469038.15625000 
0.14900    19150590.00000000 12422558.00000000 30837880.00000000 5199.33740234   573416.56250000 457413.03125000 
0.15000    18857052.00000000 12237606.00000000 30371692.00000000 5050.19628906   559051.87500000 445945.53125000 
0.15100    18564234.00000000 12052908.00000000 29906496.00000000 4904.81738281   544897.93750000 434646.15625000 
0.15200    18272466.00000000 11868639.00000000 29442642.00000000 4763.37353516   530969.87500000 423517.06250000 
0.15300    17981682.00000000 11684820.00000000 28980252.00000000 4625.75781250   517267.59375000 412567.43750000 
0.15400    17692138.00000000 11501538.00000000 28519398.00000000 4492.01660156   503803.75000000 401803.87500000 
0.15500    17404408.00000000 11319096.00000000 28061088.00000000 4362.23925781   490586.18750000 391232.34375000 
0.15600    17118306.00000000 11137400.00000000 27604918.00000000 4236.37939453   477611.06250000 380853.78125000 
0.15700    16833982.00000000 10956788.00000000 27151760.00000000 4114.53125000   464904.53125000 370681.96875000 
0.15800    16551885.00000000 10777070.00000000 26701438.00000000 3996.52319336   452451.68750000 360711.96875000 
0.15900    16272054.00000000 10598802.00000000 26254412.00000000 3882.46215820   440267.96875000 350955.50000000 
0.16000    15994572.00000000 10421687.00000000 25811268.00000000 3772.24926758   428351.84375000 341406.46875000 
0.16100    15719915.00000000 10246151.00000000 25371942.00000000 3665.92138672   416712.59375000 332077.96875000 
0.16200    15447765.00000000 10072124.00000000 24936782.00000000 3563.33984375   405347.87500000 322965.25000000 
0.16300    15178658.00000000 9899622.00000000 24505870.00000000 3464.45507812   394259.34375000 314068.62500000 
0.16400    14912604.00000000 9728969.00000000 24079530.00000000 3369.28295898   383448.34375000 305396.62500000 
0.16500    14649609.00000000 9560175.00000000 23658200.00000000 3277.67700195   372915.46875000 296941.12500000 
0.16600    14389962.00000000 9393187.00000000 23241692.00000000 3189.62182617   362663.06250000 288709.21875000 
0.16700    14133671.00000000 9228214.00000000 22830434.00000000 3104.96923828   352683.46875000 280690.00000000 
0.16800    13880884.00000000 9065205.00000000 22424432.00000000 3023.63769531   342980.03125000 272893.65625000 
0.16900    13631654.00000000 8904453.00000000 22024080.00000000 2945.60961914   333550.18750000 265312.90625000 
0.17000    13386043.00000000 8745806.00000000 21629300.00000000 2870.70776367   324387.68750000 257945.95312500 
