# SAXS profile: number of points = 501, q_min = 0, q_max = 0.5, delta_q = 0.001
#    q    intensity 
0.00000    162233920.00000000 101202120.00000000 256270448.00000000 107421.30468750 8349327.00000000 6594334.50000000 
0.00100    162196528.00000000 101177200.00000000 256208720.00000000 107387.21093750 8347027.50000000 6592494.00000000 
0.00200    162081952.00000000 101104096.00000000 256020976.00000000 107287.32812500 8340016.50000000 6586976.00000000 
0.00300    161886720.00000000 100981136.00000000 255709408.00000000 107119.57031250 8328321.50000000 6577790.00000000 
0.00400    161607136.00000000 100810192.00000000 255271920.00000000 106884.75000000 8311969.00000000 6564996.50000000 
0.00500    161248800.00000000 100590096.00000000 254713072.00000000 106584.39843750 8291040.00000000 6548527.00000000 
0.00600    160811232.00000000 100321880.00000000 254026768.00000000 106219.05468750 8265515.50000000 6528512.50000000 
0.00700    160296656.00000000 100006720.00000000 253226384.00000000 105788.40625000 8235472.00000000 6504932.50000000 
0.00800    159704240.00000000 99644408.00000000 252303120.00000000 105294.63281250 8201054.00000000 6477884.50000000 
0.00900    159039040.00000000 99237792.00000000 251260272.00000000 104737.99218750 8162138.50000000 6447371.50000000 
0.01000    158302064.00000000 98783864.00000000 250101472.00000000 104119.96875000 8118960.00000000 6413460.00000000 
0.01100    157492480.00000000 98285112.00000000 248829264.00000000 103442.10937500 8071547.50000000 6376249.00000000 
0.01200    156607808.00000000 97741832.00000000 247443248.00000000 102705.80468750 8020008.50000000 6335762.00000000 
0.01300    155653264.00000000 97154920.00000000 245948880.00000000 101911.70312500 7964422.00000000 6292148.50000000 
0.01400    154632528.00000000 96526704.00000000 244346416.00000000 101063.64062500 7904932.50000000 6245440.00000000 
0.01500    153544720.00000000 95858032.00000000 242640736.00000000 100160.89843750 7841613.00000000 6195692.50000000 
0.01600    152391680.00000000 95148936.00000000 240831200.00000000 99207.61718750  7774581.00000000 6143077.50000000 
0.01700    151175856.00000000 94401896.00000000 238925584.00000000 98204.09375000  7704007.50000000 6087648.50000000 
0.01800    149901216.00000000 93616072.00000000 236923488.00000000 97153.08593750  7629988.00000000 6029548.50000000 
0.01900    148565728.00000000 92795448.00000000 234829520.00000000 96056.69531250  7552719.00000000 5968832.50000000 
0.02000    147175088.00000000 91939776.00000000 232647472.00000000 94917.46875000  7472286.00000000 5905646.00000000 
0.02100    145730048.00000000 91050432.00000000 230379968.00000000 93737.55468750  7388853.00000000 5840097.00000000 
0.02200    144234016.00000000 90129720.00000000 228032752.00000000 92518.14062500  7302554.00000000 5772330.00000000 
0.02300    142687888.00000000 89177312.00000000 225605680.00000000 91264.82812500  7213576.50000000 5702447.00000000 
0.02400    141095120.00000000 88197432.00000000 223106848.00000000 89976.28125000  7122082.50000000 5630524.50000000 
0.02500    139460800.00000000 87188656.00000000 220537840.00000000 88656.60937500  7028245.00000000 5556788.50000000 
0.02600    137782400.00000000 86155600.00000000 217904688.00000000 87308.19531250  6932139.00000000 5481235.50000000 
0.02700    136065648.00000000 85096888.00000000 215210160.00000000 85934.48437500  6834056.50000000 5404139.50000000 
0.02800    134313312.00000000 84016016.00000000 212457248.00000000 84536.98437500  6734076.50000000 5325529.00000000 
0.02900    132528112.00000000 82915384.00000000 209652896.00000000 83118.10937500  6632412.50000000 5245592.50000000 
0.03000    130710960.00000000 81794808.00000000 206797824.00000000 81681.33593750  6529221.50000000 5164441.50000000 
0.03100    128866032.00000000 80655408.00000000 203899632.00000000 80227.78125000  6424621.00000000 5082116.00000000 
0.03200    126996928.00000000 79501648.00000000 200961264.00000000 78761.20312500  6318831.00000000 4998973.50000000 
0.03300    125104464.00000000 78332832.00000000 197986480.00000000 77283.77343750  6212051.00000000 4914943.00000000 
0.03400    123191856.00000000 77152008.00000000 194979984.00000000 75797.46093750  6104388.50000000 4830237.00000000 
0.03500    121262632.00000000 75960096.00000000 191947920.00000000 74305.63281250  5996024.00000000 4744976.00000000 
0.03600    119318632.00000000 74759216.00000000 188891280.00000000 72809.82812500  5887141.00000000 4659224.00000000 
0.03700    117362416.00000000 73550160.00000000 185815264.00000000 71311.71875000  5777864.00000000 4573243.00000000 
0.03800    115397776.00000000 72334192.00000000 182724272.00000000 69814.60937500  5668335.00000000 4486983.50000000 
0.03900    113426200.00000000 71114160.00000000 179622560.00000000 68321.25000000  5558763.00000000 4400704.50000000 
0.04000    111451024.00000000 69890872.00000000 176513552.00000000 66832.07812500  5449278.00000000 4314465.00000000 
0.04100    109472752.00000000 68667088.00000000 173401216.00000000 65349.94531250  5339946.00000000 4228340.00000000 
0.04200    107496712.00000000 67442104.00000000 170290096.00000000 63876.84765625  5231031.00000000 4142531.50000000 
0.04300    105523336.00000000 66219504.00000000 167183744.00000000 62414.85156250  5122589.50000000 4057059.25000000 
0.04400    103555928.00000000 64999536.00000000 164084704.00000000 60965.02734375  5014806.00000000 3972079.25000000 
0.04500    101596184.00000000 63783916.00000000 160996848.00000000 59530.06250000  4907735.00000000 3887664.50000000 
0.04600    99646024.00000000 62574108.00000000 157923888.00000000 58110.64062500  4801532.50000000 3803903.50000000 
0.04700    97707568.00000000 61370920.00000000 154868832.00000000 56708.36718750  4696322.50000000 3720928.25000000 
0.04800    95783632.00000000 60175972.00000000 151836160.00000000 55325.13281250  4592174.50000000 3638796.00000000 
0.04900    93875296.00000000 58990456.00000000 148828512.00000000 53962.09375000  4489276.50000000 3557588.00000000 
0.05000    91983888.00000000 57815408.00000000 145846752.00000000 52620.50000000  4387618.00000000 3477369.00000000 
0.05100    90112624.00000000 56651884.00000000 142895568.00000000 51301.13281250  4287289.50000000 3398232.25000000 
0.05200    88262368.00000000 55500768.00000000 139977648.00000000 50004.96484375  4188527.50000000 3320210.75000000 
0.05300    86434912.00000000 54363496.00000000 137093888.00000000 48733.46484375  4091249.25000000 3243398.25000000 
0.05400    84631664.00000000 53240876.00000000 134248480.00000000 47487.10156250  3995587.00000000 3167838.25000000 
0.05500    82853400.00000000 52133512.00000000 131442712.00000000 46266.71484375  3901617.25000000 3093581.50000000 
0.05600    81103192.00000000 51042568.00000000 128678152.00000000 45072.62109375  3809356.25000000 3020680.00000000 
0.05700    79379448.00000000 49968460.00000000 125957464.00000000 43905.74218750  3718886.00000000 2949182.50000000 
0.05800    77686072.00000000 48912344.00000000 123282416.00000000 42765.82421875  3630259.25000000 2879117.50000000 
0.05900    76022680.00000000 47874188.00000000 120653360.00000000 41653.84765625  3543503.75000000 2810505.00000000 
0.06000    74389376.00000000 46855052.00000000 118073704.00000000 40570.08593750  3458622.00000000 2743388.00000000 
0.06100    72789000.00000000 45855244.00000000 115542896.00000000 39514.41406250  3375679.00000000 2677799.25000000 
0.06200    71220248.00000000 44875664.00000000 113063832.00000000 38486.88281250  3294710.00000000 2613712.00000000 
0.06300    69685456.00000000 43916364.00000000 110636744.00000000 37487.80468750  3215699.75000000 2551184.75000000 
0.06400    68183616.00000000 42977336.00000000 108261536.00000000 36516.44921875  3138689.25000000 2490215.00000000 
0.06500    66715896.00000000 42059148.00000000 105940352.00000000 35573.71484375  3063642.50000000 2430795.75000000 
0.06600    65283256.00000000 41162684.00000000 103672784.00000000 34658.20703125  2990573.75000000 2372965.75000000 
0.06700    63884596.00000000 40287172.00000000 101460096.00000000 33770.70312500  2919517.25000000 2316662.00000000 
0.06800    62521404.00000000 39433376.00000000 99302048.00000000 32909.89453125  2850416.75000000 2261911.50000000 
0.06900    61192680.00000000 38601216.00000000 97198928.00000000 32076.29296875  2783270.00000000 2208706.75000000 
0.07000    59899536.00000000 37790712.00000000 95150592.00000000 31268.66601562  2718064.75000000 2157041.50000000 
0.07100    58640956.00000000 37001772.00000000 93158352.00000000 30487.19726562  2654793.75000000 2106886.75000000 
0.07200    57417316.00000000 36234372.00000000 91220112.00000000 29730.59375000  2593410.50000000 2058226.37500000 
0.07300    56228280.00000000 35488364.00000000 89336248.00000000 28998.90820312  2533884.50000000 2011022.25000000 
0.07400    55073608.00000000 34764024.00000000 87507216.00000000 28291.35937500  2476200.50000000 1965294.75000000 
0.07500    53952684.00000000 34060844.00000000 85731800.00000000 27607.14257812  2420309.75000000 1920977.37500000 
0.07600    52865768.00000000 33378606.00000000 84009288.00000000 26945.73828125  2366187.75000000 1878022.62500000 
0.07700    51811956.00000000 32717382.00000000 82338584.00000000 26306.46875000  2313784.00000000 1836451.37500000 
0.07800    50790960.00000000 32076202.00000000 80720776.00000000 25688.59765625  2263055.00000000 1796206.37500000 
0.07900    49801812.00000000 31454948.00000000 79153032.00000000 25091.22070312  2213959.50000000 1757252.87500000 
0.08000    48844400.00000000 30853982.00000000 77635344.00000000 24513.88867188  2166446.50000000 1719541.87500000 
0.08100    47918060.00000000 30272084.00000000 76167384.00000000 23955.58398438  2120478.50000000 1683067.75000000 
0.08200    47021592.00000000 29709228.00000000 74746000.00000000 23415.63671875  2075987.12500000 1647771.62500000 
0.08300    46155096.00000000 29164972.00000000 73372216.00000000 22893.50781250  2032945.75000000 1613605.00000000 
0.08400    45317020.00000000 28638690.00000000 72044288.00000000 22388.19335938  1991306.62500000 1580545.00000000 
0.08500    44506736.00000000 28130284.00000000 70761272.00000000 21899.13476562  1950983.75000000 1548547.75000000 
0.08600    43724376.00000000 27638828.00000000 69520392.00000000 21425.38085938  1911951.62500000 1517568.25000000 
0.08700    42967776.00000000 27164176.00000000 68321728.00000000 20966.41601562  1874159.37500000 1487573.75000000 
0.08800    42236844.00000000 26705732.00000000 67163592.00000000 20521.20898438  1837557.75000000 1458515.12500000 
0.08900    41530940.00000000 26263004.00000000 66045560.00000000 20089.54882812  1802068.25000000 1430353.62500000 
0.09000    40848680.00000000 25835198.00000000 64964976.00000000 19670.66992188  1767680.75000000 1403065.25000000 
0.09100    40189612.00000000 25422214.00000000 63921492.00000000 19263.69726562  1734308.00000000 1376598.12500000 
0.09200    39552240.00000000 25023158.00000000 62912368.00000000 18867.85546875  1701930.87500000 1350894.25000000 
0.09300    38936536.00000000 24637706.00000000 61937940.00000000 18483.02343750  1670477.00000000 1325946.87500000 
0.09400    38340584.00000000 24265068.00000000 60995780.00000000 18108.30859375  1639900.87500000 1301687.50000000 
0.09500    37764944.00000000 23904850.00000000 60084816.00000000 17743.29687500  1610185.00000000 1278118.50000000 
0.09600    37207188.00000000 23556728.00000000 59203192.00000000 17387.21484375  1581245.62500000 1255177.62500000 
0.09700    36667600.00000000 23219852.00000000 58350740.00000000 17039.76367188  1553065.87500000 1232832.00000000 
0.09800    36144868.00000000 22893882.00000000 57524768.00000000 16700.38671875  1525604.00000000 1211056.75000000 
0.09900    35638532.00000000 22578046.00000000 56724740.00000000 16368.67675781  1498813.25000000 1189815.25000000 
0.10000    35146804.00000000 22272188.00000000 55949048.00000000 16044.22070312  1472641.25000000 1169070.87500000 
0.10100    34669840.00000000 21975410.00000000 55196412.00000000 15726.46679688  1447063.62500000 1148800.75000000 
0.10200    34206716.00000000 21687420.00000000 54465976.00000000 15415.25292969  1422043.37500000 1128970.62500000 
0.10300    33756340.00000000 21407732.00000000 53755732.00000000 15110.09765625  1397544.37500000 1109574.75000000 
0.10400    33317936.00000000 21135816.00000000 53065364.00000000 14810.71679688  1373546.50000000 1090547.25000000 
0.10500    32891200.00000000 20871352.00000000 52392820.00000000 14516.83593750  1350004.00000000 1071904.87500000 
0.10600    32474956.00000000 20613566.00000000 51737656.00000000 14228.07031250  1326894.62500000 1053595.87500000 
0.10700    32068702.00000000 20362292.00000000 51098684.00000000 13944.37500000  1304193.75000000 1035619.37500000 
0.10800    31671692.00000000 20117190.00000000 50473992.00000000 13665.47363281  1281878.00000000 1017940.75000000 
0.10900    31283760.00000000 19877364.00000000 49863844.00000000 13391.04394531  1259899.37500000 1000548.93750000 
0.11000    30903430.00000000 19642918.00000000 49266892.00000000 13121.02539062  1238273.00000000 983413.62500000 
0.11100    30530946.00000000 19413102.00000000 48681604.00000000 12855.04687500  1216969.12500000 966540.81250000 
0.11200    30165250.00000000 19188068.00000000 48107696.00000000 12593.24023438  1195964.75000000 949900.75000000 
0.11300    29806260.00000000 18966848.00000000 47543816.00000000 12335.39062500  1175231.87500000 933475.62500000 
0.11400    29453086.00000000 18749510.00000000 46989268.00000000 12081.32421875  1154771.25000000 917272.37500000 
0.11500    29105172.00000000 18535608.00000000 46443712.00000000 11830.98730469  1134550.87500000 901263.56250000 
0.11600    28762702.00000000 18324866.00000000 45906388.00000000 11584.29980469  1114581.00000000 885448.31250000 
0.11700    28424318.00000000 18117212.00000000 45375816.00000000 11341.29980469  1094842.62500000 869806.25000000 
0.11800    28090264.00000000 17911912.00000000 44852084.00000000 11101.68750000  1075318.12500000 854343.12500000 
0.11900    27760140.00000000 17709306.00000000 44334036.00000000 10865.57324219  1056021.37500000 839038.12500000 
0.12000    27433374.00000000 17508560.00000000 43821792.00000000 10632.79589844  1036918.50000000 823897.62500000 
0.12100    27109856.00000000 17309826.00000000 43314688.00000000 10403.64062500  1018023.12500000 808917.00000000 
0.12200    26789182.00000000 17112834.00000000 42811404.00000000 10177.79785156  999312.68750000 794085.56250000 
0.12300    26471150.00000000 16917412.00000000 42312596.00000000 9955.35546875   980791.87500000 779401.06250000 
0.12400    26155398.00000000 16723393.00000000 41817404.00000000 9736.23535156   962465.93750000 764858.87500000 
0.12500    25841854.00000000 16530600.00000000 41325280.00000000 9520.44531250   944325.43750000 750462.87500000 
0.12600    25530002.00000000 16338925.00000000 40836380.00000000 9308.16113281   926363.37500000 736215.87500000 
0.12700    25220076.00000000 16148136.00000000 40350016.00000000 9099.07421875   908588.18750000 722102.75000000 
0.12800    24911614.00000000 15958207.00000000 39865824.00000000 8893.40527344   890986.75000000 708128.18750000 
0.12900    24604740.00000000 15769148.00000000 39383688.00000000 8691.10937500   873576.75000000 694296.43750000 
0.13000    24299132.00000000 15580728.00000000 38903560.00000000 8492.10449219   856347.37500000 680605.00000000 
0.13100    23994766.00000000 15392732.00000000 38424724.00000000 8296.56347656   839296.62500000 667062.31250000 
0.13200    23691412.00000000 15205470.00000000 37947872.00000000 8104.27587891   822430.87500000 653655.50000000 
0.13300    23389152.00000000 15018601.00000000 37472452.00000000 7915.40429688   805754.62500000 640399.93750000 
0.13400    23087930.00000000 14832179.00000000 36998212.00000000 7729.89941406   789265.18750000 627281.50000000 
0.13500    22787770.00000000 14646149.00000000 36525624.00000000 7547.67919922   772964.62500000 614318.81250000 
0.13600    22488364.00000000 14460508.00000000 36053952.00000000 7368.86474609   756863.68750000 601503.56250000 
0.13700    22189858.00000000 14275191.00000000 35583232.00000000 7193.35253906   740950.25000000 588833.25000000 
0.13800    21892268.00000000 14090362.00000000 35114432.00000000 7021.17041016   725236.81250000 576320.06250000 
0.13900    21595630.00000000 13905748.00000000 34645940.00000000 6852.33837891   709714.43750000 563969.12500000 
0.14000    21299860.00000000 13721581.00000000 34179060.00000000 6686.68847656   694406.18750000 551772.00000000 
0.14100    21005140.00000000 13537678.00000000 33713444.00000000 6524.34667969   679295.87500000 539731.43750000 
0.14200    20711414.00000000 13354289.00000000 33248950.00000000 6365.27734375   664386.43750000 527852.81250000 
0.14300    20418794.00000000 13171245.00000000 32785972.00000000 6209.36572266   649683.68750000 516140.53125000 
0.14400    20126944.00000000 12988740.00000000 32324218.00000000 6056.64648438   635192.31250000 504580.34375000 
0.14500    19836398.00000000 12806615.00000000 31864218.00000000 5907.12548828   620914.43750000 493199.56250000 
0.14600    19546958.00000000 12625208.00000000 31405902.00000000 5760.62255859   606845.31250000 481981.62500000 
0.14700    19258928.00000000 12444217.00000000 30948928.00000000 5617.34423828   592992.18750000 470931.18750000 
0.14800    18971988.00000000 12263818.00000000 30493996.00000000 5477.00976562   579351.43750000 460053.71875000 
0.14900    18686476.00000000 12084101.00000000 30040822.00000000 5339.65234375   565925.93750000 449342.53125000 
0.15000    18402326.00000000 11905143.00000000 29589732.00000000 5205.34472656   552721.00000000 438801.28125000 
0.15100    18119904.00000000 11726848.00000000 29140980.00000000 5073.88037109   539731.50000000 428439.40625000 
0.15200    17839044.00000000 11549486.00000000 28694706.00000000 4945.33203125   526952.31250000 418246.71875000 
0.15300    17559988.00000000 11372933.00000000 28250632.00000000 4819.63671875   514396.21875000 408221.78125000 
0.15400    17282270.00000000 11197342.00000000 27808916.00000000 4696.66015625   502049.78125000 398371.06250000 
0.15500    17006792.00000000 11022637.00000000 27370226.00000000 4576.45849609   489925.03125000 388693.56250000 
0.15600    16733084.00000000 10849043.00000000 26934110.00000000 4458.94287109   478015.15625000 379184.68750000 
0.15700    16461631.00000000 10676639.00000000 26501212.00000000 4344.12792969   466321.53125000 369851.46875000 
0.15800    16191948.00000000 10505272.00000000 26071216.00000000 4231.80224609   454834.43750000 360689.03125000 
0.15900    15924513.00000000 10335097.00000000 25644586.00000000 4122.08251953   443566.62500000 351694.31250000 
0.16000    15659186.00000000 10166162.00000000 25221144.00000000 4014.90307617   432506.09375000 342866.68750000 
0.16100    15396262.00000000 9998583.00000000 24801490.00000000 3910.21069336   421661.50000000 334210.71875000 
0.16200    15135655.00000000 9832384.00000000 24385206.00000000 3807.93725586   411020.43750000 325721.18750000 
0.16300    14877463.00000000 9667616.00000000 23972830.00000000 3708.01586914   400585.81250000 317397.21875000 
0.16400    14621946.00000000 9504300.00000000 23564176.00000000 3610.49438477   390359.06250000 309234.96875000 
0.16500    14368859.00000000 9342458.00000000 23159320.00000000 3515.21801758   380333.59375000 301236.34375000 
0.16600    14118403.00000000 9182162.00000000 22758870.00000000 3422.25610352   370509.81250000 293400.75000000 
0.16700    13870658.00000000 9023624.00000000 22362218.00000000 3331.51220703   360880.40625000 285718.75000000 
0.16800    13625610.00000000 8866582.00000000 21970064.00000000 3242.94677734   351446.78125000 278196.50000000 
0.16900    13383482.00000000 8711320.00000000 21582416.00000000 3156.60229492   342213.15625000 270833.18750000 
0.17000    13144206.00000000 8557727.00000000 21198948.00000000 3072.36547852   333165.62500000 263618.43750000 
