# SAXS profile: number of points = 501, q_min = 0, q_max = 0.5, delta_q = 0.001
#    q    intensity 
0.00000    162237712.00000000 101202112.00000000 256271776.00000000 105625.61718750 8279290.50000000 6538940.00000000 
0.00100    162202752.00000000 101179536.00000000 256214960.00000000 105598.81250000 8277317.50000000 6537379.50000000 
0.00200    162097888.00000000 101113584.00000000 256047632.00000000 105516.43750000 8271369.00000000 6532687.00000000 
0.00300    161922320.00000000 101003456.00000000 255769024.00000000 105380.57031250 8261476.00000000 6524911.50000000 
0.00400    161673328.00000000 100849336.00000000 255377392.00000000 105190.70312500 8247653.00000000 6514042.50000000 
0.00500    161354384.00000000 100651136.00000000 254875232.00000000 104947.32812500 8229925.00000000 6500050.00000000 
0.00600    160964704.00000000 100409800.00000000 254262368.00000000 104649.71093750 8208287.00000000 6483016.50000000 
0.00700    160506384.00000000 100124960.00000000 253539952.00000000 104300.01562500 8182841.50000000 6462916.00000000 
0.00800    159978032.00000000 99798296.00000000 252710512.00000000 103897.07031250 8153506.00000000 6439837.50000000 
0.00900    159382304.00000000 99429280.00000000 251773696.00000000 103443.50000000 8120472.50000000 6413777.50000000 
0.01000    158720864.00000000 99019112.00000000 250731744.00000000 102938.54687500 8083714.00000000 6384794.00000000 
0.01100    157994144.00000000 98567464.00000000 249585408.00000000 102383.93750000 8043285.00000000 6352950.50000000 
0.01200    157202624.00000000 98076040.00000000 248335184.00000000 101779.51562500 7999257.00000000 6318219.00000000 
0.01300    156347024.00000000 97544216.00000000 246986672.00000000 101127.28906250 7951687.00000000 6280756.00000000 
0.01400    155427072.00000000 96974272.00000000 245537408.00000000 100427.85937500 7900642.00000000 6240531.00000000 
0.01500    154446032.00000000 96364976.00000000 243993072.00000000 99682.52343750  7846252.00000000 6197616.00000000 
0.01600    153405312.00000000 95718480.00000000 242353504.00000000 98891.63281250  7788579.00000000 6152165.00000000 
0.01700    152306288.00000000 95036592.00000000 240621728.00000000 98058.09375000  7727671.00000000 6104146.00000000 
0.01800    151150784.00000000 94319520.00000000 238800032.00000000 97181.92968750  7663621.00000000 6053664.50000000 
0.01900    149938688.00000000 93567008.00000000 236891664.00000000 96264.60937500  7596578.00000000 6000802.50000000 
0.02000    148673712.00000000 92781816.00000000 234897712.00000000 95308.42968750  7526570.50000000 5945640.00000000 
0.02100    147357792.00000000 91964248.00000000 232822544.00000000 94314.00000000  7453786.50000000 5888244.00000000 
0.02200    145990784.00000000 91115752.00000000 230668960.00000000 93283.00000000  7378240.50000000 5828693.00000000 
0.02300    144574912.00000000 90237024.00000000 228438320.00000000 92217.37500000  7300080.50000000 5767116.00000000 
0.02400    143114192.00000000 89330216.00000000 226135584.00000000 91118.37500000  7219467.50000000 5703541.50000000 
0.02500    141608912.00000000 88395360.00000000 223764464.00000000 89987.55468750  7136426.50000000 5638095.50000000 
0.02600    140061184.00000000 87434408.00000000 221324112.00000000 88827.14062500  7051165.50000000 5570855.00000000 
0.02700    138473280.00000000 86448448.00000000 218821504.00000000 87638.28125000  6963756.50000000 5501944.00000000 
0.02800    136847056.00000000 85438840.00000000 216259568.00000000 86423.25781250  6874332.00000000 5431430.00000000 
0.02900    135185600.00000000 84406704.00000000 213638784.00000000 85183.69531250  6783012.50000000 5359400.00000000 
0.03000    133489920.00000000 83353504.00000000 210967296.00000000 83921.31250000  6689906.00000000 5286007.50000000 
0.03100    131762456.00000000 82280936.00000000 208244240.00000000 82638.06250000  6595182.00000000 5211304.50000000 
0.03200    130005920.00000000 81190152.00000000 205477376.00000000 81334.42968750  6498865.00000000 5135415.50000000 
0.03300    128222984.00000000 80082712.00000000 202664720.00000000 80014.21875000  6401233.00000000 5058408.50000000 
0.03400    126413664.00000000 78958784.00000000 199815632.00000000 78678.46093750  6302322.50000000 4980401.50000000 
0.03500    124582840.00000000 77821208.00000000 196928176.00000000 77328.49218750  6202274.50000000 4901519.00000000 
0.03600    122731616.00000000 76671168.00000000 194010048.00000000 75966.62500000  6101244.00000000 4821812.50000000 
0.03700    120862088.00000000 75509592.00000000 191062560.00000000 74594.01562500  5999333.00000000 4741428.00000000 
0.03800    118976568.00000000 74338424.00000000 188090288.00000000 73213.55468750  5896622.00000000 4660478.50000000 
0.03900    117077576.00000000 73157768.00000000 185096080.00000000 71826.31250000  5793308.00000000 4579025.50000000 
0.04000    115166664.00000000 71970928.00000000 182082944.00000000 70433.94531250  5689551.50000000 4497144.50000000 
0.04100    113247352.00000000 70778680.00000000 179057488.00000000 69038.42187500  5585362.50000000 4415000.50000000 
0.04200    111320456.00000000 69581280.00000000 176019792.00000000 67641.50000000  5480950.50000000 4332623.00000000 
0.04300    109388688.00000000 68380912.00000000 172973456.00000000 66244.06250000  5376394.50000000 4250182.00000000 
0.04400    107453952.00000000 67178192.00000000 169923696.00000000 64848.88671875  5271811.50000000 4167675.75000000 
0.04500    105519008.00000000 65974952.00000000 166871456.00000000 63456.37109375  5167332.50000000 4085252.25000000 
0.04600    103584544.00000000 64773160.00000000 163822144.00000000 62069.24218750  5063051.00000000 4003015.00000000 
0.04700    101654160.00000000 63572876.00000000 160777440.00000000 60688.09765625  4959111.50000000 3921024.25000000 
0.04800    99728264.00000000 62376052.00000000 157741904.00000000 59314.60156250  4855579.00000000 3839353.75000000 
0.04900    97810080.00000000 61183372.00000000 154716848.00000000 57950.20312500  4752593.00000000 3758118.25000000 
0.05000    95900760.00000000 59996388.00000000 151705424.00000000 56596.44140625  4650246.50000000 3677376.00000000 
0.05100    94003128.00000000 58816112.00000000 148712352.00000000 55254.32421875  4548637.00000000 3597197.50000000 
0.05200    92117560.00000000 57643344.00000000 145738128.00000000 53925.24609375  4447841.50000000 3517683.25000000 
0.05300    90246408.00000000 56479872.00000000 142787248.00000000 52610.03906250  4347924.50000000 3438862.00000000 
0.05400    88390808.00000000 55325952.00000000 139859600.00000000 51310.53515625  4249083.00000000 3360841.75000000 
0.05500    86552952.00000000 54182836.00000000 136960912.00000000 50027.28906250  4151259.75000000 3283683.25000000 
0.05600    84734384.00000000 53051652.00000000 134091680.00000000 48761.27734375  4054621.00000000 3207425.75000000 
0.05700    82936200.00000000 51932848.00000000 131255736.00000000 47513.67968750  3959222.50000000 3132141.75000000 
0.05800    81159144.00000000 50827860.00000000 128452928.00000000 46285.07031250  3865114.25000000 3057873.00000000 
0.05900    79405424.00000000 49737012.00000000 125687080.00000000 45076.89453125  3772389.50000000 2984695.75000000 
0.06000    77676472.00000000 48661244.00000000 122959088.00000000 43888.94140625  3681082.75000000 2912649.00000000 
0.06100    75972328.00000000 47601288.00000000 120271768.00000000 42722.80078125  3591276.25000000 2841764.25000000 
0.06200    74295512.00000000 46558148.00000000 117625552.00000000 41578.57421875  3503019.50000000 2772117.00000000 
0.06300    72645624.00000000 45531764.00000000 115023120.00000000 40457.19921875  3416329.50000000 2703691.00000000 
0.06400    71024672.00000000 44523096.00000000 112465920.00000000 39359.04687500  3331285.00000000 2636565.50000000 
0.06500    69432736.00000000 43532808.00000000 109954744.00000000 38284.20703125  3247909.00000000 2570749.75000000 
0.06600    67871488.00000000 42561164.00000000 107491816.00000000 37233.71484375  3166242.25000000 2506291.25000000 
0.06700    66340876.00000000 41609032.00000000 105076688.00000000 36207.43750000  3086344.25000000 2443210.25000000 
0.06800    64842208.00000000 40676068.00000000 102711104.00000000 35205.77734375  3008182.00000000 2381506.50000000 
0.06900    63374824.00000000 39763032.00000000 100397256.00000000 34228.67968750  2931822.75000000 2321231.75000000 
0.07000    61940824.00000000 38870628.00000000 98134176.00000000 33276.83203125  2857256.75000000 2262385.50000000 
0.07100    60539740.00000000 37998264.00000000 95923016.00000000 32349.87890625  2784545.75000000 2204960.75000000 
0.07200    59171300.00000000 37147224.00000000 93764736.00000000 31448.03710938  2713642.75000000 2148978.25000000 
0.07300    57837224.00000000 36317040.00000000 91659032.00000000 30571.35351562  2644592.25000000 2094464.25000000 
0.07400    56537100.00000000 35507548.00000000 89607280.00000000 29719.53320312  2577380.00000000 2041395.37500000 
0.07500    55270380.00000000 34719084.00000000 87609824.00000000 28892.79882812  2512028.00000000 1989787.12500000 
0.07600    54038068.00000000 33952140.00000000 85664736.00000000 28090.66210938  2448467.25000000 1939623.87500000 
0.07700    52839560.00000000 33206784.00000000 83773968.00000000 27313.30859375  2386775.25000000 1890905.12500000 
0.07800    51675424.00000000 32482056.00000000 81936984.00000000 26560.10742188  2326887.75000000 1843630.50000000 
0.07900    50544812.00000000 31778558.00000000 80153512.00000000 25830.76171875  2268817.75000000 1797759.37500000 
0.08000    49448072.00000000 31096230.00000000 78423104.00000000 25125.32812500  2212525.75000000 1753309.75000000 
0.08100    48384692.00000000 30434722.00000000 76745728.00000000 24443.14843750  2158010.75000000 1710253.62500000 
0.08200    47354560.00000000 29793904.00000000 75120944.00000000 23783.81250000  2105223.50000000 1668571.50000000 
0.08300    46357288.00000000 29173492.00000000 73547496.00000000 23147.26367188  2054169.00000000 1628244.62500000 
0.08400    45392716.00000000 28573342.00000000 72025696.00000000 22532.37890625  2004804.62500000 1589258.87500000 
0.08500    44459916.00000000 27993370.00000000 70554608.00000000 21939.46875000  1957077.12500000 1551573.12500000 
0.08600    43558772.00000000 27432980.00000000 69133664.00000000 21367.46093750  1910987.12500000 1515182.12500000 
0.08700    42688568.00000000 26892108.00000000 67761136.00000000 20815.87890625  1866494.00000000 1480044.75000000 
0.08800    41848948.00000000 26370062.00000000 66437100.00000000 20284.35742188  1823559.00000000 1446123.12500000 
0.08900    41038884.00000000 25866890.00000000 65159924.00000000 19772.24023438  1782127.75000000 1413409.37500000 
0.09000    40258296.00000000 25381838.00000000 63929216.00000000 19278.91210938  1742185.00000000 1381860.87500000 
0.09100    39506016.00000000 24914566.00000000 62743416.00000000 18804.08007812  1703667.75000000 1351450.75000000 
0.09200    38781736.00000000 24464828.00000000 61601692.00000000 18346.59765625  1666542.37500000 1322125.75000000 
0.09300    38084668.00000000 24031934.00000000 60502896.00000000 17906.36523438  1630779.62500000 1293885.00000000 
0.09400    37413500.00000000 23615580.00000000 59445416.00000000 17482.52734375  1596304.12500000 1266662.87500000 
0.09500    36768104.00000000 23215058.00000000 58428860.00000000 17074.34570312  1563098.62500000 1240431.87500000 
0.09600    36147364.00000000 22830146.00000000 57450988.00000000 16681.37695312  1531103.62500000 1215167.87500000 
0.09700    35550776.00000000 22460254.00000000 56511104.00000000 16303.01953125  1500279.50000000 1190825.50000000 
0.09800    34977116.00000000 22104846.00000000 55608132.00000000 15938.53417969  1470578.50000000 1167371.75000000 
0.09900    34425844.00000000 21763400.00000000 54740488.00000000 15587.46582031  1441972.25000000 1144764.62500000 
0.10000    33896212.00000000 21435386.00000000 53906820.00000000 15248.97949219  1414359.50000000 1122975.75000000 
0.10100    33386514.00000000 21120224.00000000 53104516.00000000 14922.42968750  1387742.75000000 1101960.12500000 
0.10200    32896702.00000000 20817468.00000000 52334348.00000000 14607.64062500  1362076.00000000 1081686.50000000 
0.10300    32425834.00000000 20526470.00000000 51594156.00000000 14303.58789062  1337282.50000000 1062108.50000000 
0.10400    31972970.00000000 20246678.00000000 50881980.00000000 14009.80273438  1313348.37500000 1043213.87500000 
0.10500    31537162.00000000 19977828.00000000 50197368.00000000 13725.86718750  1290217.87500000 1024940.37500000 
0.10600    31117700.00000000 19719084.00000000 49538004.00000000 13450.94824219  1267831.75000000 1007261.31250000 
0.10700    30713626.00000000 19469750.00000000 48903132.00000000 13184.87304688  1246170.87500000 990153.87500000 
0.10800    30324004.00000000 19229774.00000000 48291512.00000000 12926.98535156  1225179.75000000 973579.25000000 
0.10900    29948050.00000000 18998422.00000000 47701252.00000000 12676.50585938  1204813.87500000 957497.93750000 
0.11000    29584834.00000000 18775104.00000000 47131360.00000000 12433.38085938  1185039.50000000 941883.12500000 
0.11100    29234006.00000000 18559236.00000000 46581244.00000000 12196.86230469  1165810.62500000 926701.43750000 
0.11200    28894314.00000000 18350684.00000000 46048612.00000000 11966.74316406  1147113.00000000 911924.50000000 
0.11300    28565238.00000000 18148460.00000000 45532532.00000000 11742.19726562  1128879.12500000 897525.75000000 
0.11400    28246094.00000000 17952560.00000000 45032200.00000000 11523.17675781  1111096.12500000 883476.68750000 
0.11500    27935604.00000000 17762374.00000000 44546052.00000000 11309.21582031  1093716.00000000 869747.87500000 
0.11600    27633558.00000000 17577226.00000000 44073056.00000000 11099.87597656  1076712.37500000 856312.62500000 
0.11700    27339510.00000000 17397008.00000000 43612268.00000000 10894.94921875  1060054.37500000 843150.25000000 
0.11800    27051884.00000000 17221074.00000000 43162168.00000000 10693.81542969  1043706.25000000 830233.50000000 
0.11900    26770982.00000000 17049146.00000000 42722216.00000000 10496.47558594  1027644.81250000 817544.87500000 
0.12000    26495462.00000000 16880596.00000000 42291480.00000000 10302.49707031  1011849.87500000 805055.43750000 
0.12100    26225334.00000000 16715316.00000000 41868660.00000000 10111.68945312  996293.93750000 792751.75000000 
0.12200    25959664.00000000 16552934.00000000 41452632.00000000 9923.77246094   980948.00000000 780615.06250000 
0.12300    25697912.00000000 16392960.00000000 41043340.00000000 9738.44726562   965789.87500000 768627.56250000 
0.12400    25439582.00000000 16235165.00000000 40639448.00000000 9555.61621094   950803.81250000 756771.93750000 
0.12500    25184376.00000000 16079105.00000000 40239964.00000000 9375.07031250   935965.00000000 745028.62500000 
0.12600    24931830.00000000 15924609.00000000 39844644.00000000 9196.71386719   921265.75000000 733396.31250000 
0.12700    24681160.00000000 15771344.00000000 39452464.00000000 9020.26074219   906680.75000000 721850.12500000 
0.12800    24432368.00000000 15619210.00000000 39062948.00000000 8845.67187500   892210.18750000 710386.81250000 
0.12900    24184834.00000000 15467682.00000000 38675640.00000000 8672.79882812   877824.43750000 698994.12500000 
0.13000    23938216.00000000 15316800.00000000 38289424.00000000 8501.53027344   863518.00000000 687655.93750000 
0.13100    23692212.00000000 15166115.00000000 37904384.00000000 8331.85351562   849284.37500000 676371.43750000 
0.13200    23446754.00000000 15015617.00000000 37519728.00000000 8163.56640625   835110.18750000 665137.68750000 
0.13300    23201210.00000000 14865129.00000000 37135132.00000000 7996.81054688   820995.37500000 653937.00000000 
0.13400    22955674.00000000 14714381.00000000 36750096.00000000 7831.41064453   806922.12500000 642775.18750000 
0.13500    22709692.00000000 14563442.00000000 36364528.00000000 7667.34863281   792896.87500000 631643.00000000 
0.13600    22463146.00000000 14411962.00000000 35977696.00000000 7504.64843750   778909.87500000 620534.62500000 
0.13700    22215946.00000000 14259828.00000000 35589716.00000000 7343.30957031   764957.75000000 609458.06250000 
0.13800    21967994.00000000 14107109.00000000 35200320.00000000 7183.27587891   751042.37500000 598400.31250000 
0.13900    21718884.00000000 13953630.00000000 34809224.00000000 7024.62792969   737162.00000000 587367.50000000 
0.14000    21469086.00000000 13799356.00000000 34415800.00000000 6867.35595703   723311.81250000 576358.68750000 
0.14100    21217714.00000000 13644210.00000000 34021300.00000000 6711.54589844   709500.56250000 565371.68750000 
0.14200    20965210.00000000 13488164.00000000 33623852.00000000 6557.10839844   695726.25000000 554414.81250000 
0.14300    20711844.00000000 13331316.00000000 33224824.00000000 6404.23242188   681991.18750000 543483.31250000 
0.14400    20456852.00000000 13173309.00000000 32823242.00000000 6252.79785156   668302.25000000 532582.50000000 
0.14500    20200944.00000000 13014585.00000000 32419944.00000000 6103.06250000   654655.31250000 521717.53125000 
0.14600    19943782.00000000 12854857.00000000 32014178.00000000 5954.91259766   641066.37500000 510889.59375000 
0.14700    19685380.00000000 12694310.00000000 31606748.00000000 5808.51171875   627537.37500000 500105.21875000 
0.14800    19425886.00000000 12532743.00000000 31196994.00000000 5663.87548828   614063.93750000 489361.62500000 
0.14900    19165324.00000000 12370444.00000000 30785624.00000000 5521.01220703   600660.25000000 478672.46875000 
0.15000    18903886.00000000 12207320.00000000 30372346.00000000 5380.05126953   587337.75000000 468038.71875000 
0.15100    18641564.00000000 12043483.00000000 29957608.00000000 5241.07226562   574087.81250000 457464.62500000 
0.15200    18378466.00000000 11879074.00000000 29541462.00000000 5104.14697266   560933.25000000 446960.81250000 
0.15300    18114810.00000000 11714073.00000000 29124042.00000000 4969.23339844   547872.25000000 436530.03125000 
0.15400    17850522.00000000 11548401.00000000 28705444.00000000 4836.45605469   534907.43750000 426172.96875000 
0.15500    17586000.00000000 11382375.00000000 28286018.00000000 4705.89990234   522059.18750000 415900.06250000 
0.15600    17321022.00000000 11216020.00000000 27866054.00000000 4577.53906250   509322.50000000 405715.53125000 
0.15700    17056114.00000000 11049445.00000000 27445742.00000000 4451.57226562   496715.65625000 395629.00000000 
0.15800    16791158.00000000 10882679.00000000 27025148.00000000 4327.86376953   484233.81250000 385641.46875000 
0.15900    16526520.00000000 10715753.00000000 26604720.00000000 4206.61767578   471895.84375000 375762.90625000 
0.16000    16262137.00000000 10548982.00000000 26184612.00000000 4087.76171875   459691.81250000 365992.46875000 
0.16100    15998289.00000000 10382384.00000000 25765258.00000000 3971.40991211   447650.00000000 356345.18750000 
0.16200    15735163.00000000 10215989.00000000 25346468.00000000 3857.58740234   435760.59375000 346817.93750000 
0.16300    15472993.00000000 10049985.00000000 24929106.00000000 3746.27954102   424035.62500000 337422.25000000 
0.16400    15211724.00000000 9884467.00000000 24512994.00000000 3637.56274414   412481.43750000 328155.68750000 
0.16500    14951719.00000000 9719440.00000000 24098622.00000000 3531.40380859   401103.62500000 319030.62500000 
0.16600    14693024.00000000 9555080.00000000 23686106.00000000 3427.87866211   389905.15625000 310044.06250000 
0.16700    14435757.00000000 9391531.00000000 23275748.00000000 3326.94726562   378891.93750000 301205.46875000 
0.16800    14180158.00000000 9228800.00000000 22867876.00000000 3228.61816406   368067.81250000 292517.15625000 
0.16900    13926522.00000000 9067090.00000000 22462724.00000000 3132.97412109   357447.15625000 283983.75000000 
0.17000    13674811.00000000 8906521.00000000 22060362.00000000 3039.92260742   347017.28125000 275605.93750000 
