# SAXS profile: number of points = 501, q_min = 0, q_max = 0.5, delta_q = 0.001
#    q    intensity 
0.00000    162234272.00000000 101202328.00000000 256270128.00000000 100296.66406250 8067758.00000000 6371886.50000000 
0.00100    162199952.00000000 101178992.00000000 256211648.00000000 100266.32812500 8065585.00000000 6370206.00000000 
0.00200    162091600.00000000 101109992.00000000 256037248.00000000 100174.43750000 8059085.50000000 6365074.00000000 
0.00300    161908640.00000000 100995032.00000000 255743968.00000000 100021.86718750 8048272.00000000 6356561.50000000 
0.00400    161647392.00000000 100833776.00000000 255335440.00000000 99809.42968750  8033211.50000000 6344718.50000000 
0.00500    161313168.00000000 100628080.00000000 254809856.00000000 99535.85156250  8013875.00000000 6329524.50000000 
0.00600    160904544.00000000 100375152.00000000 254169056.00000000 99202.98437500  7990283.50000000 6310991.00000000 
0.00700    160422944.00000000 100079344.00000000 253418464.00000000 98812.14843750  7962578.00000000 6289214.00000000 
0.00800    159867216.00000000 99739352.00000000 252551648.00000000 98363.42968750  7930729.50000000 6264126.00000000 
0.00900    159246544.00000000 99356880.00000000 251574640.00000000 97858.00000000  7894827.00000000 6235891.00000000 
0.01000    158556672.00000000 98930568.00000000 250488272.00000000 97296.48437500  7854968.50000000 6204539.50000000 
0.01100    157800736.00000000 98462208.00000000 249296160.00000000 96680.88281250  7811200.50000000 6170114.00000000 
0.01200    156973088.00000000 97951520.00000000 247996320.00000000 96012.17187500  7763579.00000000 6132681.00000000 
0.01300    156079904.00000000 97400808.00000000 246595904.00000000 95292.04687500  7712284.50000000 6092333.00000000 
0.01400    155124192.00000000 96809904.00000000 245092288.00000000 94521.59375000  7657346.50000000 6049127.50000000 
0.01500    154106016.00000000 96181728.00000000 243493824.00000000 93703.23437500  7598912.50000000 6003148.00000000 
0.01600    153028032.00000000 95515872.00000000 241797568.00000000 92838.59375000  7537078.00000000 5954474.50000000 
0.01700    151889616.00000000 94813584.00000000 240010336.00000000 91929.39062500  7471945.00000000 5903272.50000000 
0.01800    150695744.00000000 94075864.00000000 238132512.00000000 90976.92187500  7403622.50000000 5849496.50000000 
0.01900    149446752.00000000 93304016.00000000 236169632.00000000 89984.53125000  7332321.00000000 5793409.00000000 
0.02000    148144080.00000000 92500160.00000000 234123184.00000000 88952.78906250  7258108.00000000 5735038.00000000 
0.02100    146792224.00000000 91664096.00000000 231996880.00000000 87884.16406250  7181163.50000000 5674449.50000000 
0.02200    145389712.00000000 90798144.00000000 229792672.00000000 86782.16406250  7101560.00000000 5611805.50000000 
0.02300    143944272.00000000 89903856.00000000 227516224.00000000 85647.39062500  7019516.50000000 5547238.00000000 
0.02400    142452768.00000000 88981296.00000000 225170784.00000000 84483.36718750  6935122.50000000 5480808.50000000 
0.02500    140920096.00000000 88034056.00000000 222760640.00000000 83292.07031250  6848589.50000000 5412679.00000000 
0.02600    139347728.00000000 87060544.00000000 220287904.00000000 82074.84375000  6759983.50000000 5342910.00000000 
0.02700    137740384.00000000 86065616.00000000 217759168.00000000 80834.91406250  6669558.00000000 5271684.50000000 
0.02800    136096528.00000000 85049208.00000000 215174400.00000000 79574.42968750  6577362.00000000 5199114.00000000 
0.02900    134421664.00000000 84012728.00000000 212538768.00000000 78295.57812500  6483627.50000000 5125284.00000000 
0.03000    132717896.00000000 82958160.00000000 209857120.00000000 77001.17968750  6388481.50000000 5050388.00000000 
0.03100    130987768.00000000 81886264.00000000 207133280.00000000 75692.42968750  6292105.50000000 4974435.50000000 
0.03200    129232936.00000000 80799080.00000000 204370432.00000000 74372.92187500  6194639.50000000 4897609.00000000 
0.03300    127456056.00000000 79698488.00000000 201573296.00000000 73043.40625000  6096195.00000000 4820091.00000000 
0.03400    125660184.00000000 78586688.00000000 198746624.00000000 71707.85937500  5996960.00000000 4741888.00000000 
0.03500    123846992.00000000 77462856.00000000 195891888.00000000 70367.13281250  5897044.00000000 4663220.00000000 
0.03600    122019936.00000000 76330360.00000000 193015152.00000000 69023.21093750  5796693.00000000 4584110.50000000 
0.03700    120181024.00000000 75190464.00000000 190117952.00000000 67679.53125000  5695933.00000000 4504711.00000000 
0.03800    118332264.00000000 74042880.00000000 187205200.00000000 66336.35937500  5594992.00000000 4425094.00000000 
0.03900    116476024.00000000 72891000.00000000 184281968.00000000 64997.00781250  5493946.00000000 4345455.50000000 
0.04000    114614816.00000000 71735760.00000000 181349056.00000000 63662.12109375  5392967.00000000 4265824.00000000 
0.04100    112750816.00000000 70578952.00000000 178412848.00000000 62334.08984375  5292170.50000000 4186340.75000000 
0.04200    110886920.00000000 69420784.00000000 175473520.00000000 61015.02734375  5191663.00000000 4107066.00000000 
0.04300    109025200.00000000 68264240.00000000 172538304.00000000 59705.75781250  5091617.50000000 4028123.25000000 
0.04400    107166248.00000000 67109720.00000000 169607504.00000000 58408.33203125  4992095.00000000 3949631.00000000 
0.04500    105313064.00000000 65957600.00000000 166685664.00000000 57124.00781250  4893236.00000000 3871630.50000000 
0.04600    103467816.00000000 64810392.00000000 163775856.00000000 55854.11718750  4795144.50000000 3794220.50000000 
0.04700    101632352.00000000 63668712.00000000 160879184.00000000 54599.89453125  4697920.50000000 3717466.75000000 
0.04800    99807784.00000000 62534080.00000000 158001696.00000000 53362.80859375  4601659.00000000 3641489.50000000 
0.04900    97996960.00000000 61406700.00000000 155143408.00000000 52143.56640625  4506418.00000000 3566311.00000000 
0.05000    96200352.00000000 60288164.00000000 152309152.00000000 50943.22265625  4412317.00000000 3492023.00000000 
0.05100    94419744.00000000 59180256.00000000 149501344.00000000 49762.94531250  4319415.00000000 3418688.75000000 
0.05200    92657464.00000000 58082476.00000000 146718560.00000000 48603.19531250  4227837.50000000 3346350.50000000 
0.05300    90913680.00000000 56996280.00000000 143966240.00000000 47464.76562500  4137616.50000000 3275074.75000000 
0.05400    89191696.00000000 55922392.00000000 141246768.00000000 46348.48828125  4048721.75000000 3204891.50000000 
0.05500    87490600.00000000 54862460.00000000 138561264.00000000 45254.53906250  3961354.50000000 3135849.00000000 
0.05600    85812360.00000000 53815504.00000000 135910928.00000000 44183.80468750  3875482.75000000 3068011.75000000 
0.05700    84158328.00000000 52784192.00000000 133299008.00000000 43136.32031250  3791187.25000000 3001399.25000000 
0.05800    82528368.00000000 51767872.00000000 130723632.00000000 42112.35937500  3708441.25000000 2936014.50000000 
0.05900    80925008.00000000 50767188.00000000 128190504.00000000 41112.07421875  3627346.75000000 2871935.75000000 
0.06000    79348288.00000000 49782832.00000000 125698448.00000000 40135.85937500  3547906.75000000 2809158.25000000 
0.06100    77797800.00000000 48815576.00000000 123249544.00000000 39183.56640625  3470113.50000000 2747657.25000000 
0.06200    76276056.00000000 47864936.00000000 120843416.00000000 38254.48828125  3394054.00000000 2687532.75000000 
0.06300    74781688.00000000 46932192.00000000 118482912.00000000 37350.27734375  3319650.75000000 2628720.25000000 
0.06400    73316936.00000000 46016900.00000000 116167016.00000000 36469.43359375  3246987.50000000 2571270.00000000 
0.06500    71881512.00000000 45120076.00000000 113898080.00000000 35611.50000000  3176019.00000000 2515160.25000000 
0.06600    70475424.00000000 44241296.00000000 111674880.00000000 34776.84375000  3106744.50000000 2460410.00000000 
0.06700    69098976.00000000 43380888.00000000 109498272.00000000 33964.83593750  3039195.00000000 2406972.75000000 
0.06800    67752072.00000000 42539384.00000000 107369216.00000000 33175.65234375  2973291.00000000 2354874.50000000 
0.06900    66435612.00000000 41716324.00000000 105287136.00000000 32408.16992188  2909100.25000000 2304116.50000000 
0.07000    65148372.00000000 40911844.00000000 103252008.00000000 31662.29687500  2846541.00000000 2254652.75000000 
0.07100    63892168.00000000 40125524.00000000 101265160.00000000 30937.56640625  2785623.25000000 2206489.25000000 
0.07200    62665032.00000000 39358708.00000000 99323920.00000000 30233.25000000  2726304.00000000 2159577.00000000 
0.07300    61467392.00000000 38610092.00000000 97430768.00000000 29548.58789062  2668569.00000000 2113951.50000000 
0.07400    60299156.00000000 37879676.00000000 95583600.00000000 28883.81835938  2612401.25000000 2069520.37500000 
0.07500    59160080.00000000 37167780.00000000 93782496.00000000 28237.35742188  2557722.00000000 2026314.50000000 
0.07600    58049984.00000000 36473752.00000000 92026584.00000000 27609.29492188  2504532.00000000 1984274.50000000 
0.07700    56968060.00000000 35797376.00000000 90315888.00000000 26998.87500000  2452807.75000000 1943374.37500000 
0.07800    55913920.00000000 35138588.00000000 88649200.00000000 26405.03710938  2402485.50000000 1903597.00000000 
0.07900    54887240.00000000 34496576.00000000 87025984.00000000 25827.48828125  2353519.25000000 1864895.37500000 
0.08000    53887600.00000000 33872604.00000000 85445520.00000000 25265.89453125  2305891.25000000 1827262.75000000 
0.08100    52914324.00000000 33265162.00000000 83907408.00000000 24718.94921875  2259555.00000000 1790644.25000000 
0.08200    51966680.00000000 32673384.00000000 82410336.00000000 24186.61718750  2214428.25000000 1755012.00000000 
0.08300    51044532.00000000 32097586.00000000 80952760.00000000 23667.99414062  2170539.75000000 1720339.50000000 
0.08400    50146896.00000000 31537550.00000000 79534000.00000000 23162.47460938  2127798.25000000 1686575.25000000 
0.08500    49273516.00000000 30992628.00000000 78154080.00000000 22669.61914062  2086179.00000000 1653702.87500000 
0.08600    48422844.00000000 30462496.00000000 76811296.00000000 22188.69921875  2045618.50000000 1621686.37500000 
0.08700    47595176.00000000 29946884.00000000 75504168.00000000 21719.23046875  2006086.37500000 1590481.12500000 
0.08800    46789144.00000000 29444568.00000000 74231664.00000000 21260.40234375  1967542.75000000 1560052.62500000 
0.08900    46004476.00000000 28956308.00000000 72993784.00000000 20812.39257812  1929952.00000000 1530387.87500000 
0.09000    45240512.00000000 28480916.00000000 71788792.00000000 20374.04296875  1893264.62500000 1501433.12500000 
0.09100    44496056.00000000 28018046.00000000 70615088.00000000 19945.07421875  1857425.25000000 1473165.00000000 
0.09200    43771280.00000000 27567486.00000000 69471688.00000000 19525.16210938  1822406.87500000 1445549.87500000 
0.09300    43064428.00000000 27128636.00000000 68357408.00000000 19113.65039062  1788199.37500000 1418553.12500000 
0.09400    42375640.00000000 26700960.00000000 67271904.00000000 18710.33984375  1754702.37500000 1392160.75000000 
0.09500    41703480.00000000 26284240.00000000 66213268.00000000 18314.79101562  1721933.50000000 1366320.12500000 
0.09600    41047968.00000000 25878052.00000000 65180928.00000000 17926.63281250  1689859.50000000 1341011.37500000 
0.09700    40408456.00000000 25481748.00000000 64174128.00000000 17545.72460938  1658418.37500000 1316235.75000000 
0.09800    39783452.00000000 25095076.00000000 63190804.00000000 17171.41992188  1627581.62500000 1291931.75000000 
0.09900    39173332.00000000 24717606.00000000 62230600.00000000 16803.85546875  1597342.50000000 1268085.37500000 
0.10000    38576744.00000000 24348824.00000000 61292732.00000000 16442.47265625  1567652.75000000 1244679.37500000 
0.10100    37993092.00000000 23988426.00000000 60375068.00000000 16087.13964844  1538480.12500000 1221695.25000000 
0.10200    37422104.00000000 23635918.00000000 59477476.00000000 15737.58300781  1509825.00000000 1199098.75000000 
0.10300    36862744.00000000 23291114.00000000 58599124.00000000 15393.81152344  1481627.00000000 1176888.25000000 
0.10400    36314976.00000000 22953542.00000000 57739316.00000000 15055.55761719  1453909.37500000 1155021.62500000 
0.10500    35778556.00000000 22622952.00000000 56896600.00000000 14722.82324219  1426620.87500000 1133518.50000000 
0.10600    35251888.00000000 22298846.00000000 56069764.00000000 14395.20898438  1399734.75000000 1112315.25000000 
0.10700    34735008.00000000 21980876.00000000 55259092.00000000 14072.89453125  1373267.62500000 1091442.87500000 
0.10800    34227804.00000000 21668854.00000000 54462852.00000000 13755.65917969  1347178.87500000 1070860.37500000 
0.10900    33729088.00000000 21362482.00000000 53680956.00000000 13443.45898438  1321458.25000000 1050565.87500000 
0.11000    33239134.00000000 21061480.00000000 52912380.00000000 13136.28320312  1296081.37500000 1030547.25000000 
0.11100    32757014.00000000 20765308.00000000 52156864.00000000 12833.98925781  1271057.87500000 1010800.37500000 
0.11200    32282610.00000000 20474066.00000000 51413032.00000000 12536.73632812  1246372.12500000 991298.56250000 
0.11300    31815618.00000000 20187236.00000000 50680544.00000000 12244.30371094  1222007.50000000 972060.75000000 
0.11400    31355128.00000000 19904976.00000000 49959256.00000000 11956.78710938  1197960.75000000 953061.93750000 
0.11500    30901756.00000000 19626550.00000000 49248392.00000000 11674.10937500  1174222.50000000 934305.62500000 
0.11600    30454176.00000000 19352118.00000000 48547608.00000000 11396.52636719  1150785.12500000 915781.31250000 
0.11700    30013016.00000000 19081480.00000000 47855900.00000000 11123.69824219  1127660.12500000 897486.75000000 
0.11800    29577508.00000000 18814300.00000000 47173340.00000000 10855.67480469  1104813.50000000 879412.87500000 
0.11900    29147490.00000000 18550280.00000000 46498924.00000000 10592.78515625  1082267.12500000 861563.68750000 
0.12000    28722762.00000000 18289540.00000000 45833048.00000000 10334.62695312  1060002.25000000 843939.37500000 
0.12100    28303026.00000000 18031910.00000000 45175200.00000000 10081.62792969  1038042.25000000 826537.87500000 
0.12200    27888302.00000000 17777266.00000000 44524820.00000000 9833.45312500   1016353.87500000 809351.18750000 
0.12300    27478466.00000000 17525544.00000000 43881852.00000000 9590.42382812   994963.62500000 792387.50000000 
0.12400    27073044.00000000 17276426.00000000 43245660.00000000 9352.19824219   973848.81250000 775634.87500000 
0.12500    26671904.00000000 17029850.00000000 42616424.00000000 9119.04394531   953026.43750000 759104.62500000 
0.12600    26275438.00000000 16785916.00000000 41994316.00000000 8890.97656250   932484.00000000 742795.31250000 
0.12700    25883130.00000000 16544240.00000000 41378036.00000000 8667.73730469   912240.25000000 726703.75000000 
0.12800    25494860.00000000 16305095.00000000 40768508.00000000 8449.53027344   892279.56250000 710841.75000000 
0.12900    25110630.00000000 16068291.00000000 40164680.00000000 8236.27050781   872610.18750000 695195.00000000 
0.13000    24730636.00000000 15833710.00000000 39567084.00000000 8028.00781250   853238.56250000 679773.68750000 
0.13100    24354106.00000000 15601391.00000000 38975752.00000000 7824.62890625   834150.93750000 664581.12500000 
0.13200    23981904.00000000 15371161.00000000 38389752.00000000 7626.16210938   815360.12500000 649608.43750000 
0.13300    23613280.00000000 15143221.00000000 37809764.00000000 7432.46826172   796871.81250000 634873.68750000 
0.13400    23248550.00000000 14917351.00000000 37235172.00000000 7243.64599609   778677.18750000 620361.56250000 
0.13500    22887626.00000000 14693580.00000000 36666700.00000000 7059.58789062   760773.75000000 606078.81250000 
0.13600    22530310.00000000 14472048.00000000 36103604.00000000 6880.12841797   743175.25000000 592032.56250000 
0.13700    22177086.00000000 14252591.00000000 35546480.00000000 6705.37939453   725874.18750000 578216.75000000 
0.13800    21827344.00000000 14035231.00000000 34994432.00000000 6535.16113281   708877.75000000 564630.37500000 
0.13900    21481338.00000000 13819873.00000000 34448528.00000000 6369.35742188   692176.12500000 551283.62500000 
0.14000    21139038.00000000 13606673.00000000 33908052.00000000 6208.00439453   675782.37500000 538166.18750000 
0.14100    20800620.00000000 13395625.00000000 33373124.00000000 6051.04345703   659686.37500000 525287.12500000 
0.14200    20465908.00000000 13186555.00000000 32843900.00000000 5898.19482422   643888.75000000 512644.96875000 
0.14300    20134942.00000000 12979731.00000000 32320194.00000000 5749.52441406   628396.06250000 500236.43750000 
0.14400    19807732.00000000 12774888.00000000 31802210.00000000 5604.92480469   613183.87500000 488055.81250000 
0.14500    19484362.00000000 12572243.00000000 31290162.00000000 5464.19628906   598286.68750000 476113.31250000 
0.14600    19164798.00000000 12371817.00000000 30783556.00000000 5327.31298828   583674.87500000 464401.09375000 
0.14700    18848984.00000000 12173553.00000000 30282936.00000000 5194.11962891   569357.00000000 452919.40625000 
0.14800    18537080.00000000 11977371.00000000 29787950.00000000 5064.61376953   555330.68750000 441668.59375000 
0.14900    18228838.00000000 11783380.00000000 29298742.00000000 4938.53125000   541594.87500000 430642.53125000 
0.15000    17924402.00000000 11591520.00000000 28815510.00000000 4815.88330078   528131.68750000 419846.15625000 
0.15100    17623946.00000000 11401979.00000000 28337926.00000000 4696.57714844   514959.59375000 409269.62500000 
0.15200    17327390.00000000 11214642.00000000 27866192.00000000 4580.41210938   502070.00000000 398919.25000000 
0.15300    17034614.00000000 11029506.00000000 27400380.00000000 4467.32958984   489447.68750000 388785.65625000 
0.15400    16745638.00000000 10846668.00000000 26940512.00000000 4357.15917969   477097.21875000 378862.90625000 
0.15500    16460663.00000000 10666057.00000000 26486406.00000000 4249.94335938   465014.84375000 369160.37500000 
0.15600    16179251.00000000 10487644.00000000 26038292.00000000 4145.37011719   453189.09375000 359661.68750000 
0.15700    15902008.00000000 10311550.00000000 25596236.00000000 4043.53125000   441626.96875000 350376.15625000 
0.15800    15628324.00000000 10137587.00000000 25159912.00000000 3944.18359375   430316.09375000 341288.46875000 
0.15900    15358630.00000000 9965995.00000000 24729368.00000000 3847.36572266   419256.75000000 332404.12500000 
0.16000    15092643.00000000 9796653.00000000 24304968.00000000 3752.88647461   408435.00000000 323711.68750000 
0.16100    14830706.00000000 9629670.00000000 23886330.00000000 3660.71923828   397857.00000000 315217.65625000 
0.16200    14572332.00000000 9464895.00000000 23473822.00000000 3570.72338867   387514.93750000 306908.90625000 
0.16300    14317773.00000000 9302456.00000000 23067042.00000000 3482.85083008   377398.90625000 298786.87500000 
0.16400    14066965.00000000 9142231.00000000 22665778.00000000 3397.01000977   367509.03125000 290845.78125000 
0.16500    13819918.00000000 8984216.00000000 22270664.00000000 3313.16894531   357834.12500000 283079.31250000 
0.16600    13576610.00000000 8828485.00000000 21881402.00000000 3231.20214844   348374.93750000 275491.03125000 
0.16700    13336875.00000000 8674978.00000000 21497878.00000000 3151.04003906   339127.81250000 268068.53125000 
0.16800    13100830.00000000 8523766.00000000 21119762.00000000 3072.68945312   330082.78125000 260815.03125000 
0.16900    12868490.00000000 8374655.50000000 20747556.00000000 2996.07763672   321239.46875000 253723.26562500 
0.17000    12639626.00000000 8227847.50000000 20380814.00000000 2921.12036133   312586.40625000 246788.71875000 
