# SAXS profile: number of points = 501, q_min = 0, q_max = 0.5, delta_q = 0.001
#    q    intensity 
0.00000    162233440.00000000 101202344.00000000 256269888.00000000 106454.34375000 8311692.00000000 6564565.50000000 
0.00100    162194096.00000000 101175640.00000000 256205392.00000000 106420.10156250 8309306.50000000 6562673.50000000 
0.00200    162074368.00000000 101098528.00000000 256009152.00000000 106319.36718750 8302161.50000000 6557037.00000000 
0.00300    161871088.00000000 100969488.00000000 255682512.00000000 106150.82031250 8290172.50000000 6547636.50000000 
0.00400    161579504.00000000 100789680.00000000 255224272.00000000 105915.60937500 8273476.00000000 6534472.50000000 
0.00500    161203968.00000000 100558344.00000000 254636000.00000000 105613.92187500 8252081.50000000 6517629.00000000 
0.00600    160749136.00000000 100275512.00000000 253919184.00000000 105246.78906250 8225998.50000000 6497072.50000000 
0.00700    160208304.00000000 99943696.00000000 253077392.00000000 104814.70312500 8195354.00000000 6472926.00000000 
0.00800    159589200.00000000 99563896.00000000 252110048.00000000 104318.99218750 8160103.00000000 6445208.50000000 
0.00900    158895664.00000000 99135600.00000000 251016432.00000000 103760.53125000 8120366.50000000 6413930.00000000 
0.01000    158126656.00000000 98658560.00000000 249803888.00000000 103140.75000000 8076249.50000000 6379191.50000000 
0.01100    157282160.00000000 98133504.00000000 248469712.00000000 102460.02343750 8027833.50000000 6341038.00000000 
0.01200    156358608.00000000 97562376.00000000 247018848.00000000 101721.56250000 7975170.50000000 6299590.00000000 
0.01300    155361952.00000000 96945936.00000000 245453184.00000000 100925.59375000 7918502.50000000 6254885.00000000 
0.01400    154296416.00000000 96285744.00000000 243776832.00000000 100074.17187500 7857721.00000000 6207080.50000000 
0.01500    153162400.00000000 95583656.00000000 241990240.00000000 99169.43750000  7793115.00000000 6156216.50000000 
0.01600    151959904.00000000 94839896.00000000 240098272.00000000 98213.45312500  7724743.00000000 6102355.00000000 
0.01700    150692896.00000000 94054624.00000000 238104080.00000000 97207.11718750  7652781.50000000 6045675.00000000 
0.01800    149363344.00000000 93231840.00000000 236011120.00000000 96154.35156250  7577331.50000000 5986215.00000000 
0.01900    147971856.00000000 92370320.00000000 233823520.00000000 95055.64843750  7498508.00000000 5924148.50000000 
0.02000    146524416.00000000 91473448.00000000 231543264.00000000 93914.46875000  7416555.50000000 5859594.50000000 
0.02100    145021024.00000000 90542192.00000000 229176720.00000000 92732.43750000  7331571.50000000 5792626.50000000 
0.02200    143464384.00000000 89577584.00000000 226724864.00000000 91512.29687500  7243667.00000000 5723380.50000000 
0.02300    141856560.00000000 88581952.00000000 224194944.00000000 90256.02343750  7153112.00000000 5652049.00000000 
0.02400    140202352.00000000 87556000.00000000 221587408.00000000 88967.14062500  7059987.00000000 5578653.00000000 
0.02500    138502032.00000000 86502256.00000000 218912064.00000000 87647.27343750  6964552.50000000 5503419.00000000 
0.02600    136759616.00000000 85421584.00000000 216169120.00000000 86298.32812500  6866813.50000000 5426447.00000000 
0.02700    134977904.00000000 84317104.00000000 213362896.00000000 84924.21093750  6767109.50000000 5347835.50000000 
0.02800    133160320.00000000 83189752.00000000 210499520.00000000 83526.97656250  6665487.00000000 5267755.00000000 
0.02900    131309048.00000000 82041488.00000000 207583456.00000000 82108.87500000  6562280.00000000 5186362.00000000 
0.03000    129427296.00000000 80873016.00000000 204616400.00000000 80672.60156250  6457467.00000000 5103731.00000000 
0.03100    127516992.00000000 79687344.00000000 201608448.00000000 79221.12500000  6351324.50000000 5020091.50000000 
0.03200    125581632.00000000 78486712.00000000 198559184.00000000 77756.50000000  6244033.00000000 4935515.50000000 
0.03300    123624456.00000000 77271960.00000000 195474496.00000000 76281.30468750  6135767.50000000 4850139.00000000 
0.03400    121647736.00000000 76045184.00000000 192360032.00000000 74797.76562500  6026679.50000000 4764147.00000000 
0.03500    119655256.00000000 74808128.00000000 189219232.00000000 73308.09375000  5916954.00000000 4677589.50000000 
0.03600    117649040.00000000 73562352.00000000 186056496.00000000 71815.35156250  5806664.50000000 4590642.50000000 
0.03700    115632072.00000000 72309088.00000000 182877520.00000000 70322.25781250  5696104.00000000 4503409.00000000 
0.03800    113607904.00000000 71050720.00000000 179685600.00000000 68829.01562500  5585345.50000000 4416069.50000000 
0.03900    111577216.00000000 69789096.00000000 176483632.00000000 67339.35937500  5474570.50000000 4328657.00000000 
0.04000    109544536.00000000 68525216.00000000 173278688.00000000 65855.10937500  5363914.00000000 4241353.50000000 
0.04100    107512144.00000000 67262024.00000000 170072928.00000000 64377.67968750  5253538.50000000 4154262.00000000 
0.04200    105482688.00000000 65998784.00000000 166872736.00000000 62909.89062500  5143574.00000000 4067500.50000000 
0.04300    103457864.00000000 64739012.00000000 163677648.00000000 61452.91796875  5034183.50000000 3981163.25000000 
0.04400    101440808.00000000 63483984.00000000 160495264.00000000 60008.81640625  4925463.50000000 3895374.75000000 
0.04500    99433520.00000000 62235008.00000000 157327504.00000000 58578.96484375  4817547.50000000 3810214.25000000 
0.04600    97437664.00000000 60993096.00000000 154179296.00000000 57164.80859375  4710559.00000000 3725780.00000000 
0.04700    95457328.00000000 59759496.00000000 151052112.00000000 55768.76171875  4604617.00000000 3642139.00000000 
0.04800    93491944.00000000 58535832.00000000 147951776.00000000 54390.73828125  4499849.50000000 3559411.00000000 
0.04900    91545176.00000000 57323560.00000000 144877552.00000000 53033.08203125  4396314.00000000 3477694.00000000 
0.05000    89619272.00000000 56123420.00000000 141838512.00000000 51696.68359375  4294134.00000000 3396985.25000000 
0.05100    87714568.00000000 54936468.00000000 138831312.00000000 50382.39453125  4193361.75000000 3317437.00000000 
0.05200    85834160.00000000 53764812.00000000 135862976.00000000 49091.11718750  4094175.50000000 3239070.75000000 
0.05300    83978536.00000000 52608256.00000000 132933864.00000000 47824.25390625  3996555.00000000 3161963.25000000 
0.05400    82149408.00000000 51468224.00000000 130045904.00000000 46582.25781250  3900576.25000000 3086165.75000000 
0.05500    80349064.00000000 50345508.00000000 127202112.00000000 45364.96093750  3806318.00000000 3011701.50000000 
0.05600    78578280.00000000 49241500.00000000 124404744.00000000 44174.46875000  3713861.25000000 2938672.50000000 
0.05700    76837904.00000000 48155836.00000000 121654864.00000000 43010.13281250  3623210.75000000 2867055.75000000 
0.05800    75128936.00000000 47090008.00000000 118957200.00000000 41873.41015625  3534457.75000000 2796930.50000000 
0.05900    73453000.00000000 46044660.00000000 116310152.00000000 40763.00781250  3447622.75000000 2728320.50000000 
0.06000    71810784.00000000 45019816.00000000 113715176.00000000 39680.40234375  3362710.75000000 2661229.00000000 
0.06100    70203392.00000000 44017044.00000000 111175008.00000000 38625.54296875  3279762.50000000 2595699.25000000 
0.06200    68630248.00000000 43035472.00000000 108690176.00000000 37598.06640625  3198806.25000000 2531720.50000000 
0.06300    67093540.00000000 42076248.00000000 106262112.00000000 36598.07421875  3119879.50000000 2469353.75000000 
0.06400    65592396.00000000 41139652.00000000 103890008.00000000 35625.73437500  3042932.25000000 2408542.00000000 
0.06500    64127992.00000000 40225692.00000000 101576664.00000000 34680.52734375  2968013.50000000 2349319.50000000 
0.06600    62700348.00000000 39334680.00000000 99320888.00000000 33762.26562500  2895095.25000000 2291716.25000000 
0.06700    61309812.00000000 38467068.00000000 97123856.00000000 32871.29296875  2824183.50000000 2235675.75000000 
0.06800    59956336.00000000 37622500.00000000 94985712.00000000 32006.29882812  2755271.00000000 2181198.75000000 
0.06900    58640108.00000000 36801128.00000000 92906488.00000000 31167.66992188  2688345.50000000 2128319.50000000 
0.07000    57360832.00000000 36003272.00000000 90885784.00000000 30354.58203125  2623358.25000000 2076955.75000000 
0.07100    56118860.00000000 35228572.00000000 88924032.00000000 29566.37304688  2560318.00000000 2027161.25000000 
0.07200    54913656.00000000 34476780.00000000 87021224.00000000 28803.32812500  2499191.50000000 1978863.00000000 
0.07300    53745312.00000000 33748412.00000000 85175632.00000000 28063.94140625  2439916.00000000 1932041.62500000 
0.07400    52612900.00000000 33042768.00000000 83387048.00000000 27348.17578125  2382513.75000000 1886687.12500000 
0.07500    51516088.00000000 32359468.00000000 81655888.00000000 26655.12695312  2326914.50000000 1842773.62500000 
0.07600    50455132.00000000 31698510.00000000 79980712.00000000 25984.19726562  2273105.00000000 1800246.37500000 
0.07700    49428676.00000000 31059378.00000000 78360616.00000000 25335.00781250  2221002.00000000 1759112.75000000 
0.07800    48436204.00000000 30441896.00000000 76795328.00000000 24706.88867188  2170601.00000000 1719301.87500000 
0.07900    47477696.00000000 29845538.00000000 75283152.00000000 24098.56835938  2121808.50000000 1680796.62500000 
0.08000    46551996.00000000 29270072.00000000 73822720.00000000 23510.15234375  2074645.62500000 1643555.37500000 
0.08100    45659140.00000000 28715098.00000000 72414864.00000000 22940.47460938  2029011.25000000 1607552.62500000 
0.08200    44797136.00000000 28179738.00000000 71056160.00000000 22388.96679688  1984891.50000000 1572736.00000000 
0.08300    43965380.00000000 27664018.00000000 69745912.00000000 21854.87890625  1942218.50000000 1539072.12500000 
0.08400    43164400.00000000 27167326.00000000 68484512.00000000 21337.51953125  1900968.12500000 1506526.00000000 
0.08500    42391748.00000000 26688822.00000000 67267960.00000000 20836.45898438  1861048.50000000 1475043.00000000 
0.08600    41647676.00000000 26228228.00000000 66097268.00000000 20350.76171875  1822432.25000000 1444603.37500000 
0.08700    40930848.00000000 25785016.00000000 64969764.00000000 19880.19335938  1785082.50000000 1415143.50000000 
0.08800    40240120.00000000 25358284.00000000 63883944.00000000 19423.53125000  1748915.87500000 1386633.62500000 
0.08900    39575336.00000000 24948012.00000000 62839036.00000000 18980.37109375  1713908.25000000 1359050.50000000 
0.09000    38934272.00000000 24553016.00000000 61832788.00000000 18550.27148438  1680009.50000000 1332346.00000000 
0.09100    38317164.00000000 24173180.00000000 60863972.00000000 18132.70898438  1647152.25000000 1306479.62500000 
0.09200    37722860.00000000 23807646.00000000 59931620.00000000 17726.80078125  1615306.62500000 1281397.50000000 
0.09300    37149696.00000000 23455936.00000000 59033944.00000000 17332.43359375  1584437.50000000 1257081.12500000 
0.09400    36598128.00000000 23117398.00000000 58168740.00000000 16948.58789062  1554454.75000000 1233501.25000000 
0.09500    36065728.00000000 22791338.00000000 57335620.00000000 16575.08984375  1525344.37500000 1210597.75000000 
0.09600    35552576.00000000 22477440.00000000 56532724.00000000 16211.52050781  1497078.75000000 1188351.87500000 
0.09700    35057564.00000000 22174944.00000000 55758060.00000000 15857.26855469  1469601.25000000 1166744.12500000 
0.09800    34579032.00000000 21883352.00000000 55011016.00000000 15512.07031250  1442856.12500000 1145697.62500000 
0.09900    34117340.00000000 21601964.00000000 54289892.00000000 15175.37109375  1416820.75000000 1125230.12500000 
0.10000    33670356.00000000 21330594.00000000 53593004.00000000 14846.84863281  1391454.00000000 1105280.00000000 
0.10100    33238200.00000000 21067878.00000000 52918928.00000000 14526.10839844  1366714.25000000 1085834.00000000 
0.10200    32819968.00000000 20814104.00000000 52266896.00000000 14212.97070312  1342589.37500000 1066863.25000000 
0.10300    32414214.00000000 20568426.00000000 51635180.00000000 13907.10156250  1318999.00000000 1048327.37500000 
0.10400    32020406.00000000 20330334.00000000 51022480.00000000 13608.00097656  1295963.50000000 1030216.81250000 
0.10500    31638128.00000000 20099166.00000000 50427588.00000000 13315.82226562  1273437.75000000 1012499.87500000 
0.10600    31266260.00000000 19874756.00000000 49849264.00000000 13029.84960938  1251376.75000000 995153.25000000 
0.10700    30904194.00000000 19656586.00000000 49286652.00000000 12750.11328125  1229776.37500000 978170.31250000 
0.10800    30551352.00000000 19443820.00000000 48738716.00000000 12476.32226562  1208593.75000000 961511.87500000 
0.10900    30206588.00000000 19236662.00000000 48204060.00000000 12208.38964844  1187822.12500000 945163.25000000 
0.11000    29870150.00000000 19034162.00000000 47681380.00000000 11946.09472656  1167416.50000000 929117.87500000 
0.11100    29540616.00000000 18835852.00000000 47170248.00000000 11689.17089844  1147380.75000000 913351.62500000 
0.11200    29217950.00000000 18641878.00000000 46669260.00000000 11437.58984375  1127679.12500000 897845.50000000 
0.11300    28901376.00000000 18451450.00000000 46177620.00000000 11191.17382812  1108316.87500000 882593.12500000 
0.11400    28590068.00000000 18264748.00000000 45694604.00000000 10949.94824219  1089254.25000000 867577.62500000 
0.11500    28283996.00000000 18080678.00000000 45219660.00000000 10713.43847656  1070488.62500000 852791.62500000 
0.11600    27982382.00000000 17899392.00000000 44751884.00000000 10481.94433594  1052008.00000000 838216.43750000 
0.11700    27685116.00000000 17720596.00000000 44290184.00000000 10255.17187500  1033785.68750000 823844.93750000 
0.11800    27391490.00000000 17543942.00000000 43834444.00000000 10032.89550781  1015824.93750000 809668.56250000 
0.11900    27101082.00000000 17368986.00000000 43383384.00000000 9815.27636719   998109.93750000 795683.43750000 
0.12000    26813712.00000000 17195844.00000000 42936716.00000000 9602.19531250   980633.25000000 781875.50000000 
0.12100    26529134.00000000 17023982.00000000 42494404.00000000 9393.52148438   963395.75000000 768244.18750000 
0.12200    26246970.00000000 16853514.00000000 42055168.00000000 9189.24316406   946375.75000000 754778.37500000 
0.12300    25966516.00000000 16684048.00000000 41619024.00000000 8989.16210938   929563.06250000 741479.87500000 
0.12400    25688204.00000000 16515373.00000000 41185028.00000000 8793.41113281   912963.68750000 728339.68750000 
0.12500    25411602.00000000 16347329.00000000 40753564.00000000 8601.74121094   896574.68750000 715347.00000000 
0.12600    25136206.00000000 16179878.00000000 40323848.00000000 8414.28710938   880386.25000000 702512.12500000 
0.12700    24862012.00000000 16012942.00000000 39895572.00000000 8230.75976562   864397.93750000 689821.37500000 
0.12800    24588874.00000000 15846293.00000000 39468404.00000000 8051.24658203   848602.43750000 677278.06250000 
0.12900    24316650.00000000 15679892.00000000 39042684.00000000 7875.69775391   832995.00000000 664882.68750000 
0.13000    24044988.00000000 15513519.00000000 38617380.00000000 7704.02832031   817575.56250000 652621.18750000 
0.13100    23774180.00000000 15347191.00000000 38192656.00000000 7536.09179688   802353.12500000 640510.18750000 
0.13200    23503910.00000000 15180929.00000000 37768300.00000000 7371.95898438   787304.87500000 628531.43750000 
0.13300    23234270.00000000 15014678.00000000 37344360.00000000 7211.49560547   772449.31250000 616692.06250000 
0.13400    22964928.00000000 14848276.00000000 36921012.00000000 7054.57177734   757779.00000000 604994.18750000 
0.13500    22695860.00000000 14681687.00000000 36497056.00000000 6901.26220703   743288.56250000 593427.50000000 
0.13600    22427136.00000000 14515048.00000000 36073696.00000000 6751.39794922   728980.31250000 582009.75000000 
0.13700    22158882.00000000 14348313.00000000 35650736.00000000 6604.91406250   714845.81250000 570723.06250000 
0.13800    21890892.00000000 14181411.00000000 35227500.00000000 6461.77197266   700904.75000000 559575.12500000 
0.13900    21623174.00000000 14014234.00000000 34804136.00000000 6321.88623047   687141.06250000 548561.75000000 
0.14000    21355976.00000000 13847012.00000000 34381244.00000000 6185.24365234   673558.06250000 537691.50000000 
0.14100    21088908.00000000 13679726.00000000 33958476.00000000 6051.61669922   660157.62500000 526961.25000000 
0.14200    20822330.00000000 13512311.00000000 33536092.00000000 5921.01562500   646926.37500000 516367.93750000 
0.14300    20556250.00000000 13344809.00000000 33113712.00000000 5793.43017578   633890.81250000 505910.65625000 
0.14400    20290484.00000000 13177338.00000000 32691666.00000000 5668.64990234   621027.87500000 495593.90625000 
0.14500    20025580.00000000 13009872.00000000 32270146.00000000 5546.71533203   608353.50000000 485416.53125000 
0.14600    19760970.00000000 12842523.00000000 31849228.00000000 5427.47607422   595841.93750000 475383.06250000 
0.14700    19497362.00000000 12675285.00000000 31429224.00000000 5310.92822266   583526.62500000 465483.34375000 
0.14800    19234250.00000000 12508241.00000000 31009702.00000000 5196.88378906   571383.81250000 455727.12500000 
0.14900    18971910.00000000 12341397.00000000 30591106.00000000 5085.38867188   559420.81250000 446109.09375000 
0.15000    18710572.00000000 12174749.00000000 30173752.00000000 4976.25439453   547632.43750000 436630.37500000 
0.15100    18450136.00000000 12008553.00000000 29757482.00000000 4869.43701172   536028.12500000 427293.53125000 
0.15200    18190766.00000000 11842775.00000000 29342764.00000000 4764.96875000   524598.81250000 418098.34375000 
0.15300    17932634.00000000 11677404.00000000 28929592.00000000 4662.65185547   513345.93750000 409039.15625000 
0.15400    17675524.00000000 11512514.00000000 28517762.00000000 4562.46289062   502267.25000000 400118.37500000 
0.15500    17419840.00000000 11348313.00000000 28107746.00000000 4464.32080078   491364.78125000 391342.00000000 
0.15600    17165170.00000000 11184760.00000000 27699510.00000000 4368.22363281   480634.87500000 382700.00000000 
0.15700    16912164.00000000 11021908.00000000 27293708.00000000 4274.12011719   470083.31250000 374199.25000000 
0.15800    16661015.00000000 10859753.00000000 26889868.00000000 4181.77783203   459698.65625000 365831.09375000 
0.15900    16411036.00000000 10698620.00000000 26488424.00000000 4091.29858398   449487.43750000 357601.81250000 
0.16000    16162718.00000000 10538131.00000000 26089052.00000000 4002.55566406   439441.84375000 349510.21875000 
0.16100    15916273.00000000 10378737.00000000 25692822.00000000 3915.58471680   429570.37500000 341555.28125000 
0.16200    15671517.00000000 10220390.00000000 25298870.00000000 3830.26416016   419862.75000000 333733.62500000 
0.16300    15428632.00000000 10062984.00000000 24907966.00000000 3746.54907227   410319.34375000 326045.25000000 
0.16400    15187751.00000000 9906766.00000000 24520026.00000000 3664.44824219   400943.53125000 318489.96875000 
0.16500    14948822.00000000 9751736.00000000 24135110.00000000 3583.90234375   391727.65625000 311069.46875000 
0.16600    14712055.00000000 9597942.00000000 23753274.00000000 3504.80517578   382677.53125000 303775.81250000 
0.16700    14477370.00000000 9445239.00000000 23374830.00000000 3427.19067383   373784.12500000 296611.90625000 
0.16800    14244783.00000000 9293983.00000000 22999904.00000000 3351.01489258   365043.46875000 289576.28125000 
0.16900    14014477.00000000 9144069.00000000 22628312.00000000 3276.27343750   356468.31250000 282668.81250000 
0.17000    13786470.00000000 8995506.00000000 22260124.00000000 3202.89062500   348039.09375000 275888.18750000 
