# SAXS profile: number of points = 501, q_min = 0, q_max = 0.5, delta_q = 0.001
#    q    intensity 
0.00000    162237872.00000000 101201464.00000000 256271952.00000000 92366.46875000  7742219.50000000 6114798.50000000 
0.00100    162213216.00000000 101186288.00000000 256232320.00000000 92347.01562500  7740796.50000000 6113669.50000000 
0.00200    162139392.00000000 101140464.00000000 256115168.00000000 92288.37500000  7736517.50000000 6110285.00000000 
0.00300    162014592.00000000 101063464.00000000 255918832.00000000 92190.35156250  7729374.50000000 6104679.00000000 
0.00400    161839936.00000000 100956008.00000000 255644768.00000000 92053.80468750  7719388.50000000 6096852.00000000 
0.00500    161615632.00000000 100818400.00000000 255293120.00000000 91877.99218750  7706544.50000000 6086810.00000000 
0.00600    161341632.00000000 100649920.00000000 254863344.00000000 91663.50781250  7690886.50000000 6074511.00000000 
0.00700    161017440.00000000 100451480.00000000 254356480.00000000 91411.13281250  7672422.50000000 6060034.00000000 
0.00800    160644144.00000000 100222696.00000000 253772896.00000000 91120.47656250  7651224.00000000 6043357.00000000 
0.00900    160223520.00000000 99964624.00000000 253113744.00000000 90792.08593750  7627210.00000000 6024536.50000000 
0.01000    159752704.00000000 99676528.00000000 252378640.00000000 90426.43750000  7600473.50000000 6003544.50000000 
0.01100    159235248.00000000 99360088.00000000 251568416.00000000 90024.12500000  7571041.50000000 5980461.00000000 
0.01200    158670912.00000000 99013928.00000000 250684528.00000000 89585.33593750  7538938.00000000 5955276.00000000 
0.01300    158060016.00000000 98639296.00000000 249727568.00000000 89110.72656250  7504166.00000000 5927980.50000000 
0.01400    157403632.00000000 98236176.00000000 248698400.00000000 88600.82812500  7466794.50000000 5898655.50000000 
0.01500    156701856.00000000 97805192.00000000 247598576.00000000 88056.56250000  7426873.50000000 5867318.00000000 
0.01600    155953968.00000000 97346696.00000000 246426352.00000000 87478.46875000  7384444.00000000 5834030.50000000 
0.01700    155161232.00000000 96860880.00000000 245185584.00000000 86867.07031250  7339527.50000000 5798767.50000000 
0.01800    154326080.00000000 96348464.00000000 243877728.00000000 86223.00000000  7292212.00000000 5761606.50000000 
0.01900    153449008.00000000 95809032.00000000 242501984.00000000 85546.96093750  7242516.00000000 5722588.00000000 
0.02000    152529360.00000000 95244504.00000000 241060352.00000000 84840.04687500  7190456.00000000 5681725.50000000 
0.02100    151568768.00000000 94654936.00000000 239555936.00000000 84103.43750000  7136160.50000000 5639093.00000000 
0.02200    150567824.00000000 94041240.00000000 237987792.00000000 83337.14062500  7079615.50000000 5594710.00000000 
0.02300    149528400.00000000 93402912.00000000 236358592.00000000 82542.38281250  7020968.00000000 5548654.50000000 
0.02400    148449904.00000000 92740688.00000000 234668832.00000000 81720.44531250  6960194.50000000 5500955.00000000 
0.02500    147335120.00000000 92055896.00000000 232919888.00000000 80872.11718750  6897424.50000000 5451637.50000000 
0.02600    146183536.00000000 91348656.00000000 231115280.00000000 79998.32812500  6832695.00000000 5400803.50000000 
0.02700    144996960.00000000 90619360.00000000 229255808.00000000 79099.83593750  6766026.50000000 5348437.00000000 
0.02800    143775792.00000000 89869496.00000000 227341632.00000000 78177.45312500  6697544.00000000 5294649.50000000 
0.02900    142522160.00000000 89098808.00000000 225375520.00000000 77233.46093750  6627325.00000000 5239477.00000000 
0.03000    141237008.00000000 88309072.00000000 223360112.00000000 76267.48437500  6555375.50000000 5183011.50000000 
0.03100    139920144.00000000 87499408.00000000 221294784.00000000 75281.72656250  6481856.00000000 5125220.00000000 
0.03200    138573696.00000000 86671864.00000000 219184000.00000000 74276.36718750  6406764.50000000 5066235.00000000 
0.03300    137199152.00000000 85827152.00000000 217028144.00000000 73253.28906250  6330213.00000000 5006075.00000000 
0.03400    135797408.00000000 84964528.00000000 214828784.00000000 72212.98437500  6252269.00000000 4944853.00000000 
0.03500    134369856.00000000 84086336.00000000 212589088.00000000 71157.21093750  6173012.00000000 4882537.50000000 
0.03600    132916504.00000000 83192384.00000000 210309744.00000000 70086.08593750  6092498.00000000 4819285.50000000 
0.03700    131440608.00000000 82283896.00000000 207993664.00000000 69001.50000000  6010857.00000000 4755078.50000000 
0.03800    129941568.00000000 81361552.00000000 205641760.00000000 67905.10937500  5928096.50000000 4690024.50000000 
0.03900    128422032.00000000 80426072.00000000 203257808.00000000 66796.95312500  5844324.50000000 4624166.50000000 
0.04000    126882144.00000000 79477912.00000000 200841504.00000000 65678.91406250  5759612.00000000 4557581.50000000 
0.04100    125324224.00000000 78518168.00000000 198395200.00000000 64551.57421875  5674072.00000000 4490298.00000000 
0.04200    123749000.00000000 77547864.00000000 195921680.00000000 63416.36328125  5587752.00000000 4422396.50000000 
0.04300    122158064.00000000 76567040.00000000 193423344.00000000 62274.82031250  5500751.50000000 4353970.00000000 
0.04400    120551288.00000000 75577112.00000000 190901248.00000000 61127.41015625  5413135.50000000 4285029.00000000 
0.04500    118931600.00000000 74578496.00000000 188357328.00000000 59975.39843750  5324950.00000000 4215663.00000000 
0.04600    117299936.00000000 73572104.00000000 185794416.00000000 58820.19531250  5236309.00000000 4145926.25000000 
0.04700    115657176.00000000 72559120.00000000 183214864.00000000 57662.46093750  5147267.00000000 4075882.25000000 
0.04800    114004384.00000000 71539888.00000000 180618080.00000000 56503.82421875  5057976.00000000 4005573.25000000 
0.04900    112343848.00000000 70515016.00000000 178009216.00000000 55344.91406250  4968380.00000000 3935085.25000000 
0.05000    110676064.00000000 69485144.00000000 175387584.00000000 54186.61718750  4878686.00000000 3864449.75000000 
0.05100    109001648.00000000 68451680.00000000 172756656.00000000 53030.67968750  4788869.50000000 3793730.00000000 
0.05200    107322888.00000000 67414720.00000000 170117744.00000000 51877.46093750  4699049.00000000 3722983.75000000 
0.05300    105640848.00000000 66375056.00000000 167472336.00000000 50728.09765625  4609242.00000000 3652280.75000000 
0.05400    103956448.00000000 65334008.00000000 164824288.00000000 49583.48437500  4519597.00000000 3581671.25000000 
0.05500    102270408.00000000 64291700.00000000 162173072.00000000 48444.98828125  4430155.00000000 3511201.25000000 
0.05600    100585304.00000000 63249388.00000000 159521136.00000000 47312.91015625  4340951.50000000 3440924.00000000 
0.05700    98900584.00000000 62207252.00000000 156872192.00000000 46188.71484375  4252120.50000000 3370913.50000000 
0.05800    97218400.00000000 61166192.00000000 154225168.00000000 45072.68750000  4163645.00000000 3301164.50000000 
0.05900    95539552.00000000 60126960.00000000 151583072.00000000 43966.24218750  4075624.00000000 3231781.00000000 
0.06000    93865400.00000000 59090140.00000000 148948304.00000000 42869.67968750  3988149.75000000 3162793.50000000 
0.06100    92196920.00000000 58056376.00000000 146320640.00000000 41784.10937500  3901208.50000000 3094265.50000000 
0.06200    90534792.00000000 57026408.00000000 143703968.00000000 40710.06640625  3814930.00000000 3026198.75000000 
0.06300    88880664.00000000 56000816.00000000 141098496.00000000 39648.43750000  3729339.75000000 2958688.25000000 
0.06400    87233880.00000000 54979832.00000000 138505280.00000000 38599.51562500  3644477.75000000 2891716.25000000 
0.06500    85597824.00000000 53964684.00000000 135927120.00000000 37564.57421875  3560421.25000000 2825387.75000000 
0.06600    83972144.00000000 52955484.00000000 133366136.00000000 36543.87109375  3477199.75000000 2759686.00000000 
0.06700    82357368.00000000 51952940.00000000 130821272.00000000 35537.78906250  3394878.00000000 2694681.25000000 
0.06800    80755512.00000000 50957488.00000000 128295416.00000000 34547.07031250  3313489.50000000 2630423.50000000 
0.06900    79165944.00000000 49970148.00000000 125789824.00000000 33572.34765625  3233069.50000000 2566921.25000000 
0.07000    77589888.00000000 48990516.00000000 123305496.00000000 32614.04492188  3153687.00000000 2504194.25000000 
0.07100    76029384.00000000 48019888.00000000 120843128.00000000 31672.38281250  3075365.50000000 2442313.50000000 
0.07200    74484064.00000000 47058284.00000000 118405280.00000000 30747.99609375  2998127.75000000 2381267.00000000 
0.07300    72955280.00000000 46106652.00000000 115992416.00000000 29841.21679688  2922036.75000000 2321118.00000000 
0.07400    71442616.00000000 45164932.00000000 113605384.00000000 28952.38671875  2847106.25000000 2261881.50000000 
0.07500    69948032.00000000 44233624.00000000 111245840.00000000 28081.74804688  2773364.00000000 2203566.50000000 
0.07600    68471728.00000000 43313036.00000000 108913616.00000000 27229.49414062  2700866.50000000 2146203.25000000 
0.07700    67013696.00000000 42403972.00000000 106610680.00000000 26396.04492188  2629593.75000000 2089816.62500000 
0.07800    65574788.00000000 41506360.00000000 104338040.00000000 25581.61914062  2559608.00000000 2034430.25000000 
0.07900    64155880.00000000 40620744.00000000 102095464.00000000 24786.14257812  2490916.25000000 1980050.75000000 
0.08000    62757172.00000000 39747292.00000000 99884648.00000000 24010.02539062  2423528.50000000 1926702.25000000 
0.08100    61379200.00000000 38886480.00000000 97706408.00000000 23253.33007812  2357503.25000000 1874389.25000000 
0.08200    60022324.00000000 38038228.00000000 95560232.00000000 22515.86914062  2292795.00000000 1823122.00000000 
0.08300    58687192.00000000 37203056.00000000 93448608.00000000 21798.00781250  2229455.00000000 1772932.62500000 
0.08400    57373680.00000000 36381064.00000000 91370368.00000000 21099.60742188  2167483.00000000 1723813.87500000 
0.08500    56082572.00000000 35572792.00000000 89326832.00000000 20420.54492188  2106891.75000000 1675778.25000000 
0.08600    54813916.00000000 34778248.00000000 87318560.00000000 19760.96484375  2047696.37500000 1628817.75000000 
0.08700    53567892.00000000 33997292.00000000 85345624.00000000 19120.72265625  1989876.00000000 1582954.00000000 
0.08800    52345080.00000000 33230430.00000000 83408904.00000000 18499.85351562  1933441.75000000 1538192.25000000 
0.08900    51145396.00000000 32477754.00000000 81508504.00000000 17897.86132812  1878416.62500000 1494508.25000000 
0.09000    49969016.00000000 31739162.00000000 79643560.00000000 17315.10156250  1824786.00000000 1451922.75000000 
0.09100    48816208.00000000 31014990.00000000 77815960.00000000 16750.94140625  1772537.87500000 1410435.75000000 
0.09200    47686632.00000000 30305292.00000000 76025192.00000000 16205.52246094  1721686.50000000 1370028.37500000 
0.09300    46580940.00000000 29610066.00000000 74271736.00000000 15678.36914062  1672204.87500000 1330706.75000000 
0.09400    45499192.00000000 28929360.00000000 72555104.00000000 15169.35449219  1624102.50000000 1292467.00000000 
0.09500    44441048.00000000 28263102.00000000 70875232.00000000 14678.33007812  1577348.37500000 1255294.75000000 
0.09600    43406132.00000000 27611286.00000000 69233048.00000000 14204.78222656  1531963.62500000 1219193.00000000 
0.09700    42395368.00000000 26974234.00000000 67627904.00000000 13748.62109375  1487910.50000000 1184136.62500000 
0.09800    41408172.00000000 26351740.00000000 66059836.00000000 13309.46679688  1445183.50000000 1150123.00000000 
0.09900    40444304.00000000 25743512.00000000 64528388.00000000 12886.99707031  1403754.25000000 1117153.12500000 
0.10000    39503984.00000000 25149774.00000000 63033840.00000000 12480.63769531  1363625.37500000 1085180.50000000 
0.10100    38586988.00000000 24570410.00000000 61575828.00000000 12090.42382812  1324762.62500000 1054227.75000000 
0.10200    37692952.00000000 24005362.00000000 60154112.00000000 11715.73828125  1287163.50000000 1024260.56250000 
0.10300    36821908.00000000 23454358.00000000 58768124.00000000 11356.33789062  1250803.50000000 995273.75000000 
0.10400    35973192.00000000 22917426.00000000 57417968.00000000 11011.64160156  1215645.75000000 967238.93750000 
0.10500    35147648.00000000 22394628.00000000 56103732.00000000 10681.38671875  1181695.00000000 940154.50000000 
0.10600    34343868.00000000 21885290.00000000 54824200.00000000 10365.14648438  1148897.37500000 913983.18750000 
0.10700    33562016.00000000 21389780.00000000 53579388.00000000 10062.51660156  1117261.25000000 888723.06250000 
0.10800    32802118.00000000 20907790.00000000 52368780.00000000 9773.07519531   1086723.75000000 864354.43750000 
0.10900    32063606.00000000 20438830.00000000 51191604.00000000 9496.32812500   1057289.75000000 840840.37500000 
0.11000    31346090.00000000 19983294.00000000 50047660.00000000 9231.97363281   1028928.25000000 818178.62500000 
0.11100    30649350.00000000 19540522.00000000 48936988.00000000 8979.50488281   1001609.37500000 796343.37500000 
0.11200    29973124.00000000 19110460.00000000 47858236.00000000 8738.46289062   975297.81250000 775306.43750000 
0.11300    29316904.00000000 18693032.00000000 46811156.00000000 8508.48339844   949975.00000000 755058.93750000 
0.11400    28680054.00000000 18287802.00000000 45795292.00000000 8289.11718750   925616.43750000 735576.18750000 
0.11500    28062882.00000000 17894764.00000000 44809792.00000000 8079.86767578   902184.87500000 716828.12500000 
0.11600    27464470.00000000 17513442.00000000 43854540.00000000 7880.37207031   879655.43750000 698799.12500000 
0.11700    26884806.00000000 17144006.00000000 42928540.00000000 7690.25000000   858005.93750000 681462.81250000 
0.11800    26322858.00000000 16785586.00000000 42031220.00000000 7508.89941406   837190.25000000 664804.25000000 
0.11900    25778882.00000000 16438456.00000000 41161912.00000000 7336.07373047   817202.31250000 648789.81250000 
0.12000    25251996.00000000 16102232.00000000 40319644.00000000 7171.31689453   797989.62500000 633402.12500000 
0.12100    24742164.00000000 15776484.00000000 39504656.00000000 7014.27880859   779548.00000000 618625.93750000 
0.12200    24248638.00000000 15461252.00000000 38715608.00000000 6864.43212891   761830.18750000 604425.56250000 
0.12300    23771046.00000000 15156075.00000000 37951824.00000000 6721.51074219   744814.75000000 590790.43750000 
0.12400    23308866.00000000 14860651.00000000 37212868.00000000 6585.00585938   728469.62500000 577693.31250000 
0.12500    22862054.00000000 14574804.00000000 36497672.00000000 6454.57568359   712770.12500000 565105.25000000 
0.12600    22429898.00000000 14298300.00000000 35806156.00000000 6330.03173828   697692.06250000 553019.18750000 
0.12700    22011744.00000000 14030797.00000000 35137340.00000000 6210.77246094   683197.37500000 541406.12500000 
0.12800    21607414.00000000 13772071.00000000 34490164.00000000 6096.57910156   669267.81250000 530239.37500000 
0.12900    21216420.00000000 13521775.00000000 33864532.00000000 5987.08398438   655871.62500000 519506.50000000 
0.13000    20838092.00000000 13279743.00000000 33259106.00000000 5881.99511719   642995.50000000 509180.68750000 
0.13100    20472500.00000000 13045567.00000000 32673718.00000000 5780.96533203   630592.12500000 499243.53125000 
0.13200    20118522.00000000 12819092.00000000 32107462.00000000 5683.74560547   618653.68750000 489674.09375000 
0.13300    19776428.00000000 12600093.00000000 31559738.00000000 5589.95996094   607143.12500000 480460.65625000 
0.13400    19445212.00000000 12388160.00000000 31029862.00000000 5499.39746094   596047.68750000 471574.62500000 
0.13500    19124914.00000000 12183100.00000000 30517236.00000000 5411.76269531   585336.75000000 462998.62500000 
0.13600    18814642.00000000 11984696.00000000 30021042.00000000 5326.80371094   574990.06250000 454719.00000000 
0.13700    18514436.00000000 11792674.00000000 29540570.00000000 5244.29980469   564985.37500000 446717.53125000 
0.13800    18223462.00000000 11606671.00000000 29075356.00000000 5163.97021484   555299.18750000 438971.96875000 
0.13900    17941738.00000000 11426541.00000000 28624518.00000000 5085.66455078   545914.12500000 431470.65625000 
0.14000    17668394.00000000 11252129.00000000 28187952.00000000 5009.13134766   536807.06250000 424198.37500000 
0.14100    17403594.00000000 11083057.00000000 27764436.00000000 4934.21923828   527959.62500000 417140.65625000 
0.14200    17146546.00000000 10919084.00000000 27353760.00000000 4860.71142578   519355.37500000 410273.71875000 
0.14300    16896962.00000000 10759945.00000000 26955084.00000000 4788.47119141   510974.25000000 403595.28125000 
0.14400    16654540.00000000 10605461.00000000 26568098.00000000 4717.26513672   502797.06250000 397078.56250000 
0.14500    16418920.00000000 10455511.00000000 26192010.00000000 4647.04736328   494815.96875000 390724.53125000 
0.14600    16189727.00000000 10309833.00000000 25826512.00000000 4577.68066406   487007.90625000 384513.00000000 
0.14700    15966637.00000000 10168098.00000000 25470860.00000000 4508.93701172   479358.90625000 378432.06250000 
0.14800    15749358.00000000 10030167.00000000 25124588.00000000 4440.83691406   471855.65625000 372472.06250000 
0.14900    15537546.00000000 9895834.00000000 24786996.00000000 4373.16992188   464483.46875000 366622.25000000 
0.15000    15330838.00000000 9764916.00000000 24458022.00000000 4305.93115234   457233.34375000 360869.12500000 
0.15100    15128965.00000000 9637266.00000000 24136848.00000000 4238.98974609   450093.37500000 355208.06250000 
0.15200    14931749.00000000 9512653.00000000 23823348.00000000 4172.34960938   443051.15625000 349631.34375000 
0.15300    14738822.00000000 9390888.00000000 23516776.00000000 4105.86767578   436093.78125000 344125.18750000 
0.15400    14549815.00000000 9271819.00000000 23216618.00000000 4039.53247070   429212.93750000 338683.06250000 
0.15500    14364658.00000000 9155343.00000000 22922934.00000000 3973.27758789   422407.03125000 333301.37500000 
0.15600    14183031.00000000 9041178.00000000 22634742.00000000 3907.12133789   415655.56250000 327967.53125000 
0.15700    14004720.00000000 8929259.00000000 22352352.00000000 3841.01831055   408962.78125000 322683.62500000 
0.15800    13829489.00000000 8819374.00000000 22074852.00000000 3774.90063477   402310.46875000 317433.09375000 
0.15900    13657174.00000000 8711538.00000000 21801988.00000000 3708.84521484   395704.87500000 312221.90625000 
0.16000    13487473.00000000 8605394.00000000 21533650.00000000 3642.77197266   389131.59375000 307037.40625000 
0.16100    13320284.00000000 8501026.00000000 21269386.00000000 3576.77734375   382592.46875000 301884.81250000 
0.16200    13155371.00000000 8398170.00000000 21008866.00000000 3510.78588867   376075.31250000 296751.09375000 
0.16300    12992642.00000000 8296765.50000000 20751842.00000000 3444.83837891   369581.81250000 291634.68750000 
0.16400    12831848.00000000 8196699.00000000 20498238.00000000 3378.98364258   363108.96875000 286537.46875000 
0.16500    12672908.00000000 8097923.00000000 20247478.00000000 3313.22631836   356653.12500000 281454.65625000 
0.16600    12515650.00000000 8000263.50000000 19999688.00000000 3247.61376953   350211.50000000 276383.34375000 
0.16700    12359875.00000000 7903644.50000000 19754246.00000000 3182.14257812   343782.43750000 271323.96875000 
0.16800    12205477.00000000 7807988.00000000 19511212.00000000 3116.85595703   337364.03125000 266272.50000000 
0.16900    12052552.00000000 7713270.50000000 19270558.00000000 3051.85449219   330961.28125000 261232.89062500 
0.17000    11900828.00000000 7619378.00000000 19031598.00000000 2987.13037109   324567.75000000 256200.90625000 
