# SAXS profile: number of points = 501, q_min = 0, q_max = 0.5, delta_q = 0.001
#    q    intensity 
0.00000    162232624.00000000 101202336.00000000 256269536.00000000 107173.59375000 8339691.50000000 6586710.00000000 
0.00100    162196496.00000000 101177520.00000000 256206480.00000000 107139.72656250 8337385.50000000 6584894.00000000 
0.00200    162080000.00000000 101102072.00000000 256018416.00000000 107041.52343750 8330389.50000000 6579365.50000000 
0.00300    161881264.00000000 100978656.00000000 255702784.00000000 106876.01562500 8318769.50000000 6570258.50000000 
0.00400    161598784.00000000 100805808.00000000 255260592.00000000 106645.64062500 8302508.50000000 6557461.50000000 
0.00500    161235824.00000000 100582488.00000000 254692720.00000000 106350.18750000 8281673.50000000 6541132.00000000 
0.00600    160794336.00000000 100310520.00000000 254002176.00000000 105989.67968750 8256271.50000000 6521168.50000000 
0.00700    160272176.00000000 99991296.00000000 253189312.00000000 105566.46093750 8226434.50000000 6497749.00000000 
0.00800    159674352.00000000 99625352.00000000 252253536.00000000 105080.41406250 8192127.00000000 6470799.00000000 
0.00900    159003152.00000000 99212952.00000000 251198848.00000000 104532.87500000 8153472.50000000 6440490.00000000 
0.01000    158258752.00000000 98753464.00000000 250027088.00000000 103925.44531250 8110517.50000000 6406746.50000000 
0.01100    157439824.00000000 98248528.00000000 248740832.00000000 103258.06250000 8063419.00000000 6369712.50000000 
0.01200    156546064.00000000 97698672.00000000 247339712.00000000 102533.98437500 8012160.00000000 6329461.50000000 
0.01300    155582768.00000000 97105824.00000000 245830368.00000000 101753.92968750 7956931.00000000 6286080.00000000 
0.01400    154550464.00000000 96471392.00000000 244210608.00000000 100919.64843750 7897848.00000000 6239694.50000000 
0.01500    153455744.00000000 95795400.00000000 242489104.00000000 100033.30468750 7835008.50000000 6190296.50000000 
0.01600    152290928.00000000 95080008.00000000 240664192.00000000 99096.00781250  7768413.50000000 6138052.00000000 
0.01700    151066688.00000000 94324488.00000000 238740976.00000000 98110.60937500  7698432.50000000 6083002.00000000 
0.01800    149780064.00000000 93532488.00000000 236720960.00000000 97078.46093750  7624993.00000000 6025328.00000000 
0.01900    148435296.00000000 92704192.00000000 234610512.00000000 96002.06250000  7548301.00000000 5965100.50000000 
0.02000    147035280.00000000 91841768.00000000 232413280.00000000 94883.63281250  7468640.00000000 5902419.50000000 
0.02100    145581632.00000000 90945816.00000000 230130304.00000000 93725.46875000  7385904.00000000 5837418.00000000 
0.02200    144075824.00000000 90017856.00000000 227766672.00000000 92530.29687500  7300437.00000000 5770271.00000000 
0.02300    142523904.00000000 89060264.00000000 225327552.00000000 91299.35156250  7212337.50000000 5701031.00000000 
0.02400    140925072.00000000 88074296.00000000 222814464.00000000 90036.27343750  7121793.50000000 5629822.50000000 
0.02500    139281680.00000000 87060728.00000000 220235344.00000000 88742.70312500  7028927.50000000 5556836.00000000 
0.02600    137598576.00000000 86021320.00000000 217591120.00000000 87422.04687500  6933947.50000000 5482116.00000000 
0.02700    135878192.00000000 84959320.00000000 214886608.00000000 86075.67968750  6836986.00000000 5405842.00000000 
0.02800    134122136.00000000 83875184.00000000 212125936.00000000 84706.67187500  6738209.50000000 5328187.00000000 
0.02900    132333104.00000000 82770584.00000000 209316528.00000000 83318.10156250  6637783.50000000 5249190.00000000 
0.03000    130515856.00000000 81647352.00000000 206457904.00000000 81911.30468750  6535916.00000000 5169035.50000000 
0.03100    128670816.00000000 80507376.00000000 203558000.00000000 80489.23437500  6432775.50000000 5087881.50000000 
0.03200    126802304.00000000 79351768.00000000 200618944.00000000 79054.96093750  6328444.50000000 5005785.00000000 
0.03300    124912064.00000000 78183768.00000000 197645920.00000000 77609.17968750  6223175.50000000 4922932.50000000 
0.03400    123004640.00000000 77004352.00000000 194644512.00000000 76157.31250000  6117134.00000000 4839456.00000000 
0.03500    121080368.00000000 75814088.00000000 191619360.00000000 74699.21093750  6010437.50000000 4755428.50000000 
0.03600    119143104.00000000 74615400.00000000 188570000.00000000 73237.24218750  5903242.00000000 4671073.00000000 
0.03700    117195584.00000000 73408592.00000000 185504624.00000000 71773.75781250  5795712.00000000 4586437.00000000 
0.03800    115239904.00000000 72197040.00000000 182426304.00000000 70312.39843750  5688036.00000000 4501578.50000000 
0.03900    113279632.00000000 70982624.00000000 179340400.00000000 68853.50000000  5580320.50000000 4416741.50000000 
0.04000    111316648.00000000 69765384.00000000 176249696.00000000 67399.53125000  5472776.50000000 4332002.00000000 
0.04100    109353304.00000000 68548312.00000000 173158016.00000000 65952.95312500  5365416.00000000 4247411.50000000 
0.04200    107392384.00000000 67331776.00000000 170067888.00000000 64514.87500000  5258486.50000000 4163109.75000000 
0.04300    105435152.00000000 66117128.00000000 166985040.00000000 63088.08593750  5152102.00000000 4079220.50000000 
0.04400    103484952.00000000 64906324.00000000 163910528.00000000 61673.32031250  5046353.50000000 3995853.00000000 
0.04500    101543968.00000000 63701104.00000000 160850896.00000000 60272.91406250  4941343.50000000 3913058.25000000 
0.04600    99613232.00000000 62501616.00000000 157808608.00000000 58887.48046875  4837221.50000000 3830952.00000000 
0.04700    97696800.00000000 61310208.00000000 154785424.00000000 57519.47656250  4734102.50000000 3749613.50000000 
0.04800    95793968.00000000 60127040.00000000 151786192.00000000 56169.17187500  4632061.50000000 3669112.75000000 
0.04900    93908104.00000000 58953956.00000000 148811376.00000000 54838.90625000  4531260.50000000 3589517.25000000 
0.05000    92040424.00000000 57792232.00000000 145864320.00000000 53528.42578125  4431683.00000000 3510951.50000000 
0.05100    90193384.00000000 56642228.00000000 142948592.00000000 52240.00781250  4333466.00000000 3433411.75000000 
0.05200    88367600.00000000 55505276.00000000 140068384.00000000 50973.90234375  4236695.00000000 3357000.00000000 
0.05300    86564888.00000000 54382044.00000000 137222480.00000000 49730.84375000  4141436.00000000 3281771.50000000 
0.05400    84786192.00000000 53273736.00000000 134415232.00000000 48512.23437500  4047705.00000000 3207749.50000000 
0.05500    83033392.00000000 52181360.00000000 131647904.00000000 47318.06250000  3955630.25000000 3135009.75000000 
0.05600    81307728.00000000 51105016.00000000 128921168.00000000 46148.69531250  3865228.25000000 3063607.00000000 
0.05700    79610352.00000000 50045648.00000000 126239064.00000000 45005.12109375  3776573.50000000 2993531.50000000 
0.05800    77940384.00000000 49003908.00000000 123601896.00000000 43887.61718750  3689663.50000000 2924825.00000000 
0.05900    76300888.00000000 47980472.00000000 121010032.00000000 42796.15625000  3604535.50000000 2857544.25000000 
0.06000    74691904.00000000 46975680.00000000 118467240.00000000 41730.85546875  3521217.50000000 2791715.25000000 
0.06100    73114200.00000000 45989780.00000000 115972600.00000000 40692.26953125  3439777.25000000 2727308.00000000 
0.06200    71567824.00000000 45023760.00000000 113527824.00000000 39679.95312500  3360177.50000000 2664346.25000000 
0.06300    70053336.00000000 44077180.00000000 111133520.00000000 38694.30468750  3282465.25000000 2602852.50000000 
0.06400    68571848.00000000 43150808.00000000 108790720.00000000 37734.76562500  3206608.00000000 2542884.00000000 
0.06500    67123216.00000000 42244632.00000000 106499040.00000000 36801.43359375  3132642.00000000 2484330.25000000 
0.06600    65707440.00000000 41359228.00000000 104260200.00000000 35893.76953125  3060534.50000000 2427295.00000000 
0.06700    64325484.00000000 40494320.00000000 102073568.00000000 35011.63671875  2990283.00000000 2371703.50000000 
0.06800    62976652.00000000 39650388.00000000 99939288.00000000 34155.10156250  2921900.75000000 2317585.00000000 
0.06900    61660940.00000000 38826892.00000000 97857696.00000000 33322.78125000  2855328.50000000 2264900.50000000 
0.07000    60378452.00000000 38023836.00000000 95828032.00000000 32515.13867188  2790612.00000000 2213671.50000000 
0.07100    59129188.00000000 37242392.00000000 93851272.00000000 31731.15625000  2727674.25000000 2163835.75000000 
0.07200    57913008.00000000 36480856.00000000 91926824.00000000 30970.47070312  2666465.50000000 2115404.00000000 
0.07300    56729404.00000000 35739740.00000000 90053216.00000000 30232.41601562  2607037.75000000 2068346.12500000 
0.07400    55578156.00000000 35018596.00000000 88231824.00000000 29516.75000000  2549273.25000000 2022618.00000000 
0.07500    54458752.00000000 34318116.00000000 86460440.00000000 28822.56835938  2493186.25000000 1978216.75000000 
0.07600    53370592.00000000 33636760.00000000 84738352.00000000 28149.07617188  2438739.75000000 1935103.25000000 
0.07700    52314440.00000000 32975952.00000000 83066120.00000000 27495.99218750  2385854.75000000 1893234.00000000 
0.07800    51287756.00000000 32333704.00000000 81442264.00000000 26862.31054688  2334537.00000000 1852599.12500000 
0.07900    50291772.00000000 31710414.00000000 79866416.00000000 26247.68945312  2284732.75000000 1813166.75000000 
0.08000    49324788.00000000 31105714.00000000 78336752.00000000 25651.03320312  2236358.25000000 1774891.75000000 
0.08100    48386836.00000000 30519132.00000000 76853392.00000000 25072.44921875  2189442.50000000 1737730.25000000 
0.08200    47477000.00000000 29950226.00000000 75414096.00000000 24510.24023438  2143857.50000000 1701653.12500000 
0.08300    46594232.00000000 29398826.00000000 74019184.00000000 23964.51367188  2099607.50000000 1666637.50000000 
0.08400    45738764.00000000 28864158.00000000 72665544.00000000 23434.20312500  2056643.25000000 1632643.87500000 
0.08500    44908700.00000000 28346388.00000000 71354560.00000000 22918.88085938  2014914.50000000 1599622.75000000 
0.08600    44104460.00000000 27844430.00000000 70083776.00000000 22417.80078125  1974381.50000000 1567557.87500000 
0.08700    43324336.00000000 27358106.00000000 68851824.00000000 21930.29296875  1934972.75000000 1536372.50000000 
0.08800    42568140.00000000 26886870.00000000 67657968.00000000 21455.84765625  1896690.62500000 1506071.25000000 
0.08900    41835096.00000000 26430444.00000000 66500456.00000000 20993.80664062  1859441.00000000 1476625.50000000 
0.09000    41124320.00000000 25988052.00000000 65379208.00000000 20543.75195312  1823205.87500000 1447960.37500000 
0.09100    40434840.00000000 25559398.00000000 64292132.00000000 20104.90625000  1787927.25000000 1420075.12500000 
0.09200    39766592.00000000 25144154.00000000 63237808.00000000 19676.83007812  1753573.12500000 1392903.25000000 
0.09300    39117976.00000000 24741702.00000000 62216100.00000000 19259.19531250  1720111.12500000 1366467.00000000 
0.09400    38488364.00000000 24351310.00000000 61224332.00000000 18851.39648438  1687469.75000000 1340670.25000000 
0.09500    37877628.00000000 23972666.00000000 60262276.00000000 18452.69726562  1655647.12500000 1315510.50000000 
0.09600    37284756.00000000 23605470.00000000 59329444.00000000 18063.23437500  1624585.12500000 1290979.00000000 
0.09700    36708644.00000000 23249268.00000000 58422472.00000000 17682.19140625  1594272.62500000 1267018.12500000 
0.09800    36148980.00000000 22903544.00000000 57542488.00000000 17309.36914062  1564623.62500000 1243613.62500000 
0.09900    35605048.00000000 22567834.00000000 56687508.00000000 16944.25781250  1535663.87500000 1220728.87500000 
0.10000    35075668.00000000 22241460.00000000 55856636.00000000 16586.54687500  1507317.12500000 1198347.75000000 
0.10100    34560844.00000000 21924204.00000000 55047712.00000000 16236.02929688  1479578.00000000 1176447.50000000 
0.10200    34059800.00000000 21615556.00000000 54260960.00000000 15892.49316406  1452413.62500000 1155002.25000000 
0.10300    33571512.00000000 21315544.00000000 53495068.00000000 15555.50292969  1425811.12500000 1133974.12500000 
0.10400    33095712.00000000 21023124.00000000 52748632.00000000 15224.89355469  1399707.00000000 1113363.12500000 
0.10500    32631710.00000000 20738358.00000000 52021528.00000000 14900.53125000  1374101.12500000 1093146.75000000 
0.10600    32179028.00000000 20460492.00000000 51312076.00000000 14581.98730469  1348985.62500000 1073303.50000000 
0.10700    31736910.00000000 20189556.00000000 50619488.00000000 14269.19042969  1324311.62500000 1053820.87500000 
0.10800    31304972.00000000 19924756.00000000 49942924.00000000 13962.09863281  1300079.75000000 1034678.87500000 
0.10900    30882540.00000000 19666356.00000000 49281668.00000000 13660.40429688  1276251.37500000 1015862.31250000 
0.11000    30469340.00000000 19413558.00000000 48634596.00000000 13364.09375000  1252831.00000000 997361.56250000 
0.11100    30064658.00000000 19166056.00000000 48001840.00000000 13072.95410156  1229808.00000000 979157.81250000 
0.11200    29668448.00000000 18923868.00000000 47381696.00000000 12787.03222656  1207126.25000000 961239.00000000 
0.11300    29279722.00000000 18686438.00000000 46774136.00000000 12505.93554688  1184815.75000000 943601.00000000 
0.11400    28898496.00000000 18453318.00000000 46177740.00000000 12229.92187500  1162849.12500000 926240.93750000 
0.11500    28524314.00000000 18224824.00000000 45592496.00000000 11958.67675781  1141215.50000000 909124.56250000 
0.11600    28156892.00000000 18000318.00000000 45017672.00000000 11692.34082031  1119908.62500000 892264.81250000 
0.11700    27795488.00000000 17779532.00000000 44452712.00000000 11430.63085938  1098911.75000000 875653.62500000 
0.11800    27440010.00000000 17562334.00000000 43896472.00000000 11173.67187500  1078237.00000000 859279.56250000 
0.11900    27090176.00000000 17348528.00000000 43349444.00000000 10921.29882812  1057833.75000000 843127.62500000 
0.12000    26745740.00000000 17138008.00000000 42809908.00000000 10673.61132812  1037735.18750000 827207.68750000 
0.12100    26406394.00000000 16930030.00000000 42278832.00000000 10430.44628906  1017931.75000000 811509.81250000 
0.12200    26071640.00000000 16725292.00000000 41754800.00000000 10191.77148438  998399.37500000 796029.62500000 
0.12300    25741462.00000000 16523113.00000000 41237656.00000000 9957.62890625   979150.25000000 780762.87500000 
0.12400    25415522.00000000 16323196.00000000 40726684.00000000 9727.83593750   960172.43750000 765703.06250000 
0.12500    25093688.00000000 16125628.00000000 40222172.00000000 9502.60937500   941458.75000000 750847.62500000 
0.12600    24775912.00000000 15930307.00000000 39723800.00000000 9281.63281250   923018.18750000 736195.87500000 
0.12700    24461528.00000000 15737004.00000000 39230180.00000000 9065.11621094   904831.68750000 721753.56250000 
0.12800    24150600.00000000 15545568.00000000 38742204.00000000 8852.94921875   886911.50000000 707501.68750000 
0.12900    23843086.00000000 15355963.00000000 38259028.00000000 8644.94921875   869240.81250000 693450.62500000 
0.13000    23538672.00000000 15168041.00000000 37780352.00000000 8441.19140625   851820.12500000 679598.12500000 
0.13100    23237258.00000000 14981663.00000000 37306156.00000000 8241.62109375   834655.43750000 665928.31250000 
0.13200    22938626.00000000 14796806.00000000 36836356.00000000 8046.30175781   817737.06250000 652462.56250000 
0.13300    22642854.00000000 14613427.00000000 36370336.00000000 7854.96435547   801071.93750000 639182.56250000 
0.13400    22349670.00000000 14431401.00000000 35908000.00000000 7667.70849609   784652.18750000 626090.75000000 
0.13500    22058874.00000000 14250668.00000000 35449412.00000000 7484.49902344   768469.06250000 613190.12500000 
0.13600    21770580.00000000 14071098.00000000 34993964.00000000 7305.19873047   752527.25000000 600468.37500000 
0.13700    21484406.00000000 13892647.00000000 34542032.00000000 7129.76220703   736829.00000000 587937.87500000 
0.13800    21200660.00000000 13715309.00000000 34092816.00000000 6958.09521484   721359.37500000 575584.00000000 
0.13900    20918964.00000000 13539045.00000000 33647284.00000000 6790.26367188   706127.37500000 563426.18750000 
0.14000    20639306.00000000 13363896.00000000 33204376.00000000 6626.08349609   691133.06250000 551441.93750000 
0.14100    20361746.00000000 13189650.00000000 32764514.00000000 6465.57226562   676375.93750000 539639.68750000 
0.14200    20085938.00000000 13016416.00000000 32327192.00000000 6308.54931641   661839.81250000 528016.06250000 
0.14300    19812144.00000000 12843959.00000000 31892800.00000000 6155.11523438   647528.81250000 516574.68750000 
0.14400    19540194.00000000 12672441.00000000 31460706.00000000 6004.94384766   633442.50000000 505301.25000000 
0.14500    19270076.00000000 12501923.00000000 31031336.00000000 5858.25830078   619583.81250000 494205.87500000 
0.14600    19001600.00000000 12332177.00000000 30604316.00000000 5714.72558594   605939.75000000 483283.00000000 
0.14700    18735076.00000000 12163404.00000000 30180086.00000000 5574.47412109   592520.31250000 472536.96875000 
0.14800    18470120.00000000 11995360.00000000 29757834.00000000 5437.30712891   579310.50000000 461954.09375000 
0.14900    18206746.00000000 11828126.00000000 29338252.00000000 5303.17529297   566312.00000000 451542.46875000 
0.15000    17945386.00000000 11661869.00000000 28921064.00000000 5172.10449219   553529.50000000 441294.15625000 
0.15100    17685380.00000000 11496372.00000000 28506328.00000000 5043.86230469   540958.93750000 431211.75000000 
0.15200    17427082.00000000 11331727.00000000 28094012.00000000 4918.51953125   528592.00000000 421295.46875000 
0.15300    17170504.00000000 11168063.00000000 27683900.00000000 4795.96484375   516425.06250000 411538.62500000 
0.15400    16915640.00000000 11005177.00000000 27276400.00000000 4676.11523438   504459.25000000 401943.25000000 
0.15500    16662622.00000000 10843156.00000000 26871250.00000000 4558.87548828   492693.62500000 392504.81250000 
0.15600    16410847.00000000 10682112.00000000 26468520.00000000 4444.31445312   481122.68750000 383222.65625000 
0.15700    16161079.00000000 10521877.00000000 26068410.00000000 4332.18847656   469744.50000000 374098.50000000 
0.15800    15912723.00000000 10362705.00000000 25670674.00000000 4222.56201172   458563.46875000 365122.34375000 
0.15900    15666286.00000000 10204447.00000000 25275810.00000000 4115.37792969   447569.09375000 356299.03125000 
0.16000    15421394.00000000 10047113.00000000 24883224.00000000 4010.56323242   436758.28125000 347628.50000000 
0.16100    15178409.00000000 9890984.00000000 24493616.00000000 3908.11059570   426139.00000000 339104.09375000 
0.16200    14937209.00000000 9735679.00000000 24106546.00000000 3807.91210938   415701.00000000 330731.31250000 
0.16300    14697830.00000000 9581541.00000000 23722176.00000000 3709.92895508   405442.84375000 322501.09375000 
0.16400    14460202.00000000 9428472.00000000 23341010.00000000 3614.19995117   395365.71875000 314412.59375000 
0.16500    14224657.00000000 9276639.00000000 22962538.00000000 3520.58496094   385470.06250000 306469.21875000 
0.16600    13990891.00000000 9125840.00000000 22587034.00000000 3429.13012695   375747.50000000 298669.09375000 
0.16700    13759060.00000000 8976248.00000000 22214602.00000000 3339.76489258   366197.46875000 291004.68750000 
0.16800    13529231.00000000 8827755.00000000 21845490.00000000 3252.42431641   356820.43750000 283480.25000000 
0.16900    13301586.00000000 8680735.00000000 21479428.00000000 3167.17358398   347617.62500000 276099.25000000 
0.17000    13075983.00000000 8534988.00000000 21116676.00000000 3083.93603516   338584.06250000 268848.34375000 
