# SAXS profile: number of points = 501, q_min = 0, q_max = 0.5, delta_q = 0.001
#    q    intensity 
0.00000    162235440.00000000 101202632.00000000 256269824.00000000 109589.73437500 8433205.00000000 6660510.50000000 
0.00100    162203584.00000000 101181216.00000000 256217184.00000000 109560.53125000 8431194.00000000 6658944.50000000 
0.00200    162104512.00000000 101118072.00000000 256058016.00000000 109472.21875000 8425098.00000000 6654132.50000000 
0.00300    161936832.00000000 101012776.00000000 255789216.00000000 109324.43750000 8414955.00000000 6646174.50000000 
0.00400    161698512.00000000 100865496.00000000 255415088.00000000 109118.47656250 8400803.00000000 6635019.00000000 
0.00500    161391952.00000000 100676256.00000000 254934816.00000000 108853.92187500 8382597.50000000 6620710.50000000 
0.00600    161018000.00000000 100445776.00000000 254348112.00000000 108531.27343750 8360464.50000000 6603285.00000000 
0.00700    160578208.00000000 100173664.00000000 253656896.00000000 108152.10156250 8334324.00000000 6582733.50000000 
0.00800    160068816.00000000 99861800.00000000 252864272.00000000 107715.99218750 8304325.50000000 6559143.50000000 
0.00900    159496816.00000000 99510272.00000000 251968224.00000000 107225.07812500 8270470.00000000 6532520.00000000 
0.01000    158863104.00000000 99119144.00000000 250970064.00000000 106678.36718750 8232798.00000000 6502888.50000000 
0.01100    158167040.00000000 98688504.00000000 249873024.00000000 106078.42187500 8191426.50000000 6470365.00000000 
0.01200    157407888.00000000 98218824.00000000 248678512.00000000 105425.37500000 8146349.50000000 6434886.50000000 
0.01300    156584880.00000000 97711128.00000000 247385168.00000000 104721.04687500 8097689.00000000 6396619.00000000 
0.01400    155701584.00000000 97165600.00000000 245999008.00000000 103966.14062500 8045542.00000000 6355566.50000000 
0.01500    154760256.00000000 96584168.00000000 244519616.00000000 103162.32812500 7989908.50000000 6311825.50000000 
0.01600    153761744.00000000 95967192.00000000 242950752.00000000 102310.97656250 7930932.00000000 6265416.50000000 
0.01700    152707744.00000000 95316208.00000000 241293008.00000000 101413.49218750 7868696.00000000 6216479.50000000 
0.01800    151598304.00000000 94631320.00000000 239548960.00000000 100472.08593750 7803328.50000000 6165023.50000000 
0.01900    150434656.00000000 93912224.00000000 237719824.00000000 99487.39843750  7734913.50000000 6111199.50000000 
0.02000    149220784.00000000 93162208.00000000 235812944.00000000 98461.51562500  7663508.50000000 6055034.00000000 
0.02100    147956608.00000000 92381832.00000000 233824176.00000000 97395.96093750  7589296.50000000 5996608.50000000 
0.02200    146644800.00000000 91570752.00000000 231762704.00000000 96292.70312500  7512349.50000000 5936053.50000000 
0.02300    145286496.00000000 90731696.00000000 229624912.00000000 95154.18750000  7432798.00000000 5873441.00000000 
0.02400    143882432.00000000 89863784.00000000 227417600.00000000 93981.14062500  7350735.00000000 5808846.00000000 
0.02500    142436960.00000000 88969840.00000000 225144544.00000000 92776.66406250  7266307.50000000 5742380.00000000 
0.02600    140950640.00000000 88050776.00000000 222806592.00000000 91541.66406250  7179647.50000000 5674170.00000000 
0.02700    139424672.00000000 87107496.00000000 220408032.00000000 90278.94531250  7090846.50000000 5604276.50000000 
0.02800    137861824.00000000 86141440.00000000 217951312.00000000 88990.04687500  7000079.50000000 5532768.50000000 
0.02900    136266512.00000000 85152808.00000000 215437184.00000000 87676.85156250  6907424.00000000 5459869.00000000 
0.03000    134635904.00000000 84144552.00000000 212874400.00000000 86342.08593750  6813028.00000000 5385547.00000000 
0.03100    132975840.00000000 83117088.00000000 210261920.00000000 84986.96875000  6717070.00000000 5309980.00000000 
0.03200    131285888.00000000 82071512.00000000 207604544.00000000 83613.75781250  6619607.00000000 5233214.00000000 
0.03300    129570504.00000000 81009976.00000000 204904352.00000000 82224.71875000  6520855.00000000 5155364.50000000 
0.03400    127830696.00000000 79932520.00000000 202165856.00000000 80821.61718750  6420868.00000000 5076637.50000000 
0.03500    126068520.00000000 78840888.00000000 199392064.00000000 79406.93750000  6319780.00000000 4997025.00000000 
0.03600    124286592.00000000 77737168.00000000 196586672.00000000 77981.53125000  6217782.50000000 4916664.50000000 
0.03700    122484888.00000000 76621608.00000000 193752096.00000000 76548.64062500  6114944.00000000 4835664.00000000 
0.03800    120667984.00000000 75496456.00000000 190892384.00000000 75109.53125000  6011468.50000000 4754131.50000000 
0.03900    118837552.00000000 74362360.00000000 188009792.00000000 73666.84375000  5907420.50000000 4672166.50000000 
0.04000    116995168.00000000 73220720.00000000 185108432.00000000 72220.97656250  5802944.50000000 4589821.00000000 
0.04100    115142984.00000000 72071888.00000000 182191168.00000000 70774.92187500  5698160.50000000 4507224.50000000 
0.04200    113281968.00000000 70918344.00000000 179260288.00000000 69329.54687500  5593194.00000000 4424482.50000000 
0.04300    111415864.00000000 69760216.00000000 176321088.00000000 67887.39843750  5488151.50000000 4341667.00000000 
0.04400    109545800.00000000 68600384.00000000 173374496.00000000 66449.57812500  5383153.50000000 4258916.00000000 
0.04500    107673568.00000000 67438448.00000000 170425872.00000000 65017.96875000  5278324.50000000 4176229.25000000 
0.04600    105801672.00000000 66276676.00000000 167475360.00000000 63594.12500000  5173772.50000000 4093779.75000000 
0.04700    103930656.00000000 65115492.00000000 164527456.00000000 62179.45703125  5069624.00000000 4011640.00000000 
0.04800    102064328.00000000 63955992.00000000 161585824.00000000 60775.21093750  4965943.50000000 3929858.75000000 
0.04900    100202120.00000000 62799720.00000000 158650960.00000000 59383.12109375  4862850.00000000 3848536.75000000 
0.05000    98347568.00000000 61647940.00000000 155726960.00000000 58004.30078125  4760419.50000000 3767723.50000000 
0.05100    96501632.00000000 60500924.00000000 152816528.00000000 56640.08203125  4658806.00000000 3687530.75000000 
0.05200    94666056.00000000 59359924.00000000 149920896.00000000 55291.59765625  4558038.50000000 3608012.75000000 
0.05300    92842160.00000000 58226336.00000000 147044576.00000000 53959.65234375  4458191.00000000 3529216.75000000 
0.05400    91030872.00000000 57100060.00000000 144189104.00000000 52645.92968750  4359354.00000000 3451252.50000000 
0.05500    89234424.00000000 55983324.00000000 141355920.00000000 51350.58984375  4261691.50000000 3374125.25000000 
0.05600    87454448.00000000 54875740.00000000 138548608.00000000 50074.54296875  4165127.00000000 3297921.00000000 
0.05700    85691928.00000000 53778904.00000000 135767584.00000000 48819.26953125  4069859.00000000 3222684.25000000 
0.05800    83947944.00000000 52693476.00000000 133016200.00000000 47585.46875000  3975886.75000000 3148485.75000000 
0.05900    82222640.00000000 51620216.00000000 130295048.00000000 46373.16796875  3883247.25000000 3075319.50000000 
0.06000    80519184.00000000 50559324.00000000 127607024.00000000 45183.14453125  3792029.50000000 3003297.00000000 
0.06100    78837752.00000000 49511992.00000000 124952728.00000000 44015.92968750  3702303.00000000 2932416.75000000 
0.06200    77179704.00000000 48478892.00000000 122334688.00000000 42872.47265625  3614050.25000000 2862737.50000000 
0.06300    75544680.00000000 47460416.00000000 119753664.00000000 41752.53906250  3527378.25000000 2794262.50000000 
0.06400    73933904.00000000 46456900.00000000 117211480.00000000 40656.63281250  3442285.25000000 2727023.00000000 
0.06500    72348976.00000000 45469444.00000000 114709560.00000000 39585.14453125  3358828.00000000 2661068.50000000 
0.06600    70791352.00000000 44498040.00000000 112248176.00000000 38538.36328125  3276994.50000000 2596408.75000000 
0.06700    69259336.00000000 43542808.00000000 109829120.00000000 37516.26171875  3196824.00000000 2533040.75000000 
0.06800    67754840.00000000 42604672.00000000 107452840.00000000 36518.59765625  3118365.00000000 2471043.25000000 
0.06900    66278892.00000000 41683780.00000000 105121016.00000000 35545.62500000  3041608.75000000 2410374.50000000 
0.07000    64830804.00000000 40780212.00000000 102833704.00000000 34597.76953125  2966558.50000000 2351050.50000000 
0.07100    63411476.00000000 39894532.00000000 100591608.00000000 33674.29687500  2893253.50000000 2293083.75000000 
0.07200    62021436.00000000 39027196.00000000 98395584.00000000 32775.23437500  2821656.25000000 2236477.25000000 
0.07300    60660832.00000000 38177932.00000000 96244856.00000000 31900.57812500  2751792.75000000 2181238.50000000 
0.07400    59329756.00000000 37346704.00000000 94141776.00000000 31050.20507812  2683663.50000000 2127370.50000000 
0.07500    58028436.00000000 36534432.00000000 92085488.00000000 30223.49414062  2617255.50000000 2074869.12500000 
0.07600    56757236.00000000 35740512.00000000 90075936.00000000 29420.35351562  2552568.75000000 2023697.62500000 
0.07700    55515544.00000000 34965144.00000000 88113192.00000000 28640.40820312  2489567.75000000 1973888.12500000 
0.07800    54303932.00000000 34208476.00000000 86198160.00000000 27883.24023438  2428226.00000000 1925402.12500000 
0.07900    53121860.00000000 33470156.00000000 84330216.00000000 27148.58007812  2368623.50000000 1878225.62500000 
0.08000    51969844.00000000 32750742.00000000 82508824.00000000 26435.78320312  2310624.50000000 1832358.62500000 
0.08100    50847452.00000000 32049448.00000000 80734688.00000000 25744.70898438  2254256.00000000 1787770.12500000 
0.08200    49754132.00000000 31366608.00000000 79006248.00000000 25074.67968750  2199473.00000000 1744457.37500000 
0.08300    48689956.00000000 30701842.00000000 77324160.00000000 24425.06445312  2146276.25000000 1702377.75000000 
0.08400    47654884.00000000 30055352.00000000 75687488.00000000 23795.55664062  2094670.87500000 1661534.00000000 
0.08500    46648068.00000000 29426396.00000000 74096056.00000000 23185.52734375  2044529.37500000 1621888.00000000 
0.08600    45669640.00000000 28815194.00000000 72549072.00000000 22594.44531250  1995891.25000000 1583406.87500000 
0.08700    44718720.00000000 28221548.00000000 71047040.00000000 22022.04882812  1948697.37500000 1546076.87500000 
0.08800    43795408.00000000 27644788.00000000 69587224.00000000 21467.33203125  1902919.00000000 1509873.62500000 
0.08900    42898652.00000000 27084868.00000000 68170176.00000000 20930.07812500  1858529.75000000 1474757.12500000 
0.09000    42028508.00000000 26541698.00000000 66794904.00000000 20409.61914062  1815491.25000000 1440716.00000000 
0.09100    41184324.00000000 26014826.00000000 65460696.00000000 19905.26562500  1773753.37500000 1407704.75000000 
0.09200    40365420.00000000 25503568.00000000 64166736.00000000 19416.65234375  1733287.37500000 1375702.50000000 
0.09300    39571380.00000000 25008118.00000000 62912048.00000000 18943.30859375  1694067.50000000 1344675.25000000 
0.09400    38801324.00000000 24527928.00000000 61695776.00000000 18484.26953125  1656026.50000000 1314600.75000000 
0.09500    38054680.00000000 24062366.00000000 60516988.00000000 18039.25781250  1619143.62500000 1285415.25000000 
0.09600    37331220.00000000 23611584.00000000 59374452.00000000 17607.80859375  1583363.37500000 1257140.75000000 
0.09700    36630684.00000000 23174914.00000000 58268132.00000000 17189.38671875  1548694.12500000 1229704.50000000 
0.09800    35951568.00000000 22751940.00000000 57196008.00000000 16783.39843750  1515045.37500000 1203103.50000000 
0.09900    35293396.00000000 22342286.00000000 56157628.00000000 16389.32421875  1482416.87500000 1177283.62500000 
0.10000    34656164.00000000 21945570.00000000 55151752.00000000 16006.63769531  1450722.75000000 1152238.00000000 
0.10100    34038544.00000000 21561276.00000000 54177248.00000000 15634.96386719  1419965.62500000 1127912.25000000 
0.10200    33440488.00000000 21189300.00000000 53233412.00000000 15273.96972656  1390093.37500000 1104302.75000000 
0.10300    32860406.00000000 20829002.00000000 52319432.00000000 14922.89257812  1361078.62500000 1081360.12500000 
0.10400    32298744.00000000 20480032.00000000 51433424.00000000 14581.52734375  1332882.12500000 1059061.00000000 
0.10500    31754050.00000000 20141996.00000000 50575460.00000000 14249.43457031  1305465.62500000 1037387.00000000 
0.10600    31226180.00000000 19814378.00000000 49743512.00000000 13926.04980469  1278796.62500000 1016293.12500000 
0.10700    30714284.00000000 19497094.00000000 48936956.00000000 13611.29785156  1252840.87500000 995781.37500000 
0.10800    30217668.00000000 19189412.00000000 48155100.00000000 13304.57031250  1227561.75000000 975792.43750000 
0.10900    29735774.00000000 18890824.00000000 47396352.00000000 13005.66113281  1202938.00000000 956315.93750000 
0.11000    29268092.00000000 18601366.00000000 46660212.00000000 12714.17187500  1178934.75000000 937336.00000000 
0.11100    28813872.00000000 18320378.00000000 45945408.00000000 12429.79687500  1155524.87500000 918816.50000000 
0.11200    28372466.00000000 18047530.00000000 45251480.00000000 12152.21972656  1132667.25000000 900743.06250000 
0.11300    27943424.00000000 17782592.00000000 44576624.00000000 11881.29589844  1110358.50000000 883089.56250000 
0.11400    27526246.00000000 17524960.00000000 43920880.00000000 11616.67480469  1088552.75000000 865845.81250000 
0.11500    27120184.00000000 17274456.00000000 43282456.00000000 11358.06445312  1067239.50000000 848975.50000000 
0.11600    26724768.00000000 17030682.00000000 42661468.00000000 11105.39160156  1046386.56250000 832470.81250000 
0.11700    26339586.00000000 16793190.00000000 42056544.00000000 10858.27050781  1025979.31250000 816317.68750000 
0.11800    25963886.00000000 16561813.00000000 41466492.00000000 10616.58496094  1005978.81250000 800488.06250000 
0.11900    25597156.00000000 16336167.00000000 40890796.00000000 10380.09375000  986385.00000000 784965.56250000 
0.12000    25239294.00000000 16115896.00000000 40329340.00000000 10148.61523438  967164.62500000 769742.31250000 
0.12100    24889696.00000000 15900769.00000000 39780472.00000000 9922.16503906   948316.00000000 754803.81250000 
0.12200    24547660.00000000 15690600.00000000 39243624.00000000 9700.44628906   929809.62500000 740134.37500000 
0.12300    24213088.00000000 15484939.00000000 38718900.00000000 9483.29003906   911632.06250000 725727.25000000 
0.12400    23885324.00000000 15283389.00000000 38204904.00000000 9270.67382812   893770.00000000 711561.12500000 
0.12500    23564036.00000000 15086104.00000000 37700844.00000000 9062.38867188   876211.37500000 697630.31250000 
0.12600    23248920.00000000 14892624.00000000 37206460.00000000 8858.38574219   858949.81250000 683927.68750000 
0.12700    22939502.00000000 14702525.00000000 36721640.00000000 8658.55273438   841952.06250000 670439.43750000 
0.12800    22635664.00000000 14515781.00000000 36244868.00000000 8462.81347656   825236.87500000 657155.75000000 
0.12900    22336948.00000000 14332318.00000000 35776396.00000000 8271.03613281   808775.43750000 644070.56250000 
0.13000    22043044.00000000 14151808.00000000 35315196.00000000 8083.14062500   792563.12500000 631190.50000000 
0.13100    21753578.00000000 13973871.00000000 34860988.00000000 7899.13037109   776593.56250000 618484.93750000 
0.13200    21468478.00000000 13798599.00000000 34413700.00000000 7718.86767578   760856.62500000 605963.81250000 
0.13300    21187362.00000000 13625773.00000000 33972488.00000000 7542.25146484   745354.62500000 593619.37500000 
0.13400    20910034.00000000 13455183.00000000 33537174.00000000 7369.34277344   730070.68750000 581442.62500000 
0.13500    20636126.00000000 13286680.00000000 33107222.00000000 7200.05029297   714997.75000000 569438.00000000 
0.13600    20365714.00000000 13120077.00000000 32682584.00000000 7034.23486328   700147.50000000 557594.68750000 
0.13700    20098482.00000000 12955363.00000000 32262618.00000000 6871.85693359   685499.87500000 545916.00000000 
0.13800    19834274.00000000 12792328.00000000 31847050.00000000 6712.90820312   671055.87500000 534394.06250000 
0.13900    19572716.00000000 12631028.00000000 31436188.00000000 6557.40527344   656823.93750000 523028.87500000 
0.14000    19313928.00000000 12471232.00000000 31029020.00000000 6405.21728516   642786.43750000 511813.62500000 
0.14100    19057866.00000000 12312789.00000000 30626002.00000000 6256.30957031   628943.37500000 500756.78125000 
0.14200    18804112.00000000 12155769.00000000 30226538.00000000 6110.61718750   615298.56250000 489847.56250000 
0.14300    18552546.00000000 11999970.00000000 29830342.00000000 5968.09814453   601851.06250000 479088.71875000 
0.14400    18303222.00000000 11845358.00000000 29437500.00000000 5828.72851562   588590.81250000 468482.00000000 
0.14500    18056164.00000000 11692009.00000000 29047954.00000000 5692.46191406   575525.93750000 458022.43750000 
0.14600    17811202.00000000 11539681.00000000 28661328.00000000 5559.23046875   562656.25000000 447717.18750000 
0.14700    17568208.00000000 11388541.00000000 28277878.00000000 5429.01269531   549973.25000000 437556.68750000 
0.14800    17326978.00000000 11238337.00000000 27896882.00000000 5301.75341797   537480.75000000 427545.71875000 
0.14900    17087768.00000000 11089024.00000000 27518856.00000000 5177.31005859   525180.31250000 417682.37500000 
0.15000    16850322.00000000 10940835.00000000 27143580.00000000 5055.74804688   513067.87500000 407969.78125000 
0.15100    16614830.00000000 10793497.00000000 26770720.00000000 4936.98388672   501146.59375000 398401.71875000 
0.15200    16381077.00000000 10647135.00000000 26400658.00000000 4820.97460938   489419.96875000 388989.87500000 
0.15300    16149190.00000000 10501689.00000000 26033114.00000000 4707.65087891   477879.46875000 379725.53125000 
0.15400    15918831.00000000 10357138.00000000 25667976.00000000 4596.88769531   466525.50000000 370609.75000000 
0.15500    15690462.00000000 10213471.00000000 25305496.00000000 4488.76660156   455365.93750000 361642.25000000 
0.15600    15463640.00000000 10070755.00000000 24945642.00000000 4383.08789062   444390.31250000 352822.87500000 
0.15700    15238675.00000000 9928971.00000000 24588222.00000000 4279.93115234   433609.21875000 344161.15625000 
0.15800    15015397.00000000 9788045.00000000 24233190.00000000 4179.13476562   423011.87500000 335642.96875000 
0.15900    14793977.00000000 9648087.00000000 23881066.00000000 4080.67968750   412608.03125000 327278.53125000 
0.16000    14574206.00000000 9509021.00000000 23531348.00000000 3984.48681641   402389.15625000 319059.93750000 
0.16100    14356372.00000000 9371007.00000000 23184420.00000000 3890.59936523   392361.93750000 310996.15625000 
0.16200    14140245.00000000 9233864.00000000 22840084.00000000 3798.84594727   382518.56250000 303081.43750000 
0.16300    13926021.00000000 9097747.00000000 22498388.00000000 3709.15966797   372860.71875000 295315.53125000 
0.16400    13713671.00000000 8962634.00000000 22159552.00000000 3621.59082031   363390.21875000 287698.31250000 
0.16500    13503150.00000000 8828539.00000000 21823318.00000000 3535.98828125   354103.90625000 280228.31250000 
0.16600    13294539.00000000 8695487.00000000 21490108.00000000 3452.34716797   345001.84375000 272908.71875000 
0.16700    13087829.00000000 8563490.00000000 21159744.00000000 3370.56811523   336078.81250000 265734.56250000 
0.16800    12882998.00000000 8432554.00000000 20832070.00000000 3290.61474609   327337.09375000 258705.03125000 
0.16900    12680350.00000000 8302752.00000000 20507742.00000000 3212.46484375   318776.90625000 251821.10937500 
0.17000    12479471.00000000 8174163.50000000 20186092.00000000 3136.03051758   310391.50000000 245082.78125000 
