# SAXS profile: number of points = 501, q_min = 0, q_max = 0.5, delta_q = 0.001
#    q    intensity 
0.00000    162236080.00000000 101201872.00000000 256270848.00000000 109290.60937500 8421698.00000000 6651442.00000000 
0.00100    162198512.00000000 101177776.00000000 256210944.00000000 109259.26562500 8419472.00000000 6649685.00000000 
0.00200    162085808.00000000 101106080.00000000 256028624.00000000 109164.40625000 8412772.00000000 6644412.00000000 
0.00300    161894240.00000000 100986528.00000000 255724944.00000000 109006.27343750 8401610.00000000 6635608.00000000 
0.00400    161624976.00000000 100819776.00000000 255301184.00000000 108786.10156250 8386038.00000000 6623333.00000000 
0.00500    161277104.00000000 100605016.00000000 254755040.00000000 108502.92187500 8366041.00000000 6607575.00000000 
0.00600    160854352.00000000 100343256.00000000 254089696.00000000 108158.79687500 8341667.50000000 6588378.50000000 
0.00700    160357024.00000000 100035184.00000000 253307536.00000000 107753.04687500 8312968.00000000 6565777.00000000 
0.00800    159782880.00000000 99681096.00000000 252408048.00000000 107287.19531250 8279999.50000000 6539818.00000000 
0.00900    159137024.00000000 99281792.00000000 251391904.00000000 106761.54687500 8242788.00000000 6510511.50000000 
0.01000    158418480.00000000 98837400.00000000 250263104.00000000 106177.60156250 8201411.00000000 6477922.00000000 
0.01100    157631200.00000000 98349216.00000000 249020944.00000000 105536.01562500 8155988.00000000 6442108.50000000 
0.01200    156772848.00000000 97817024.00000000 247668496.00000000 104838.39843750 8106527.00000000 6403143.50000000 
0.01300    155844112.00000000 97242008.00000000 246205984.00000000 104085.50000000 8053109.00000000 6361092.00000000 
0.01400    154848608.00000000 96625784.00000000 244641136.00000000 103278.84375000 7995911.50000000 6316015.50000000 
0.01500    153787440.00000000 95967848.00000000 242970176.00000000 102420.21875000 7934925.00000000 6267973.50000000 
0.01600    152662624.00000000 95270976.00000000 241199968.00000000 101511.17968750 7870303.00000000 6217112.50000000 
0.01700    151475248.00000000 94535936.00000000 239330544.00000000 100553.05468750 7802129.00000000 6163401.50000000 
0.01800    150226528.00000000 93762440.00000000 237365472.00000000 99546.79687500  7730599.00000000 6107013.50000000 
0.01900    148919104.00000000 92952752.00000000 235307712.00000000 98495.04687500  7655732.50000000 6048043.00000000 
0.02000    147555648.00000000 92107936.00000000 233159936.00000000 97400.56250000  7577692.00000000 5986534.00000000 
0.02100    146137296.00000000 91229376.00000000 230927408.00000000 96263.60156250  7496629.50000000 5922643.00000000 
0.02200    144665360.00000000 90317992.00000000 228612304.00000000 95086.77343750  7412585.50000000 5856465.50000000 
0.02300    143144432.00000000 89375528.00000000 226216400.00000000 93872.46093750  7325790.00000000 5788066.00000000 
0.02400    141574576.00000000 88402800.00000000 223745104.00000000 92622.30468750  7236345.50000000 5717602.50000000 
0.02500    139959808.00000000 87401832.00000000 221202848.00000000 91338.46093750  7144439.00000000 5645143.50000000 
0.02600    138300448.00000000 86374032.00000000 218591104.00000000 90023.32031250  7050102.00000000 5570825.50000000 
0.02700    136600576.00000000 85320040.00000000 215914224.00000000 88678.54687500  6953588.50000000 5494807.00000000 
0.02800    134862752.00000000 84242520.00000000 213176928.00000000 87306.42968750  6855031.50000000 5417100.50000000 
0.02900    133087264.00000000 83142576.00000000 210382400.00000000 85909.85156250  6754518.50000000 5337899.00000000 
0.03000    131279392.00000000 82021032.00000000 207533648.00000000 84490.60937500  6652234.00000000 5257316.00000000 
0.03100    129439392.00000000 80880360.00000000 204637008.00000000 83051.01562500  6548358.50000000 5175450.00000000 
0.03200    127571208.00000000 79722152.00000000 201694400.00000000 81592.67968750  6443036.50000000 5092443.50000000 
0.03300    125677360.00000000 78548192.00000000 198711360.00000000 80118.68750000  6336429.50000000 5008421.50000000 
0.03400    123759320.00000000 77358064.00000000 195689888.00000000 78631.12500000  6228677.00000000 4923455.50000000 
0.03500    121820240.00000000 76155656.00000000 192636144.00000000 77131.89843750  6119892.50000000 4837721.00000000 
0.03600    119863216.00000000 74941624.00000000 189552544.00000000 75623.32812500  6010254.50000000 4751339.00000000 
0.03700    117890376.00000000 73717216.00000000 186444288.00000000 74107.43750000  5899941.00000000 4664364.00000000 
0.03800    115903280.00000000 72484608.00000000 183315568.00000000 72587.44531250  5789077.50000000 4576981.50000000 
0.03900    113906488.00000000 71246256.00000000 180169792.00000000 71063.84375000  5677843.50000000 4489278.50000000 
0.04000    111900968.00000000 70001736.00000000 177009536.00000000 69539.90625000  5566349.00000000 4401377.00000000 
0.04100    109889560.00000000 68753440.00000000 173840720.00000000 68017.15625000  5454692.50000000 4313393.00000000 
0.04200    107874248.00000000 67502256.00000000 170664480.00000000 66497.57812500  5343123.50000000 4225410.00000000 
0.04300    105858280.00000000 66250848.00000000 167487280.00000000 64982.41796875  5231701.50000000 4137549.00000000 
0.04400    103843768.00000000 64999316.00000000 164312128.00000000 63475.41406250  5120558.00000000 4049916.75000000 
0.04500    101832168.00000000 63750664.00000000 161142432.00000000 61976.26562500  5009883.00000000 3962649.75000000 
0.04600    99826656.00000000 62505236.00000000 157980688.00000000 60488.32812500  4899752.50000000 3875805.00000000 
0.04700    97828984.00000000 61264296.00000000 154832176.00000000 59012.18359375  4790299.50000000 3789499.50000000 
0.04800    95840984.00000000 60029480.00000000 151699392.00000000 57550.23437500  4681645.50000000 3703806.00000000 
0.04900    93866104.00000000 58802356.00000000 148585520.00000000 56103.48828125  4573890.50000000 3618832.75000000 
0.05000    91904472.00000000 57583808.00000000 145493072.00000000 54673.71093750  4467171.50000000 3534667.75000000 
0.05100    89960176.00000000 56374976.00000000 142425472.00000000 53262.26171875  4361622.50000000 3451410.75000000 
0.05200    88032360.00000000 55177016.00000000 139386816.00000000 51870.38281250  4257241.50000000 3369076.25000000 
0.05300    86124472.00000000 53991116.00000000 136378496.00000000 50499.14843750  4154198.00000000 3287803.00000000 
0.05400    84238144.00000000 52818380.00000000 133406120.00000000 49150.13671875  4052558.25000000 3207622.00000000 
0.05500    82374856.00000000 51659720.00000000 130465848.00000000 47824.26953125  3952444.25000000 3128633.25000000 
0.05600    80536360.00000000 50516212.00000000 127565824.00000000 46522.43359375  3853877.50000000 3050869.50000000 
0.05700    78723416.00000000 49389124.00000000 124707184.00000000 45245.32421875  3756972.25000000 2974422.75000000 
0.05800    76937944.00000000 48278532.00000000 121890712.00000000 43994.03125000  3661776.25000000 2899315.25000000 
0.05900    75181176.00000000 47185788.00000000 119119288.00000000 42769.35937500  3568356.25000000 2825599.25000000 
0.06000    73454368.00000000 46111220.00000000 116395208.00000000 41571.82812500  3476792.50000000 2753332.25000000 
0.06100    71758712.00000000 45055824.00000000 113720104.00000000 40402.03906250  3387108.50000000 2682557.50000000 
0.06200    70095112.00000000 44020532.00000000 111094808.00000000 39260.21093750  3299349.00000000 2613311.00000000 
0.06300    68464072.00000000 43005776.00000000 108521048.00000000 38147.50781250  3213570.75000000 2545603.00000000 
0.06400    66867192.00000000 42011372.00000000 106001528.00000000 37063.59375000  3129787.50000000 2479488.00000000 
0.06500    65304360.00000000 41038948.00000000 103535856.00000000 36009.00000000  3048068.00000000 2414978.00000000 
0.06600    63777816.00000000 40088200.00000000 101125528.00000000 34983.87109375  2968414.25000000 2352102.50000000 
0.06700    62286308.00000000 39159856.00000000 98772600.00000000 33988.30078125  2890838.00000000 2290838.75000000 
0.06800    60831616.00000000 38253680.00000000 96475536.00000000 33021.89453125  2815347.75000000 2231258.25000000 
0.06900    59413620.00000000 37370368.00000000 94237664.00000000 32085.25000000  2741976.50000000 2173347.50000000 
0.07000    58032668.00000000 36510240.00000000 92058536.00000000 31178.12109375  2670697.25000000 2117066.75000000 
0.07100    56689236.00000000 35673456.00000000 89937472.00000000 30300.09179688  2601549.25000000 2062459.37500000 
0.07200    55383172.00000000 34859660.00000000 87875880.00000000 29451.29492188  2534497.50000000 2009519.25000000 
0.07300    54114916.00000000 34069612.00000000 85873320.00000000 28630.98632812  2469549.75000000 1958233.12500000 
0.07400    52883992.00000000 33302874.00000000 83930336.00000000 27839.20117188  2406711.50000000 1908585.00000000 
0.07500    51691400.00000000 32559612.00000000 82047320.00000000 27075.36523438  2345889.50000000 1860564.75000000 
0.07600    50535664.00000000 31839408.00000000 80223176.00000000 26338.92578125  2287138.75000000 1814165.37500000 
0.07700    49417580.00000000 31142708.00000000 78457664.00000000 25629.75195312  2230388.25000000 1769352.87500000 
0.07800    48336408.00000000 30469098.00000000 76750560.00000000 24946.98046875  2175660.00000000 1726108.62500000 
0.07900    47291768.00000000 29818158.00000000 75101792.00000000 24289.99609375  2122848.00000000 1684400.00000000 
0.08000    46283680.00000000 29189882.00000000 73509736.00000000 23658.31445312  2071984.75000000 1644213.87500000 
0.08100    45311500.00000000 28584158.00000000 71975024.00000000 23051.30664062  2022997.00000000 1605523.75000000 
0.08200    44374188.00000000 28000396.00000000 70495592.00000000 22468.14062500  1975853.50000000 1568268.00000000 
0.08300    43472016.00000000 27438398.00000000 69071488.00000000 21908.27539062  1930491.87500000 1532438.37500000 
0.08400    42603780.00000000 26897692.00000000 67700840.00000000 21370.87500000  1886892.00000000 1498001.87500000 
0.08500    41769496.00000000 26378002.00000000 66383368.00000000 20855.23632812  1845004.12500000 1464894.12500000 
0.08600    40967284.00000000 25878638.00000000 65117976.00000000 20360.56640625  1804767.37500000 1433103.25000000 
0.08700    40197896.00000000 25399454.00000000 63903420.00000000 19886.06445312  1766115.00000000 1402572.75000000 
0.08800    39459304.00000000 24939636.00000000 62738196.00000000 19430.73828125  1729034.37500000 1373280.87500000 
0.08900    38751036.00000000 24499006.00000000 61620432.00000000 18994.14648438  1693434.75000000 1345140.50000000 
0.09000    38072676.00000000 24076838.00000000 60550024.00000000 18575.53320312  1659289.75000000 1318155.00000000 
0.09100    37422528.00000000 23672558.00000000 59524784.00000000 18173.53906250  1626514.87500000 1292250.50000000 
0.09200    36800180.00000000 23285862.00000000 58543176.00000000 17787.71484375  1595083.50000000 1267392.75000000 
0.09300    36204800.00000000 22916064.00000000 57604996.00000000 17417.29882812  1564896.12500000 1243568.62500000 
0.09400    35635292.00000000 22562108.00000000 56706924.00000000 17061.21875000  1535930.75000000 1220670.75000000 
0.09500    35090684.00000000 22224256.00000000 55848648.00000000 16719.24218750  1508111.25000000 1198695.75000000 
0.09600    34570276.00000000 21901050.00000000 55028460.00000000 16389.73632812  1481397.12500000 1177587.12500000 
0.09700    34072052.00000000 21592526.00000000 54244440.00000000 16072.73730469  1455727.75000000 1157295.62500000 
0.09800    33596744.00000000 21297652.00000000 53495144.00000000 15767.01171875  1431038.50000000 1137782.37500000 
0.09900    33141528.00000000 21016238.00000000 52779388.00000000 15472.12304688  1407278.12500000 1119009.37500000 
0.10000    32706412.00000000 20747032.00000000 52094812.00000000 15187.11425781  1384390.87500000 1100920.25000000 
0.10100    32290380.00000000 20489806.00000000 51440580.00000000 14911.33398438  1362303.87500000 1083471.50000000 
0.10200    31892110.00000000 20244092.00000000 50814888.00000000 14644.33203125  1341001.87500000 1066627.62500000 
0.10300    31511048.00000000 20008774.00000000 50215604.00000000 14385.10742188  1320405.12500000 1050352.12500000 
0.10400    31145804.00000000 19783860.00000000 49641772.00000000 14133.39160156  1300472.37500000 1034599.81250000 
0.10500    30795722.00000000 19568202.00000000 49091948.00000000 13888.37792969  1281150.75000000 1019337.37500000 
0.10600    30459460.00000000 19361330.00000000 48564496.00000000 13649.46093750  1262387.25000000 1004505.37500000 
0.10700    30136254.00000000 19162808.00000000 48057804.00000000 13416.33203125  1244153.25000000 990093.75000000 
0.10800    29825218.00000000 18972014.00000000 47570264.00000000 13188.22851562  1226391.62500000 976055.12500000 
0.10900    29525586.00000000 18788166.00000000 47100700.00000000 12964.80859375  1209055.00000000 962351.62500000 
0.11000    29236270.00000000 18611028.00000000 46647704.00000000 12745.54003906  1192104.25000000 948955.50000000 
0.11100    28956368.00000000 18439726.00000000 46209464.00000000 12530.04785156  1175517.12500000 935841.93750000 
0.11200    28685098.00000000 18274002.00000000 45785240.00000000 12317.95410156  1159234.12500000 922969.75000000 
0.11300    28421718.00000000 18113254.00000000 45373700.00000000 12108.75585938  1143227.62500000 910316.68750000 
0.11400    28165416.00000000 17956988.00000000 44973400.00000000 11902.33105469  1127469.87500000 897863.75000000 
0.11500    27915288.00000000 17804778.00000000 44582768.00000000 11698.21093750  1111934.12500000 885567.87500000 
0.11600    27671122.00000000 17655988.00000000 44201376.00000000 11496.20019531  1096569.87500000 873426.75000000 
0.11700    27431658.00000000 17510364.00000000 43827600.00000000 11296.04785156  1081374.25000000 861402.68750000 
0.11800    27196412.00000000 17367212.00000000 43459912.00000000 11097.37597656  1066300.50000000 849482.00000000 
0.11900    26964610.00000000 17226314.00000000 43098364.00000000 10900.20312500  1051341.75000000 837642.43750000 
0.12000    26735674.00000000 17087376.00000000 42741612.00000000 10704.21972656  1036461.81250000 825872.56250000 
0.12100    26509498.00000000 16949904.00000000 42388720.00000000 10509.41210938  1021653.68750000 814154.06250000 
0.12200    26284812.00000000 16813572.00000000 42038416.00000000 10315.47656250  1006897.75000000 802468.43750000 
0.12300    26061768.00000000 16677863.00000000 41690196.00000000 10122.42480469  992174.43750000 790818.43750000 
0.12400    25839302.00000000 16542740.00000000 41343428.00000000 9930.18359375   977478.18750000 779175.68750000 
0.12500    25617380.00000000 16407899.00000000 40997200.00000000 9738.59765625   962784.06250000 767542.12500000 
0.12600    25395594.00000000 16272960.00000000 40651064.00000000 9547.86523438   948093.31250000 755902.56250000 
0.12700    25173240.00000000 16137865.00000000 40303944.00000000 9357.67675781   933392.37500000 744257.00000000 
0.12800    24950304.00000000 16001959.00000000 39955644.00000000 9168.28417969   918675.68750000 732591.68750000 
0.12900    24726360.00000000 15865479.00000000 39605952.00000000 8979.57714844   903938.18750000 720909.87500000 
0.13000    24500982.00000000 15728081.00000000 39253788.00000000 8791.59472656   889178.87500000 709199.31250000 
0.13100    24273894.00000000 15589548.00000000 38898732.00000000 8604.35546875   874392.37500000 697473.43750000 
0.13200    24045268.00000000 15449744.00000000 38540984.00000000 8418.01953125   859572.50000000 685714.37500000 
0.13300    23814588.00000000 15308622.00000000 38179908.00000000 8232.58007812   844736.68750000 673938.75000000 
0.13400    23581756.00000000 15165897.00000000 37815064.00000000 8048.14111328   829862.50000000 662133.75000000 
0.13500    23346420.00000000 15021649.00000000 37446440.00000000 7864.77880859   814969.06250000 650311.00000000 
0.13600    23108932.00000000 14875788.00000000 37073928.00000000 7682.62304688   800057.87500000 638465.43750000 
0.13700    22868800.00000000 14728109.00000000 36696904.00000000 7501.71826172   785127.00000000 626609.18750000 
0.13800    22626084.00000000 14578706.00000000 36315992.00000000 7322.22558594   770195.75000000 614741.00000000 
0.13900    22380706.00000000 14427370.00000000 35930288.00000000 7144.25976562   755255.56250000 602866.62500000 
0.14000    22132720.00000000 14274337.00000000 35540852.00000000 6967.96582031   740320.31250000 590991.68750000 
0.14100    21882200.00000000 14119402.00000000 35146520.00000000 6793.35205078   725402.37500000 579124.68750000 
0.14200    21629120.00000000 13962699.00000000 34747988.00000000 6620.60937500   710503.00000000 567269.81250000 
0.14300    21373380.00000000 13804145.00000000 34345128.00000000 6449.80712891   695629.06250000 555439.68750000 
0.14400    21115210.00000000 13643840.00000000 33937932.00000000 6281.13671875   680793.18750000 543626.12500000 
0.14500    20854528.00000000 13481766.00000000 33526836.00000000 6114.70166016   666015.43750000 531855.43750000 
0.14600    20591618.00000000 13318075.00000000 33111738.00000000 5950.59960938   651289.25000000 520129.34375000 
0.14700    20326488.00000000 13152808.00000000 32693022.00000000 5788.95458984   636636.68750000 508453.03125000 
0.14800    20059352.00000000 12985928.00000000 32270592.00000000 5629.87207031   622056.81250000 496833.21875000 
0.14900    19790136.00000000 12817660.00000000 31844858.00000000 5473.36035156   607564.56250000 485284.96875000 
0.15000    19519124.00000000 12648025.00000000 31415876.00000000 5319.63330078   593174.43750000 473806.50000000 
0.15100    19246516.00000000 12477082.00000000 30984110.00000000 5168.74414062   578894.56250000 462416.96875000 
0.15200    18972452.00000000 12305148.00000000 30549674.00000000 5020.82226562   564737.00000000 451120.15625000 
0.15300    18697066.00000000 12132061.00000000 30113084.00000000 4875.86425781   550707.62500000 439921.09375000 
0.15400    18420548.00000000 11958033.00000000 29674240.00000000 4733.98779297   536815.81250000 428829.56250000 
0.15500    18142998.00000000 11783098.00000000 29233646.00000000 4595.28027344   523073.31250000 417854.15625000 
0.15600    17865006.00000000 11607518.00000000 28791596.00000000 4459.74707031   509490.71875000 407001.40625000 
0.15700    17586270.00000000 11431556.00000000 28348460.00000000 4327.46386719   496077.75000000 396277.53125000 
0.15800    17307128.00000000 11254992.00000000 27904394.00000000 4198.48095703   482835.84375000 385693.93750000 
0.15900    17027970.00000000 11078047.00000000 27460060.00000000 4072.83154297   469778.43750000 375251.90625000 
0.16000    16748884.00000000 10901043.00000000 27015348.00000000 3950.54760742   456915.46875000 364961.00000000 
0.16100    16469895.00000000 10724007.00000000 26570890.00000000 3831.66796875   444252.87500000 354827.46875000 
0.16200    16191594.00000000 10547083.00000000 26126772.00000000 3716.15429688   431794.09375000 344854.68750000 
0.16300    15913845.00000000 10370289.00000000 25683566.00000000 3603.99755859   419549.75000000 335047.96875000 
0.16400    15637040.00000000 10193818.00000000 25241534.00000000 3495.34790039   407522.71875000 325413.84375000 
0.16500    15361286.00000000 10017898.00000000 24800998.00000000 3389.98315430   395720.25000000 315955.50000000 
0.16600    15086714.00000000 9842622.00000000 24362192.00000000 3288.05371094   384149.15625000 306676.37500000 
0.16700    14813700.00000000 9667904.00000000 23925308.00000000 3189.43701172   372806.96875000 297580.71875000 
0.16800    14542200.00000000 9494057.00000000 23490796.00000000 3094.13671875   361701.28125000 288670.12500000 
0.16900    14272644.00000000 9321259.00000000 23059218.00000000 3002.15966797   350840.25000000 279953.15625000 
0.17000    14005104.00000000 9149572.00000000 22630470.00000000 2913.41625977   340216.06250000 271427.18750000 
