# SAXS profile: number of points = 501, q_min = 0, q_max = 0.5, delta_q = 0.001
#    q    intensity 
0.00000    162235152.00000000 101202072.00000000 256270496.00000000 111249.17968750 8496827.00000000 6710781.00000000 
0.00100    162198016.00000000 101177608.00000000 256209296.00000000 111213.87500000 8494442.00000000 6708917.50000000 
0.00200    162084944.00000000 101104144.00000000 256024624.00000000 111109.72656250 8487328.00000000 6703307.50000000 
0.00300    161889504.00000000 100982776.00000000 255715040.00000000 110935.85937500 8475488.00000000 6693997.00000000 
0.00400    161613696.00000000 100813232.00000000 255283136.00000000 110692.91406250 8458952.00000000 6681018.00000000 
0.00500    161261216.00000000 100595064.00000000 254730272.00000000 110381.50000000 8437826.00000000 6664302.00000000 
0.00600    160829744.00000000 100329848.00000000 254054192.00000000 110002.98437500 8411988.00000000 6644001.00000000 
0.00700    160324512.00000000 100016840.00000000 253260432.00000000 109556.40625000 8381625.00000000 6620100.00000000 
0.00800    159741472.00000000 99658216.00000000 252346864.00000000 109044.37500000 8346766.50000000 6592635.00000000 
0.00900    159086544.00000000 99253312.00000000 251316688.00000000 108468.30468750 8307455.00000000 6561696.00000000 
0.01000    158359904.00000000 98803928.00000000 250171184.00000000 107827.99218750 8263816.50000000 6527381.00000000 
0.01100    157562400.00000000 98309288.00000000 248914880.00000000 107126.36718750 8215898.00000000 6489645.00000000 
0.01200    156691136.00000000 97771336.00000000 247545184.00000000 106364.20312500 8163777.00000000 6448625.00000000 
0.01300    155751872.00000000 97190448.00000000 246069760.00000000 105543.51562500 8107656.00000000 6404429.50000000 
0.01400    154746784.00000000 96567608.00000000 244488560.00000000 104665.33593750 8047550.50000000 6357101.50000000 
0.01500    153676512.00000000 95905320.00000000 242803888.00000000 103732.67187500 7983662.00000000 6306769.00000000 
0.01600    152541280.00000000 95204264.00000000 241017488.00000000 102747.41406250 7915989.00000000 6253508.00000000 
0.01700    151346080.00000000 94464248.00000000 239138432.00000000 101710.07812500 7844771.50000000 6197414.00000000 
0.01800    150089824.00000000 93688008.00000000 237162448.00000000 100625.87500000 7770165.00000000 6138653.50000000 
0.01900    148778656.00000000 92875824.00000000 235099152.00000000 99494.23437500  7692277.00000000 6077287.00000000 
0.02000    147411168.00000000 92029096.00000000 232947920.00000000 98319.49218750  7611203.50000000 6013452.00000000 
0.02100    145991408.00000000 91150488.00000000 230713632.00000000 97102.50000000  7527071.00000000 5947280.50000000 
0.02200    144521952.00000000 90241160.00000000 228400608.00000000 95846.76562500  7440209.50000000 5878820.00000000 
0.02300    143003200.00000000 89301064.00000000 226012304.00000000 94555.35156250  7350605.50000000 5808276.50000000 
0.02400    141441232.00000000 88333680.00000000 223552384.00000000 93230.08593750  7258571.50000000 5735757.50000000 
0.02500    139834880.00000000 87338680.00000000 221024256.00000000 91872.92968750  7164208.00000000 5661425.50000000 
0.02600    138189312.00000000 86319936.00000000 218434592.00000000 90488.27343750  7067589.50000000 5585365.50000000 
0.02700    136507328.00000000 85276352.00000000 215785456.00000000 89077.02343750  6969048.50000000 5507729.50000000 
0.02800    134788864.00000000 84212536.00000000 213079824.00000000 87642.70312500  6868639.50000000 5428623.50000000 
0.02900    133038592.00000000 83128008.00000000 210325488.00000000 86188.55468750  6766629.50000000 5348201.00000000 
0.03000    131259448.00000000 82025584.00000000 207522912.00000000 84716.08593750  6663120.00000000 5266638.50000000 
0.03100    129453360.00000000 80905304.00000000 204679568.00000000 83228.77343750  6558287.00000000 5184037.50000000 
0.03200    127623576.00000000 79770640.00000000 201796784.00000000 81729.30468750  6452298.00000000 5100556.50000000 
0.03300    125772408.00000000 78622352.00000000 198881568.00000000 80219.57031250  6345374.00000000 5016245.00000000 
0.03400    123902064.00000000 77462264.00000000 195934208.00000000 78701.38281250  6237670.50000000 4931362.50000000 
0.03500    122016504.00000000 76293160.00000000 192964864.00000000 77180.18750000  6129343.00000000 4845962.50000000 
0.03600    120117104.00000000 75114936.00000000 189972464.00000000 75655.02343750  6020534.00000000 4760212.00000000 
0.03700    118206944.00000000 73929792.00000000 186965312.00000000 74131.06250000  5911416.00000000 4674130.00000000 
0.03800    116288896.00000000 72738936.00000000 183940992.00000000 72608.67187500  5802140.00000000 4588025.50000000 
0.03900    114365904.00000000 71544504.00000000 180909984.00000000 71090.54687500  5692847.00000000 4501813.50000000 
0.04000    112439408.00000000 70348192.00000000 177873856.00000000 69579.42968750  5583751.50000000 4415787.00000000 
0.04100    110511872.00000000 69151248.00000000 174834400.00000000 68077.03906250  5474923.00000000 4329949.50000000 
0.04200    108586232.00000000 67954792.00000000 171799280.00000000 66584.81250000  5366514.50000000 4244433.00000000 
0.04300    106664088.00000000 66760220.00000000 168771008.00000000 65105.32031250  5258721.50000000 4159404.50000000 
0.04400    104748344.00000000 65569880.00000000 165749216.00000000 63639.67578125  5151608.50000000 4074885.50000000 
0.04500    102841616.00000000 64384060.00000000 162742464.00000000 62190.33984375  5045304.50000000 3991041.25000000 
0.04600    100944328.00000000 63204624.00000000 159751424.00000000 60758.57031250  4939933.50000000 3907887.50000000 
0.04700    99059928.00000000 62032720.00000000 156778080.00000000 59346.03125000  4835664.50000000 3825596.25000000 
0.04800    97190008.00000000 60869068.00000000 153826720.00000000 57953.24609375  4732468.50000000 3744183.50000000 
0.04900    95335616.00000000 59715684.00000000 150901824.00000000 56582.44531250  4630543.50000000 3663751.00000000 
0.05000    93499944.00000000 58572704.00000000 148005440.00000000 55234.46875000  4530020.50000000 3584380.75000000 
0.05100    91682848.00000000 57442160.00000000 145138256.00000000 53910.14062500  4430872.50000000 3506120.25000000 
0.05200    89887176.00000000 56323888.00000000 142304320.00000000 52610.57812500  4333271.00000000 3429067.25000000 
0.05300    88114320.00000000 55219924.00000000 139506240.00000000 51336.47265625  4237196.50000000 3353219.50000000 
0.05400    86364168.00000000 54130192.00000000 136745440.00000000 50088.31640625  4142794.00000000 3278680.00000000 
0.05500    84640136.00000000 53055948.00000000 134023656.00000000 48867.27734375  4050099.75000000 3205486.00000000 
0.05600    82942880.00000000 51997932.00000000 131342528.00000000 47673.45703125  3959133.50000000 3133648.50000000 
0.05700    81272480.00000000 50956540.00000000 128705280.00000000 46507.38671875  3869979.75000000 3063264.75000000 
0.05800    79629960.00000000 49932796.00000000 126111520.00000000 45369.50390625  3782692.75000000 2994285.25000000 
0.05900    78016048.00000000 48927308.00000000 123563872.00000000 44259.09765625  3697237.75000000 2926784.00000000 
0.06000    76432768.00000000 47939944.00000000 121063632.00000000 43177.60546875  3613681.75000000 2860790.25000000 
0.06100    74880384.00000000 46971760.00000000 118611976.00000000 42124.19921875  3532045.50000000 2796311.00000000 
0.06200    73359568.00000000 46022852.00000000 116208576.00000000 41098.98828125  3452362.75000000 2733340.75000000 
0.06300    71869952.00000000 45093356.00000000 113855488.00000000 40101.90234375  3374605.00000000 2671922.50000000 
0.06400    70412592.00000000 44184028.00000000 111553032.00000000 39132.26171875  3298763.25000000 2612011.00000000 
0.06500    68987432.00000000 43294596.00000000 109301328.00000000 38190.44531250  3224878.25000000 2553624.25000000 
0.06600    67594512.00000000 42425748.00000000 107101056.00000000 37275.80859375  3152901.50000000 2496767.25000000 
0.06700    66235364.00000000 41577448.00000000 104953384.00000000 36387.91015625  3082861.25000000 2441430.50000000 
0.06800    64908580.00000000 40748956.00000000 102856528.00000000 35526.07812500  3014721.00000000 2387572.75000000 
0.06900    63614592.00000000 39941212.00000000 100811488.00000000 34689.97265625  2948447.25000000 2335199.75000000 
0.07000    62353252.00000000 39153992.00000000 98818608.00000000 33878.71484375  2884040.25000000 2284322.75000000 
0.07100    61124332.00000000 38386948.00000000 96877104.00000000 33092.07031250  2821446.00000000 2234849.25000000 
0.07200    59927676.00000000 37640072.00000000 94986800.00000000 32329.00000000  2760622.50000000 2186809.25000000 
0.07300    58763320.00000000 36913368.00000000 93146144.00000000 31589.04101562  2701588.00000000 2140153.25000000 
0.07400    57630892.00000000 36206220.00000000 91357304.00000000 30871.45117188  2644257.00000000 2094841.12500000 
0.07500    56529684.00000000 35518824.00000000 89617280.00000000 30174.92773438  2588575.50000000 2050887.62500000 
0.07600    55458964.00000000 34850684.00000000 87924992.00000000 29499.76171875  2534541.50000000 2008200.12500000 
0.07700    54418536.00000000 34201664.00000000 86281720.00000000 28844.10351562  2482103.50000000 1966761.75000000 
0.07800    53407540.00000000 33571484.00000000 84685304.00000000 28207.69531250  2431171.75000000 1926539.12500000 
0.07900    52426080.00000000 32959052.00000000 83134464.00000000 27590.04687500  2381748.50000000 1887501.62500000 
0.08000    51473208.00000000 32364990.00000000 81629696.00000000 26989.21484375  2333736.75000000 1849591.50000000 
0.08100    50547420.00000000 31788144.00000000 80168336.00000000 26405.67773438  2287129.75000000 1812780.25000000 
0.08200    49649176.00000000 31228242.00000000 78750240.00000000 25837.83007812  2241819.00000000 1777014.75000000 
0.08300    48777416.00000000 30685240.00000000 77373384.00000000 25285.29687500  2197801.00000000 1742270.87500000 
0.08400    47930748.00000000 30158180.00000000 76037648.00000000 24746.99023438  2155027.25000000 1708490.37500000 
0.08500    47109084.00000000 29646744.00000000 74740928.00000000 24222.42773438  2113404.50000000 1675646.50000000 
0.08600    46311272.00000000 29150572.00000000 73482048.00000000 23710.93945312  2072902.12500000 1643681.87500000 
0.08700    45536724.00000000 28668962.00000000 72261000.00000000 23211.66601562  2033445.50000000 1612566.62500000 
0.08800    44784176.00000000 28201536.00000000 71074744.00000000 22723.88085938  1995025.25000000 1582263.12500000 
0.08900    44053372.00000000 27747652.00000000 69923064.00000000 22247.09179688  1957587.75000000 1552706.87500000 
0.09000    43343096.00000000 27307102.00000000 68803808.00000000 21780.52539062  1921047.37500000 1523891.50000000 
0.09100    42652504.00000000 26878904.00000000 67716480.00000000 21323.76562500  1885372.12500000 1495766.62500000 
0.09200    41981620.00000000 26462722.00000000 66659288.00000000 20876.30859375  1850527.12500000 1468282.62500000 
0.09300    41328204.00000000 26058444.00000000 65631272.00000000 20437.33984375  1816431.75000000 1441412.62500000 
0.09400    40692508.00000000 25664822.00000000 64630188.00000000 20006.58203125  1783094.62500000 1415117.75000000 
0.09500    40073420.00000000 25282048.00000000 63656384.00000000 19583.57226562  1750436.62500000 1389386.75000000 
0.09600    39470028.00000000 24909142.00000000 62707904.00000000 19168.07031250  1718436.37500000 1364149.62500000 
0.09700    38881520.00000000 24545780.00000000 61783252.00000000 18759.40039062  1687034.75000000 1339409.00000000 
0.09800    38307592.00000000 24191622.00000000 60881048.00000000 18357.42968750  1656211.50000000 1315110.87500000 
0.09900    37747044.00000000 23845960.00000000 60000856.00000000 17961.74414062  1625948.00000000 1291253.62500000 
0.10000    37199232.00000000 23508566.00000000 59140552.00000000 17572.33789062  1596179.12500000 1267800.50000000 
0.10100    36664064.00000000 23178846.00000000 58299912.00000000 17188.50000000  1566898.87500000 1244702.00000000 
0.10200    36139672.00000000 22856528.00000000 57477812.00000000 16810.48632812  1538055.12500000 1221985.00000000 
0.10300    35626732.00000000 22541062.00000000 56672724.00000000 16437.77148438  1509657.75000000 1199589.50000000 
0.10400    35123568.00000000 22232048.00000000 55884004.00000000 16070.44042969  1481649.00000000 1177506.75000000 
0.10500    34630308.00000000 21929080.00000000 55110284.00000000 15708.37597656  1454043.50000000 1155736.12500000 
0.10600    34145816.00000000 21631858.00000000 54351732.00000000 15351.36523438  1426771.62500000 1134234.00000000 
0.10700    33670072.00000000 21340228.00000000 53606220.00000000 14999.52929688  1399863.25000000 1113006.25000000 
0.10800    33202450.00000000 21053638.00000000 52873608.00000000 14652.68945312  1373284.25000000 1092041.12500000 
0.10900    32742320.00000000 20771660.00000000 52152984.00000000 14310.83203125  1347021.00000000 1071310.00000000 
0.11000    32289222.00000000 20494010.00000000 51443596.00000000 13973.89648438  1321053.37500000 1050815.12500000 
0.11100    31843056.00000000 20220718.00000000 50744764.00000000 13642.12207031  1295387.75000000 1030540.50000000 
0.11200    31402900.00000000 19951316.00000000 50055632.00000000 13315.39160156  1270014.75000000 1010489.12500000 
0.11300    30968580.00000000 19685584.00000000 49375932.00000000 12993.74804688  1244912.25000000 990660.25000000 
0.11400    30540076.00000000 19423342.00000000 48705272.00000000 12677.29785156  1220082.12500000 971035.81250000 
0.11500    30116900.00000000 19164256.00000000 48042888.00000000 12366.15820312  1195529.37500000 951620.25000000 
0.11600    29698706.00000000 18908298.00000000 47387996.00000000 12060.26367188  1171247.25000000 932406.31250000 
0.11700    29285034.00000000 18655150.00000000 46740672.00000000 11759.80078125  1147237.87500000 913399.31250000 
0.11800    28876068.00000000 18404588.00000000 46100320.00000000 11464.83886719  1123488.25000000 894588.87500000 
0.11900    28471306.00000000 18156700.00000000 45466536.00000000 11175.39648438  1100005.25000000 875987.81250000 
0.12000    28070596.00000000 17911164.00000000 44838712.00000000 10891.66503906  1076790.87500000 857584.43750000 
0.12100    27673988.00000000 17668122.00000000 44217176.00000000 10613.64160156  1053845.62500000 839395.37500000 
0.12200    27281056.00000000 17427186.00000000 43601280.00000000 10341.41601562  1031181.75000000 821413.37500000 
0.12300    26891902.00000000 17188462.00000000 42991000.00000000 10075.12890625  1008795.12500000 803642.00000000 
0.12400    26506184.00000000 16951492.00000000 42386696.00000000 9814.69824219   986695.18750000 786078.12500000 
0.12500    26123968.00000000 16716681.00000000 41786708.00000000 9560.34179688   964874.75000000 768742.81250000 
0.12600    25745170.00000000 16483795.00000000 41192496.00000000 9312.10449219   943354.00000000 751629.81250000 
0.12700    25369592.00000000 16252687.00000000 40603092.00000000 9069.90722656   922126.50000000 734736.81250000 
0.12800    24997544.00000000 16023495.00000000 40018644.00000000 8833.91406250   901200.25000000 718077.50000000 
0.12900    24628526.00000000 15795939.00000000 39438692.00000000 8603.87890625   880586.62500000 701656.25000000 
0.13000    24262854.00000000 15570419.00000000 38863984.00000000 8380.12207031   860279.18750000 685473.50000000 
0.13100    23900668.00000000 15346487.00000000 38294104.00000000 8162.55810547   840289.87500000 669532.62500000 
0.13200    23541220.00000000 15124328.00000000 37728588.00000000 7950.98583984   820624.25000000 653838.43750000 
0.13300    23185262.00000000 14904047.00000000 37168332.00000000 7745.67578125   801287.18750000 638398.06250000 
0.13400    22832682.00000000 14685431.00000000 36612584.00000000 7546.35986328   782277.75000000 623211.81250000 
0.13500    22483238.00000000 14468595.00000000 36061752.00000000 7352.99462891   763597.62500000 608283.68750000 
0.13600    22137082.00000000 14253618.00000000 35515984.00000000 7165.55126953   745262.18750000 593619.62500000 
0.13700    21794420.00000000 14040478.00000000 34975088.00000000 6983.98583984   727265.75000000 579211.81250000 
0.13800    21454910.00000000 13829125.00000000 34439100.00000000 6808.13330078   709604.31250000 565073.93750000 
0.13900    21118992.00000000 13619644.00000000 33908140.00000000 6637.92333984   692297.43750000 551204.62500000 
0.14000    20786356.00000000 13412116.00000000 33382548.00000000 6473.22119141   675332.06250000 537606.75000000 
0.14100    20457576.00000000 13206418.00000000 32862232.00000000 6313.90625000   658708.25000000 524279.31250000 
0.14200    20132020.00000000 13002628.00000000 32346756.00000000 6159.85595703   642436.31250000 511221.93750000 
0.14300    19810130.00000000 12800954.00000000 31836892.00000000 6010.88916016   626510.31250000 498435.31250000 
0.14400    19491586.00000000 12601195.00000000 31332310.00000000 5866.84082031   610923.68750000 485921.46875000 
0.14500    19177064.00000000 12403462.00000000 30833244.00000000 5727.59082031   595688.75000000 473676.71875000 
0.14600    18866102.00000000 12207869.00000000 30339644.00000000 5592.92724609   580793.06250000 461702.68750000 
0.14700    18558916.00000000 12014358.00000000 29851704.00000000 5462.73144531   566230.25000000 449999.40625000 
0.14800    18255196.00000000 11822809.00000000 29369492.00000000 5336.77490234   552006.37500000 438557.65625000 
0.14900    17955450.00000000 11633565.00000000 28892802.00000000 5214.81933594   538114.75000000 427379.28125000 
0.15000    17659502.00000000 11446455.00000000 28421832.00000000 5096.77978516   524547.06250000 416461.37500000 
0.15100    17367258.00000000 11261362.00000000 27956762.00000000 4982.42871094   511303.25000000 405801.46875000 
0.15200    17078956.00000000 11078622.00000000 27497544.00000000 4871.61621094   498379.34375000 395395.71875000 
0.15300    16794538.00000000 10898144.00000000 27044012.00000000 4764.12353516   485766.56250000 385240.12500000 
0.15400    16513841.00000000 10719793.00000000 26596548.00000000 4659.68066406   473460.81250000 375327.00000000 
0.15500    16237084.00000000 10543723.00000000 26154898.00000000 4558.24267578   461449.56250000 365657.34375000 
0.15600    15964011.00000000 10369804.00000000 25718892.00000000 4459.56152344   449732.75000000 356222.62500000 
0.15700    15694880.00000000 10198237.00000000 25289090.00000000 4363.44482422   438304.31250000 347019.65625000 
0.15800    15429521.00000000 10028945.00000000 24864730.00000000 4269.76416016   427154.71875000 338039.28125000 
0.15900    15167954.00000000 9861832.00000000 24446844.00000000 4178.36718750   416273.46875000 329279.71875000 
0.16000    14910157.00000000 9696918.00000000 24034378.00000000 4089.01245117   405660.46875000 320737.00000000 
0.16100    14656263.00000000 9534426.00000000 23628040.00000000 4001.70703125   395307.40625000 312403.50000000 
0.16200    14406106.00000000 9374083.00000000 23227336.00000000 3916.13989258   385198.71875000 304272.93750000 
0.16300    14159545.00000000 9216069.00000000 22832414.00000000 3832.23339844   375331.37500000 296338.34375000 
0.16400    13916684.00000000 9060212.00000000 22443362.00000000 3749.89965820   365702.12500000 288598.37500000 
0.16500    13677548.00000000 8906603.00000000 22059964.00000000 3668.97167969   356301.25000000 281039.53125000 
0.16600    13442037.00000000 8755189.00000000 21682172.00000000 3589.42456055   347119.15625000 273667.68750000 
0.16700    13209985.00000000 8605986.00000000 21310064.00000000 3511.03027344   338145.46875000 266464.81250000 
0.16800    12981432.00000000 8458837.00000000 20943246.00000000 3433.78588867   329377.71875000 259431.17187500 
0.16900    12756513.00000000 8313983.50000000 20582194.00000000 3357.61767578   320808.21875000 252564.62500000 
0.17000    12534832.00000000 8171139.00000000 20226692.00000000 3282.40966797   312433.15625000 245853.26562500 
