# SAXS profile: number of points = 501, q_min = 0, q_max = 0.5, delta_q = 0.001
#    q    intensity 
0.00000    162233120.00000000 101201920.00000000 256270672.00000000 108399.35937500 8387263.00000000 6624266.50000000 
0.00100    162194576.00000000 101176736.00000000 256205712.00000000 108362.37500000 8384778.00000000 6622312.50000000 
0.00200    162077760.00000000 101100792.00000000 256013600.00000000 108253.25000000 8377290.50000000 6616404.50000000 
0.00300    161878208.00000000 100974272.00000000 255693120.00000000 108070.52343750 8364811.50000000 6606597.00000000 
0.00400    161591712.00000000 100798032.00000000 255243328.00000000 107815.50781250 8347422.00000000 6592895.50000000 
0.00500    161221328.00000000 100571688.00000000 254666880.00000000 107489.24218750 8325068.50000000 6575284.50000000 
0.00600    160775120.00000000 100294160.00000000 253965136.00000000 107090.94531250 8297902.50000000 6553888.00000000 
0.00700    160243520.00000000 99970528.00000000 253139600.00000000 106622.95312500 8265893.00000000 6528676.00000000 
0.00800    159637600.00000000 99597784.00000000 252190560.00000000 106086.47656250 8229178.50000000 6499783.50000000 
0.00900    158957312.00000000 99177880.00000000 251119312.00000000 105482.64843750 8187795.50000000 6467257.00000000 
0.01000    158202272.00000000 98710904.00000000 249928544.00000000 104812.44531250 8141797.00000000 6431076.00000000 
0.01100    157373360.00000000 98196904.00000000 248621488.00000000 104076.86718750 8091397.00000000 6391388.00000000 
0.01200    156465648.00000000 97638464.00000000 247199872.00000000 103279.50781250 8036624.00000000 6348272.50000000 
0.01300    155487872.00000000 97035080.00000000 245666128.00000000 102420.60937500 7977586.50000000 6301822.50000000 
0.01400    154443744.00000000 96389520.00000000 244023456.00000000 101503.08593750 7914432.50000000 6252098.00000000 
0.01500    153331920.00000000 95702680.00000000 242274656.00000000 100528.45312500 7847311.00000000 6199270.50000000 
0.01600    152153088.00000000 94974800.00000000 240422864.00000000 99500.27343750  7776275.50000000 6143411.50000000 
0.01700    150910000.00000000 94207232.00000000 238468208.00000000 98418.30468750  7701595.50000000 6084597.50000000 
0.01800    149608416.00000000 93402720.00000000 236420656.00000000 97288.03906250  7623371.00000000 6022996.00000000 
0.01900    148246272.00000000 92561048.00000000 234279056.00000000 96110.46875000  7541751.50000000 5958729.50000000 
0.02000    146828368.00000000 91684160.00000000 232048688.00000000 94887.81250000  7456896.50000000 5891888.50000000 
0.02100    145355360.00000000 90774440.00000000 229733984.00000000 93623.74218750  7368965.50000000 5822702.00000000 
0.02200    143830528.00000000 89832064.00000000 227337600.00000000 92320.83593750  7278179.50000000 5751183.50000000 
0.02300    142257664.00000000 88859224.00000000 224862880.00000000 90980.64062500  7184634.00000000 5677566.00000000 
0.02400    140638864.00000000 87858536.00000000 222316928.00000000 89607.84375000  7088604.00000000 5601940.00000000 
0.02500    138977184.00000000 86829200.00000000 219701648.00000000 88204.04687500  6990230.50000000 5524416.00000000 
0.02600    137273840.00000000 85775432.00000000 217022704.00000000 86772.96875000  6889682.00000000 5445215.00000000 
0.02700    135531664.00000000 84697640.00000000 214284240.00000000 85316.78125000  6787174.00000000 5364505.00000000 
0.02800    133756304.00000000 83598424.00000000 211487264.00000000 83838.71093750  6682883.50000000 5282274.00000000 
0.02900    131947704.00000000 82479088.00000000 208641088.00000000 82342.39843750  6576973.00000000 5198831.50000000 
0.03000    130110096.00000000 81340424.00000000 205747904.00000000 80829.47656250  6469615.00000000 5114262.00000000 
0.03100    128244824.00000000 80185264.00000000 202812912.00000000 79302.70312500  6361078.00000000 5028728.50000000 
0.03200    126356648.00000000 79015488.00000000 199840752.00000000 77766.10156250  6251479.00000000 4942358.50000000 
0.03300    124447832.00000000 77832128.00000000 196835088.00000000 76222.59375000  6141031.00000000 4855323.50000000 
0.03400    122520256.00000000 76638360.00000000 193800336.00000000 74672.53906250  6029901.00000000 4767755.00000000 
0.03500    120577968.00000000 75434192.00000000 190741920.00000000 73122.01562500  5918228.50000000 4679750.00000000 
0.03600    118622632.00000000 74221376.00000000 187660576.00000000 71570.93750000  5806284.50000000 4591514.50000000 
0.03700    116657424.00000000 73002736.00000000 184565712.00000000 70022.09375000  5694115.00000000 4503064.50000000 
0.03800    114685728.00000000 71778328.00000000 181457840.00000000 68479.22656250  5582020.50000000 4414694.50000000 
0.03900    112708976.00000000 70551000.00000000 178343552.00000000 66943.88281250  5470081.50000000 4326368.00000000 
0.04000    110730016.00000000 69322256.00000000 175224448.00000000 65417.44140625  5358449.50000000 4238309.00000000 
0.04100    108752744.00000000 68093936.00000000 172107344.00000000 63903.15625000  5247273.00000000 4150635.75000000 
0.04200    106776944.00000000 66866636.00000000 168994656.00000000 62403.31250000  5136690.00000000 4063433.75000000 
0.04300    104807632.00000000 65642764.00000000 165889088.00000000 60919.00781250  5026930.00000000 3976812.50000000 
0.04400    102846576.00000000 64423344.00000000 162795632.00000000 59452.19140625  4918034.50000000 3890879.25000000 
0.04500    100894488.00000000 63209476.00000000 159715712.00000000 58005.16796875  4810100.00000000 3805770.00000000 
0.04600    98954992.00000000 62002592.00000000 156656624.00000000 56578.59765625  4703376.50000000 3721511.50000000 
0.04700    97028696.00000000 60804068.00000000 153616784.00000000 55174.54296875  4597859.50000000 3638263.00000000 
0.04800    95118048.00000000 59615592.00000000 150602992.00000000 53793.82812500  4493734.50000000 3556045.00000000 
0.04900    93226224.00000000 58437552.00000000 147619200.00000000 52438.64843750  4391025.00000000 3474985.25000000 
0.05000    91354056.00000000 57271704.00000000 144662000.00000000 51109.04687500  4289847.00000000 3395115.75000000 
0.05100    89502808.00000000 56118440.00000000 141739760.00000000 49806.70703125  4190319.50000000 3316519.75000000 
0.05200    87674120.00000000 54979064.00000000 138853024.00000000 48531.73437500  4092494.00000000 3239278.50000000 
0.05300    85869616.00000000 53854744.00000000 136004656.00000000 47286.07421875  3996433.25000000 3163400.50000000 
0.05400    84091264.00000000 52745948.00000000 133197680.00000000 46068.62500000  3902207.00000000 3089001.75000000 
0.05500    82340096.00000000 51653716.00000000 130431280.00000000 44881.48828125  3809830.50000000 3016042.75000000 
0.05600    80616664.00000000 50578704.00000000 127709328.00000000 43724.28906250  3719434.50000000 2944628.75000000 
0.05700    78923080.00000000 49522152.00000000 125032392.00000000 42597.21484375  3631009.75000000 2874764.00000000 
0.05800    77258952.00000000 48483556.00000000 122404432.00000000 41500.83203125  3544561.00000000 2806476.50000000 
0.05900    75625480.00000000 47464276.00000000 119823936.00000000 40435.24609375  3460192.50000000 2739799.75000000 
0.06000    74024784.00000000 46464524.00000000 117292952.00000000 39399.82421875  3377841.75000000 2674739.00000000 
0.06100    72455856.00000000 45484692.00000000 114813808.00000000 38395.14453125  3297566.75000000 2611288.50000000 
0.06200    70920032.00000000 44525656.00000000 112386088.00000000 37420.58984375  3219369.50000000 2549499.50000000 
0.06300    69418160.00000000 43587028.00000000 110011384.00000000 36475.87500000  3143262.50000000 2489348.75000000 
0.06400    67949168.00000000 42669204.00000000 107689616.00000000 35560.55859375  3069221.00000000 2430830.75000000 
0.06500    66514652.00000000 41773068.00000000 105421680.00000000 34674.73828125  2997233.25000000 2373927.00000000 
0.06600    65114320.00000000 40897972.00000000 103207976.00000000 33817.28125000  2927307.25000000 2318653.00000000 
0.06700    63748560.00000000 40044028.00000000 101048568.00000000 32988.45312500  2859389.25000000 2264980.75000000 
0.06800    62417640.00000000 39212156.00000000 98943864.00000000 32186.38281250  2793513.50000000 2212892.00000000 
0.06900    61120940.00000000 38401624.00000000 96893544.00000000 31411.41210938  2729595.75000000 2162365.75000000 
0.07000    59858344.00000000 37612468.00000000 94896944.00000000 30662.73632812  2667607.50000000 2113378.75000000 
0.07100    58629916.00000000 36844752.00000000 92954320.00000000 29939.14843750  2607559.75000000 2065899.12500000 
0.07200    57435744.00000000 36098048.00000000 91066216.00000000 29240.26562500  2549391.50000000 2019916.50000000 
0.07300    56274836.00000000 35372504.00000000 89231208.00000000 28565.02148438  2493043.50000000 1975370.12500000 
0.07400    55147188.00000000 34668108.00000000 87448040.00000000 27912.73828125  2438471.25000000 1932238.25000000 
0.07500    54052740.00000000 33983856.00000000 85717128.00000000 27282.33789062  2385641.25000000 1890486.25000000 
0.07600    52989860.00000000 33320286.00000000 84036624.00000000 26673.10546875  2334502.00000000 1850064.87500000 
0.07700    51959152.00000000 32676514.00000000 82408008.00000000 26084.32617188  2285001.50000000 1810948.50000000 
0.07800    50959708.00000000 32052286.00000000 80828168.00000000 25514.90234375  2237091.25000000 1773093.75000000 
0.07900    49990640.00000000 31447404.00000000 79296928.00000000 24964.04101562  2190697.25000000 1736445.62500000 
0.08000    49051212.00000000 30861410.00000000 77812840.00000000 24430.92578125  2145817.75000000 1700982.00000000 
0.08100    48141452.00000000 30293798.00000000 76375384.00000000 23914.58593750  2102336.75000000 1666629.75000000 
0.08200    47259652.00000000 29744368.00000000 74983328.00000000 23414.26367188  2060229.75000000 1633359.37500000 
0.08300    46406096.00000000 29212434.00000000 73635584.00000000 22929.18945312  2019438.62500000 1601157.25000000 
0.08400    45579256.00000000 28697272.00000000 72329672.00000000 22458.18554688  1979901.75000000 1569921.37500000 
0.08500    44778908.00000000 28199096.00000000 71066712.00000000 22000.90625000  1941575.50000000 1539654.62500000 
0.08600    44003024.00000000 27717008.00000000 69843928.00000000 21556.30859375  1904394.12500000 1510294.75000000 
0.08700    43253060.00000000 27250324.00000000 68660232.00000000 21123.91210938  1868279.87500000 1481813.25000000 
0.08800    42526164.00000000 26798888.00000000 67514256.00000000 20702.79882812  1833235.87500000 1454147.00000000 
0.08900    41821920.00000000 26362024.00000000 66405144.00000000 20292.34179688  1799179.75000000 1427272.12500000 
0.09000    41140256.00000000 25939182.00000000 65331040.00000000 19891.99609375  1766079.50000000 1401146.87500000 
0.09100    40479312.00000000 25530026.00000000 64290872.00000000 19501.14062500  1733845.00000000 1375712.87500000 
0.09200    39839088.00000000 25133494.00000000 63283092.00000000 19119.04296875  1702459.37500000 1350959.62500000 
0.09300    39218836.00000000 24749714.00000000 62307372.00000000 18745.38476562  1671874.12500000 1326836.50000000 
0.09400    38616828.00000000 24377984.00000000 61360940.00000000 18379.43164062  1642054.62500000 1303289.87500000 
0.09500    38033208.00000000 24017458.00000000 60443304.00000000 18020.86328125  1612918.62500000 1280332.87500000 
0.09600    37466568.00000000 23668358.00000000 59553280.00000000 17669.24023438  1584469.62500000 1257891.12500000 
0.09700    36916336.00000000 23329312.00000000 58689352.00000000 17324.25781250  1556654.50000000 1235964.37500000 
0.09800    36382144.00000000 23000350.00000000 57850644.00000000 16985.31640625  1529431.75000000 1214495.12500000 
0.09900    35862344.00000000 22681022.00000000 57035164.00000000 16652.43164062  1502771.25000000 1193468.87500000 
0.10000    35357120.00000000 22370442.00000000 56242996.00000000 16324.81250000  1476642.75000000 1172857.87500000 
0.10100    34865032.00000000 22068776.00000000 55471696.00000000 16002.65722656  1451000.00000000 1152644.00000000 
0.10200    34385708.00000000 21774904.00000000 54720976.00000000 15685.66210938  1425834.62500000 1132792.12500000 
0.10300    33918420.00000000 21488678.00000000 53989572.00000000 15373.21972656  1401114.37500000 1113289.00000000 
0.10400    33463102.00000000 21209806.00000000 53276108.00000000 15065.59570312  1376803.37500000 1094116.50000000 
0.10500    33018048.00000000 20937642.00000000 52579992.00000000 14762.45507812  1352885.62500000 1075261.37500000 
0.10600    32583270.00000000 20672152.00000000 51900088.00000000 14463.62988281  1329349.87500000 1056680.25000000 
0.10700    32158278.00000000 20412406.00000000 51235180.00000000 14169.21093750  1306167.37500000 1038378.87500000 
0.10800    31742102.00000000 20158582.00000000 50585032.00000000 13878.92871094  1283317.50000000 1020350.06250000 
0.10900    31334482.00000000 19910104.00000000 49948000.00000000 13592.70312500  1260794.12500000 1002557.75000000 
0.11000    30934898.00000000 19666598.00000000 49324052.00000000 13310.57714844  1238574.50000000 985016.18750000 
0.11100    30543160.00000000 19427644.00000000 48711616.00000000 13032.50976562  1216654.50000000 967690.75000000 
0.11200    30158278.00000000 19193352.00000000 48110624.00000000 12758.38671875  1194999.25000000 950591.81250000 
0.11300    29779712.00000000 18963008.00000000 47519640.00000000 12488.24414062  1173636.87500000 933700.68750000 
0.11400    29407736.00000000 18736384.00000000 46938588.00000000 12222.08007812  1152539.75000000 917018.56250000 
0.11500    29041486.00000000 18513442.00000000 46366808.00000000 11960.00781250  1131689.25000000 900528.12500000 
0.11600    28680718.00000000 18293798.00000000 45803604.00000000 11701.91113281  1111100.12500000 884237.75000000 
0.11700    28325464.00000000 18077148.00000000 45248028.00000000 11447.76855469  1090754.50000000 868131.25000000 
0.11800    27974448.00000000 17863386.00000000 44699992.00000000 11197.64062500  1070638.87500000 852205.50000000 
0.11900    27628192.00000000 17652346.00000000 44158964.00000000 10951.57421875  1050771.62500000 836470.75000000 
0.12000    27285786.00000000 17443604.00000000 43623988.00000000 10709.57128906  1031129.25000000 820917.25000000 
0.12100    26947782.00000000 17237374.00000000 43095588.00000000 10471.78222656  1011735.62500000 805536.00000000 
0.12200    26613354.00000000 17033080.00000000 42572504.00000000 10238.06250000  992572.87500000 790333.81250000 
0.12300    26282610.00000000 16830968.00000000 42055212.00000000 10008.41894531  973635.25000000 775309.75000000 
0.12400    25954756.00000000 16630407.00000000 41541884.00000000 9782.95898438   954929.12500000 760467.56250000 
0.12500    25630156.00000000 16431749.00000000 41033552.00000000 9561.56152344   936456.56250000 745789.43750000 
0.12600    25308758.00000000 16234721.00000000 40529904.00000000 9344.42480469   918209.50000000 731298.68750000 
0.12700    24989756.00000000 16039035.00000000 40030004.00000000 9131.37207031   900202.56250000 716988.75000000 
0.12800    24673554.00000000 15844866.00000000 39534068.00000000 8922.48632812   882419.56250000 702851.87500000 
0.12900    24359996.00000000 15651865.00000000 39042024.00000000 8717.84082031   864883.68750000 688898.37500000 
0.13000    24048740.00000000 15460262.00000000 38553124.00000000 8517.19238281   847569.56250000 675121.81250000 
0.13100    23739810.00000000 15269709.00000000 38067632.00000000 8320.68750000   830492.68750000 661528.75000000 
0.13200    23432946.00000000 15080294.00000000 37585396.00000000 8128.24267578   813644.37500000 648113.62500000 
0.13300    23128196.00000000 14891970.00000000 37105824.00000000 7939.78857422   797034.62500000 634893.12500000 
0.13400    22825566.00000000 14704653.00000000 36629660.00000000 7755.32910156   780670.00000000 621844.12500000 
0.13500    22525030.00000000 14518196.00000000 36156140.00000000 7574.78076172   764530.37500000 608982.50000000 
0.13600    22226296.00000000 14332821.00000000 35684704.00000000 7398.08056641   748637.18750000 596310.43750000 
0.13700    21929778.00000000 14148324.00000000 35216960.00000000 7225.21191406   732977.62500000 583823.50000000 
0.13800    21634872.00000000 13964678.00000000 34751368.00000000 7056.10937500   717560.81250000 571521.00000000 
0.13900    21341674.00000000 13781920.00000000 34288520.00000000 6890.65332031   702379.00000000 559405.56250000 
0.14000    21050782.00000000 13600096.00000000 33828104.00000000 6728.86230469   687426.12500000 547481.62500000 
0.14100    20761134.00000000 13419254.00000000 33370358.00000000 6570.57519531   672723.93750000 535735.93750000 
0.14200    20473654.00000000 13238986.00000000 32915204.00000000 6415.70361328   658255.43750000 524176.37500000 
0.14300    20187980.00000000 13059801.00000000 32462418.00000000 6264.14892578   644017.87500000 512810.87500000 
0.14400    19903950.00000000 12881424.00000000 32012166.00000000 6115.90136719   630007.75000000 501626.78125000 
0.14500    19621938.00000000 12704003.00000000 31564734.00000000 5970.86181641   616243.87500000 490624.53125000 
0.14600    19341670.00000000 12527517.00000000 31119820.00000000 5828.93408203   602709.43750000 479809.56250000 
0.14700    19063400.00000000 12351922.00000000 30677820.00000000 5690.06054688   589402.31250000 469179.37500000 
0.14800    18786854.00000000 12177224.00000000 30237998.00000000 5554.09228516   576325.37500000 458722.21875000 
0.14900    18512200.00000000 12003651.00000000 29801178.00000000 5420.91357422   563469.37500000 448448.25000000 
0.15000    18239314.00000000 11830846.00000000 29367136.00000000 5290.58300781   550839.37500000 438356.12500000 
0.15100    17968566.00000000 11659228.00000000 28935898.00000000 5162.86767578   538428.18750000 428437.03125000 
0.15200    17699832.00000000 11488578.00000000 28507510.00000000 5037.87841797   526240.06250000 418695.37500000 
0.15300    17433066.00000000 11319084.00000000 28082266.00000000 4915.35498047   514274.03125000 409123.75000000 
0.15400    17168272.00000000 11150578.00000000 27659902.00000000 4795.28320312   502506.56250000 399724.34375000 
0.15500    16905408.00000000 10983217.00000000 27240218.00000000 4677.61718750   490965.18750000 390496.06250000 
0.15600    16645026.00000000 10817111.00000000 26824238.00000000 4562.33105469   479622.87500000 381429.25000000 
0.15700    16386561.00000000 10652066.00000000 26411182.00000000 4449.32763672   468490.21875000 372532.93750000 
0.15800    16130196.00000000 10488324.00000000 26001330.00000000 4338.43896484   457557.43750000 363797.87500000 
0.15900    15876093.00000000 10325820.00000000 25594902.00000000 4229.83496094   446829.21875000 355225.75000000 
0.16000    15624037.00000000 10164530.00000000 25191808.00000000 4123.30224609   436294.00000000 346806.62500000 
0.16100    15374438.00000000 10004653.00000000 24792310.00000000 4018.89208984   425959.28125000 338546.62500000 
0.16200    15127046.00000000 9846066.00000000 24396172.00000000 3916.54565430   415811.34375000 330439.18750000 
0.16300    14882043.00000000 9688845.00000000 24003526.00000000 3816.17431641   405853.18750000 322486.15625000 
0.16400    14639295.00000000 9532906.00000000 23614666.00000000 3717.83007812   396082.96875000 314681.62500000 
0.16500    14399034.00000000 9378600.00000000 23229624.00000000 3621.42114258   386497.00000000 307025.34375000 
0.16600    14161147.00000000 9225597.00000000 22848020.00000000 3526.98828125   377092.50000000 299512.15625000 
0.16700    13925796.00000000 9074169.00000000 22470536.00000000 3434.43676758   367862.78125000 292143.15625000 
0.16800    13692916.00000000 8924183.00000000 22096710.00000000 3343.81152344   358810.09375000 284912.90625000 
0.16900    13462489.00000000 8775751.00000000 21727032.00000000 3255.12109375   349934.06250000 277823.56250000 
0.17000    13234774.00000000 8628923.00000000 21361324.00000000 3168.32641602   341227.75000000 270872.25000000 
