# SAXS profile: number of points = 501, q_min = 0, q_max = 0.5, delta_q = 0.001
#    q    intensity 
0.00000    162236176.00000000 101201480.00000000 256271664.00000000 114200.60937500 8608806.00000000 6799212.00000000 
0.00100    162205488.00000000 101181536.00000000 256220400.00000000 114171.53125000 8606823.00000000 6797641.50000000 
0.00200    162109104.00000000 101121272.00000000 256066976.00000000 114083.69531250 8600856.00000000 6792905.50000000 
0.00300    161948848.00000000 101020616.00000000 255811792.00000000 113936.95312500 8590862.00000000 6785107.50000000 
0.00400    161722608.00000000 100880344.00000000 255454320.00000000 113731.08593750 8577021.00000000 6774156.50000000 
0.00500    161429856.00000000 100699736.00000000 254995632.00000000 113468.07031250 8559176.00000000 6760117.00000000 
0.00600    161073504.00000000 100479928.00000000 254436720.00000000 113147.36718750 8537418.00000000 6743003.50000000 
0.00700    160653808.00000000 100219928.00000000 253775984.00000000 112769.76562500 8511787.00000000 6722805.00000000 
0.00800    160171728.00000000 99921728.00000000 253018576.00000000 112334.94531250 8482293.00000000 6699601.00000000 
0.00900    159623856.00000000 99585320.00000000 252161584.00000000 111844.70312500 8449045.00000000 6673389.50000000 
0.01000    159017312.00000000 99210152.00000000 251207696.00000000 111299.33593750 8412023.00000000 6644219.00000000 
0.01100    158350064.00000000 98797728.00000000 250157888.00000000 110699.33593750 8371322.50000000 6612166.00000000 
0.01200    157622976.00000000 98348040.00000000 249013584.00000000 110046.49218750 8326962.00000000 6577215.00000000 
0.01300    156837120.00000000 97861280.00000000 247776912.00000000 109341.33593750 8279008.00000000 6539463.50000000 
0.01400    155992336.00000000 97338696.00000000 246447216.00000000 108584.76562500 8227586.00000000 6498963.00000000 
0.01500    155089712.00000000 96780240.00000000 245027680.00000000 107778.28906250 8172666.00000000 6455732.00000000 
0.01600    154131376.00000000 96187856.00000000 243520576.00000000 106923.14062500 8114422.00000000 6409878.50000000 
0.01700    153119472.00000000 95561592.00000000 241926848.00000000 106020.28906250 8052904.00000000 6361393.00000000 
0.01800    152053072.00000000 94901912.00000000 240250320.00000000 105071.46093750 7988225.50000000 6310422.50000000 
0.01900    150935280.00000000 94210144.00000000 238490928.00000000 104078.31250000 7920401.50000000 6257009.00000000 
0.02000    149765760.00000000 93486536.00000000 236651856.00000000 103041.35156250 7849581.00000000 6201222.50000000 
0.02100    148546352.00000000 92732544.00000000 234733872.00000000 101962.99218750 7775862.50000000 6143164.00000000 
0.02200    147280848.00000000 91949504.00000000 232741920.00000000 100844.42187500 7699325.00000000 6082916.00000000 
0.02300    145968224.00000000 91137072.00000000 230676704.00000000 99687.60156250  7620054.00000000 6020443.50000000 
0.02400    144609616.00000000 90297144.00000000 228541200.00000000 98494.47656250  7538252.50000000 5955965.00000000 
0.02500    143210144.00000000 89430408.00000000 226338384.00000000 97266.20312500  7453926.50000000 5889581.00000000 
0.02600    141768640.00000000 88538232.00000000 224069952.00000000 96004.25000000  7367226.50000000 5821270.50000000 
0.02700    140286768.00000000 87621560.00000000 221738112.00000000 94711.43750000  7278279.00000000 5751177.00000000 
0.02800    138767088.00000000 86680784.00000000 219348176.00000000 93389.10156250  7187163.50000000 5679405.50000000 
0.02900    137212224.00000000 85717920.00000000 216900016.00000000 92038.88281250  7094053.50000000 5606053.00000000 
0.03000    135622416.00000000 84733872.00000000 214398976.00000000 90663.33593750  6999045.00000000 5531186.50000000 
0.03100    134000560.00000000 83729504.00000000 211845568.00000000 89263.34375000  6902236.00000000 5454921.50000000 
0.03200    132347904.00000000 82705408.00000000 209244672.00000000 87841.15625000  6803730.50000000 5377308.00000000 
0.03300    130666544.00000000 81664288.00000000 206598624.00000000 86399.64062500  6703754.50000000 5298530.00000000 
0.03400    128958552.00000000 80606264.00000000 203910096.00000000 84939.39843750  6602351.50000000 5218635.00000000 
0.03500    127225128.00000000 79533424.00000000 201181872.00000000 83463.45312500  6499626.50000000 5137714.50000000 
0.03600    125469624.00000000 78445352.00000000 198417120.00000000 81973.15625000  6395766.50000000 5055858.00000000 
0.03700    123692584.00000000 77344352.00000000 195619472.00000000 80470.09375000  6290864.00000000 4973157.00000000 
0.03800    121896016.00000000 76231224.00000000 192792368.00000000 78957.15625000  6185067.00000000 4889789.00000000 
0.03900    120083512.00000000 75107064.00000000 189936320.00000000 77434.98437500  6078430.00000000 4805746.50000000 
0.04000    118254928.00000000 73973984.00000000 187057520.00000000 75906.28906250  5971163.50000000 4721228.00000000 
0.04100    116412800.00000000 72832344.00000000 184156368.00000000 74373.16406250  5863340.50000000 4636250.50000000 
0.04200    114559904.00000000 71683872.00000000 181239024.00000000 72836.76562500  5755108.00000000 4550940.50000000 
0.04300    112697168.00000000 70528760.00000000 178305840.00000000 71298.93750000  5646554.00000000 4465350.00000000 
0.04400    110825896.00000000 69369168.00000000 175357952.00000000 69761.45312500  5537795.00000000 4379647.00000000 
0.04500    108949664.00000000 68205192.00000000 172402384.00000000 68226.35937500  5428991.00000000 4293858.50000000 
0.04600    107068808.00000000 67038472.00000000 169441104.00000000 66694.71093750  5320210.00000000 4208097.50000000 
0.04700    105186552.00000000 65870392.00000000 166475296.00000000 65168.74218750  5211585.50000000 4122434.50000000 
0.04800    103303856.00000000 64701760.00000000 163508000.00000000 63650.04296875  5103195.00000000 4036988.50000000 
0.04900    101422160.00000000 63534168.00000000 160543280.00000000 62140.01171875  4995201.50000000 3951822.50000000 
0.05000    99542664.00000000 62368096.00000000 157582848.00000000 60640.13281250  4887661.00000000 3867025.75000000 
0.05100    97668680.00000000 61204724.00000000 154629776.00000000 59151.88671875  4780656.50000000 3782654.75000000 
0.05200    95800560.00000000 60045052.00000000 151685760.00000000 57676.27734375  4674345.00000000 3698809.00000000 
0.05300    93940432.00000000 58889672.00000000 148755216.00000000 56215.11718750  4568769.50000000 3615559.50000000 
0.05400    92090528.00000000 57740668.00000000 145838400.00000000 54769.30468750  4464058.50000000 3532966.25000000 
0.05500    90251080.00000000 56598112.00000000 142938160.00000000 53340.55859375  4360293.50000000 3451105.00000000 
0.05600    88423656.00000000 55463124.00000000 140057744.00000000 51929.75000000  4257523.00000000 3370016.25000000 
0.05700    86610888.00000000 54336384.00000000 137199024.00000000 50537.96875000  4155843.00000000 3289839.75000000 
0.05800    84812088.00000000 53218760.00000000 134363168.00000000 49165.90625000  4055326.25000000 3210540.00000000 
0.05900    83030416.00000000 52111136.00000000 131554856.00000000 47814.98046875  3956069.00000000 3132222.25000000 
0.06000    81266600.00000000 51014424.00000000 128772736.00000000 46486.00781250  3858138.00000000 3054950.25000000 
0.06100    79521592.00000000 49929444.00000000 126021056.00000000 45179.87890625  3761542.75000000 2978727.25000000 
0.06200    77796880.00000000 48856696.00000000 123300216.00000000 43897.11328125  3666411.00000000 2903658.75000000 
0.06300    76092704.00000000 47797104.00000000 120612464.00000000 42638.55859375  3572783.00000000 2829748.50000000 
0.06400    74410984.00000000 46750640.00000000 117959472.00000000 41404.88281250  3480672.00000000 2757044.75000000 
0.06500    72752120.00000000 45718772.00000000 115343016.00000000 40196.65234375  3390169.25000000 2685602.00000000 
0.06600    71118336.00000000 44701688.00000000 112763480.00000000 39014.38671875  3301288.50000000 2615453.00000000 
0.06700    69508584.00000000 43699764.00000000 110224240.00000000 37858.47265625  3214090.00000000 2546605.00000000 
0.06800    67924600.00000000 42713968.00000000 107724264.00000000 36729.33984375  3128596.75000000 2479081.00000000 
0.06900    66367548.00000000 41744224.00000000 105267544.00000000 35627.17578125  3044866.25000000 2412977.00000000 
0.07000    64837572.00000000 40791404.00000000 102852240.00000000 34552.44140625  2962874.00000000 2348242.75000000 
0.07100    63335476.00000000 39855736.00000000 100480816.00000000 33505.33984375  2882710.50000000 2284920.25000000 
0.07200    61861248.00000000 38937456.00000000 98154128.00000000 32485.66601562  2804340.75000000 2223008.25000000 
0.07300    60415900.00000000 38037124.00000000 95872984.00000000 31493.83593750  2727804.00000000 2162552.50000000 
0.07400    59000336.00000000 37154820.00000000 93637048.00000000 30529.93164062  2653136.50000000 2103546.00000000 
0.07500    57614392.00000000 36290976.00000000 91448696.00000000 29593.59765625  2580288.75000000 2045994.50000000 
0.07600    56258336.00000000 35445340.00000000 89306400.00000000 28685.07812500  2509324.25000000 1989915.12500000 
0.07700    54932564.00000000 34618764.00000000 87213384.00000000 27804.14062500  2440214.75000000 1935294.12500000 
0.07800    53637208.00000000 33811136.00000000 85168088.00000000 26950.42382812  2372955.25000000 1882130.75000000 
0.07900    52372840.00000000 33022156.00000000 83169896.00000000 26123.91210938  2307556.00000000 1830432.25000000 
0.08000    51139064.00000000 32252748.00000000 81221528.00000000 25324.21289062  2244015.75000000 1780205.50000000 
0.08100    49936252.00000000 31502266.00000000 79321136.00000000 24551.21093750  2182299.00000000 1731405.00000000 
0.08200    48764640.00000000 30771102.00000000 77469600.00000000 23804.23632812  2122410.75000000 1684038.75000000 
0.08300    47623388.00000000 30058884.00000000 75666192.00000000 23083.21875000  2064320.00000000 1638100.37500000 
0.08400    46513172.00000000 29365980.00000000 73912032.00000000 22387.38867188  2008030.12500000 1593561.87500000 
0.08500    45433844.00000000 28692014.00000000 72206464.00000000 21716.66992188  1953498.62500000 1550428.87500000 
0.08600    44384616.00000000 28037172.00000000 70548696.00000000 21070.29687500  1900713.62500000 1508657.50000000 
0.08700    43366180.00000000 27401164.00000000 68938640.00000000 20447.91210938  1849641.75000000 1468244.25000000 
0.08800    42376976.00000000 26783742.00000000 67375160.00000000 19848.73437500  1800237.00000000 1429152.87500000 
0.08900    41418260.00000000 26184862.00000000 65860032.00000000 19272.59375000  1752507.12500000 1391366.37500000 
0.09000    40488444.00000000 25604224.00000000 64390776.00000000 18718.57617188  1706403.00000000 1354872.00000000 
0.09100    39588004.00000000 25041884.00000000 62967396.00000000 18186.15429688  1661887.12500000 1319622.00000000 
0.09200    38716248.00000000 24497344.00000000 61588652.00000000 17674.64257812  1618922.62500000 1285589.00000000 
0.09300    37872580.00000000 23970476.00000000 60255284.00000000 17183.63085938  1577486.37500000 1252765.00000000 
0.09400    37056540.00000000 23460696.00000000 58965156.00000000 16712.27343750  1537507.87500000 1221092.75000000 
0.09500    36267792.00000000 22968002.00000000 57718628.00000000 16259.98925781  1498985.75000000 1190572.37500000 
0.09600    35505912.00000000 22492182.00000000 56514108.00000000 15825.99707031  1461848.50000000 1161144.25000000 
0.09700    34770112.00000000 22032654.00000000 55350816.00000000 15409.70800781  1426079.62500000 1132787.00000000 
0.09800    34060128.00000000 21589266.00000000 54228464.00000000 15010.49511719  1391623.12500000 1105486.00000000 
0.09900    33374744.00000000 21161366.00000000 53145596.00000000 14627.63378906  1358449.37500000 1079180.25000000 
0.10000    32714322.00000000 20748898.00000000 52101428.00000000 14260.57910156  1326503.37500000 1053844.87500000 
0.10100    32077338.00000000 20351324.00000000 51094648.00000000 13908.42871094  1295736.25000000 1029447.75000000 
0.10200    31463448.00000000 19968180.00000000 50124748.00000000 13570.57031250  1266124.87500000 1005950.12500000 
0.10300    30872218.00000000 19599312.00000000 49190648.00000000 13246.61035156  1237608.75000000 983328.81250000 
0.10400    30303086.00000000 19244210.00000000 48291164.00000000 12935.42578125  1210145.37500000 961541.00000000 
0.10500    29755118.00000000 18902344.00000000 47425532.00000000 12636.98828125  1183706.87500000 940557.43750000 
0.10600    29227564.00000000 18573408.00000000 46592048.00000000 12350.05761719  1158229.25000000 920333.87500000 
0.10700    28719736.00000000 18256858.00000000 45789904.00000000 12074.32714844  1133695.37500000 900853.81250000 
0.10800    28231280.00000000 17952370.00000000 45018476.00000000 11809.21386719  1110036.12500000 882068.62500000 
0.10900    27761148.00000000 17659524.00000000 44276288.00000000 11554.01660156  1087227.62500000 863950.81250000 
0.11000    27308754.00000000 17377902.00000000 43562092.00000000 11308.29101562  1065211.00000000 846475.50000000 
0.11100    26873476.00000000 17107052.00000000 42874944.00000000 11071.34277344  1043975.06250000 829604.12500000 
0.11200    26454476.00000000 16846422.00000000 42214400.00000000 10842.72558594  1023458.43750000 813298.75000000 
0.11300    26051216.00000000 16595761.00000000 41578420.00000000 10621.88964844  1003628.31250000 797546.50000000 
0.11400    25663122.00000000 16354714.00000000 40966100.00000000 10408.40136719  984442.68750000 782305.18750000 
0.11500    25289400.00000000 16122485.00000000 40376940.00000000 10201.70312500  965873.68750000 767547.50000000 
0.11600    24929174.00000000 15899028.00000000 39809340.00000000 10001.30761719  947887.93750000 753249.87500000 
0.11700    24582068.00000000 15683894.00000000 39262336.00000000 9806.85351562   930440.68750000 739377.75000000 
0.11800    24247156.00000000 15476449.00000000 38735020.00000000 9617.91503906   913493.12500000 725911.87500000 
0.11900    23924256.00000000 15276482.00000000 38226372.00000000 9434.07421875   897039.93750000 712825.56250000 
0.12000    23612220.00000000 15083451.00000000 37735636.00000000 9254.89648438   881023.31250000 700094.50000000 
0.12100    23310784.00000000 14897082.00000000 37261456.00000000 9080.18750000   865426.75000000 687697.87500000 
0.12200    23019132.00000000 14717056.00000000 36802816.00000000 8909.45800781   850219.25000000 675606.87500000 
0.12300    22737038.00000000 14542819.00000000 36359272.00000000 8742.52636719   835380.43750000 663809.00000000 
0.12400    22463472.00000000 14374277.00000000 35929372.00000000 8579.00097656   820876.12500000 652278.87500000 
0.12500    22198074.00000000 14210739.00000000 35512468.00000000 8418.74902344   806683.50000000 640991.06250000 
0.12600    21940544.00000000 14052102.00000000 35108160.00000000 8261.40234375   792784.87500000 629945.12500000 
0.12700    21690052.00000000 13898065.00000000 34715052.00000000 8106.76074219   779156.68750000 619105.50000000 
0.12800    21446178.00000000 13748100.00000000 34332228.00000000 7954.66015625   765778.43750000 608466.93750000 
0.12900    21208408.00000000 13602173.00000000 33959476.00000000 7804.81347656   752624.81250000 598011.37500000 
0.13000    20976228.00000000 13459737.00000000 33595712.00000000 7657.22607422   739696.12500000 587729.18750000 
0.13100    20749526.00000000 13320681.00000000 33240344.00000000 7511.56250000   726955.50000000 577601.37500000 
0.13200    20527442.00000000 13184504.00000000 32892292.00000000 7367.79882812   714398.62500000 567621.18750000 
0.13300    20309862.00000000 13051173.00000000 32551694.00000000 7225.85253906   702010.00000000 557773.37500000 
0.13400    20096270.00000000 12920462.00000000 32217040.00000000 7085.49023438   689783.06250000 548053.68750000 
0.13500    19886336.00000000 12791905.00000000 31888336.00000000 6946.73046875   677698.93750000 538447.37500000 
0.13600    19679646.00000000 12665406.00000000 31564722.00000000 6809.47949219   665749.43750000 528949.00000000 
0.13700    19476002.00000000 12540743.00000000 31245752.00000000 6673.68457031   653932.18750000 519553.93750000 
0.13800    19274808.00000000 12417795.00000000 30931036.00000000 6539.28515625   642227.37500000 510248.06250000 
0.13900    19076192.00000000 12296205.00000000 30620172.00000000 6406.29248047   630632.93750000 501034.18750000 
0.14000    18879572.00000000 12175903.00000000 30312296.00000000 6274.63769531   619146.12500000 491905.21875000 
0.14100    18684834.00000000 12056731.00000000 30007512.00000000 6144.37988281   607762.81250000 482859.56250000 
0.14200    18491492.00000000 11938467.00000000 29704954.00000000 6015.38476562   596474.25000000 473885.53125000 
0.14300    18299682.00000000 11821113.00000000 29404638.00000000 5887.82714844   585277.81250000 464988.78125000 
0.14400    18108976.00000000 11704195.00000000 29105778.00000000 5761.55712891   574173.18750000 456162.59375000 
0.14500    17919344.00000000 11587933.00000000 28808636.00000000 5636.75195312   563157.87500000 447409.34375000 
0.14600    17730456.00000000 11472122.00000000 28512666.00000000 5513.35644531   552233.62500000 438725.46875000 
0.14700    17542278.00000000 11356617.00000000 28217712.00000000 5391.42480469   541397.37500000 430115.68750000 
0.14800    17354486.00000000 11241295.00000000 27923296.00000000 5270.99267578   530646.62500000 421568.37500000 
0.14900    17167156.00000000 11126111.00000000 27629416.00000000 5152.04687500   519983.31250000 413096.75000000 
0.15000    16980112.00000000 11011029.00000000 27335680.00000000 5034.73193359   509412.43750000 404691.96875000 
0.15100    16793350.00000000 10895954.00000000 27042382.00000000 4919.00097656   498935.71875000 396363.43750000 
0.15200    16606593.00000000 10780888.00000000 26749192.00000000 4805.01416016   488556.03125000 388113.37500000 
0.15300    16420072.00000000 10665607.00000000 26455690.00000000 4692.72607422   478270.50000000 379936.00000000 
0.15400    16233355.00000000 10550280.00000000 26161976.00000000 4582.16992188   468082.65625000 371834.90625000 
0.15500    16046749.00000000 10434724.00000000 25868204.00000000 4473.49902344   458001.46875000 363817.75000000 
0.15600    15859991.00000000 10318962.00000000 25574186.00000000 4366.68115234   448020.21875000 355881.31250000 
0.15700    15673237.00000000 10203058.00000000 25279842.00000000 4261.79394531   438155.06250000 348034.75000000 
0.15800    15486148.00000000 10086908.00000000 24984884.00000000 4158.83984375   428396.46875000 340273.50000000 
0.15900    15299108.00000000 9970469.00000000 24689820.00000000 4057.96020508   418760.71875000 332603.68750000 
0.16000    15111964.00000000 9853837.00000000 24394150.00000000 3959.05761719   409239.96875000 325030.03125000 
0.16100    14924824.00000000 9737081.00000000 24098444.00000000 3862.29956055   399850.56250000 317555.21875000 
0.16200    14737517.00000000 9620059.00000000 23802330.00000000 3767.67749023   390582.68750000 310182.53125000 
0.16300    14550266.00000000 9502865.00000000 23505998.00000000 3675.14672852   381445.68750000 302908.96875000 
0.16400    14362963.00000000 9385487.00000000 23209442.00000000 3584.83544922   372445.50000000 295742.53125000 
0.16500    14175846.00000000 9267871.00000000 22912686.00000000 3496.72070312   363583.37500000 288683.15625000 
0.16600    13988777.00000000 9150341.00000000 22616202.00000000 3410.81860352   354864.40625000 281738.25000000 
0.16700    13801785.00000000 9032583.00000000 22319460.00000000 3327.09936523   346283.21875000 274904.71875000 
0.16800    13615086.00000000 8914791.00000000 22022720.00000000 3245.66088867   337855.12500000 268185.53125000 
0.16900    13428744.00000000 8797030.00000000 21726444.00000000 3166.47680664   329575.40625000 261587.81250000 
0.17000    13242615.00000000 8679321.00000000 21430422.00000000 3089.51611328   321449.09375000 255107.39062500 
