# SAXS profile: number of points = 501, q_min = 0, q_max = 0.5, delta_q = 0.001
#    q    intensity 
0.00000    162239472.00000000 101201904.00000000 256272160.00000000 97412.28125000  7950875.00000000 6279586.50000000 
0.00100    162215856.00000000 101187152.00000000 256234832.00000000 97393.64062500  7949523.00000000 6278508.00000000 
0.00200    162144528.00000000 101143304.00000000 256121968.00000000 97336.82812500  7945434.50000000 6275321.50000000 
0.00300    162026048.00000000 101070352.00000000 255936432.00000000 97242.60937500  7938643.00000000 6270011.00000000 
0.00400    161859248.00000000 100967752.00000000 255675328.00000000 97110.88281250  7929128.00000000 6262544.50000000 
0.00500    161645264.00000000 100836656.00000000 255339520.00000000 96941.50781250  7916936.00000000 6252971.50000000 
0.00600    161383120.00000000 100676616.00000000 254930768.00000000 96735.14843750  7902052.50000000 6241303.00000000 
0.00700    161073824.00000000 100487568.00000000 254448240.00000000 96491.53906250  7884505.00000000 6227569.50000000 
0.00800    160718592.00000000 100269568.00000000 253891232.00000000 96211.29687500  7864274.50000000 6211709.00000000 
0.00900    160316752.00000000 100024112.00000000 253262224.00000000 95894.46093750  7841454.50000000 6193792.50000000 
0.01000    159868592.00000000 99749752.00000000 252562320.00000000 95541.75781250  7815992.50000000 6173842.50000000 
0.01100    159375856.00000000 99447016.00000000 251790240.00000000 95153.57812500  7787927.00000000 6151849.00000000 
0.01200    158837136.00000000 99117536.00000000 250947040.00000000 94729.62500000  7757323.00000000 6127868.00000000 
0.01300    158253472.00000000 98760272.00000000 250033248.00000000 94271.22656250  7724196.00000000 6101884.50000000 
0.01400    157627072.00000000 98375872.00000000 249051968.00000000 93778.62500000  7688573.50000000 6073965.50000000 
0.01500    156957152.00000000 97964848.00000000 248000480.00000000 93251.98437500  7650503.50000000 6044090.50000000 
0.01600    156242016.00000000 97526824.00000000 246882816.00000000 92692.02343750  7609990.50000000 6012314.00000000 
0.01700    155484528.00000000 97063056.00000000 245698112.00000000 92099.78906250  7567088.00000000 5978694.50000000 
0.01800    154686896.00000000 96573800.00000000 244447536.00000000 91475.29687500  7521839.50000000 5943237.00000000 
0.01900    153846848.00000000 96059000.00000000 243133696.00000000 90820.24218750  7474296.00000000 5905951.00000000 
0.02000    152967472.00000000 95519472.00000000 241754976.00000000 90134.32031250  7424518.50000000 5866905.50000000 
0.02100    152047520.00000000 94955728.00000000 240314640.00000000 89418.13281250  7372517.00000000 5826137.00000000 
0.02200    151089424.00000000 94367760.00000000 238814080.00000000 88673.17187500  7318358.00000000 5783687.00000000 
0.02300    150092928.00000000 93757352.00000000 237254272.00000000 87899.97656250  7262112.00000000 5739538.00000000 
0.02400    149059888.00000000 93123496.00000000 235635152.00000000 87099.17968750  7203783.00000000 5693816.50000000 
0.02500    147989392.00000000 92467392.00000000 233959136.00000000 86272.10937500  7143482.50000000 5646521.50000000 
0.02600    146884112.00000000 91789408.00000000 232228416.00000000 85418.55468750  7081237.50000000 5597682.50000000 
0.02700    145745680.00000000 91090496.00000000 230442352.00000000 84540.72656250  7017141.50000000 5547381.50000000 
0.02800    144572304.00000000 90370648.00000000 228605088.00000000 83638.66406250  6951186.00000000 5495683.00000000 
0.02900    143366688.00000000 89630736.00000000 226715248.00000000 82713.79687500  6883515.50000000 5442560.50000000 
0.03000    142129920.00000000 88871688.00000000 224778480.00000000 81766.83593750  6814132.50000000 5388115.50000000 
0.03100    140862224.00000000 88093992.00000000 222791856.00000000 80798.72656250  6743085.50000000 5332384.50000000 
0.03200    139565648.00000000 87297360.00000000 220759600.00000000 79810.33593750  6670524.50000000 5275403.50000000 
0.03300    138240080.00000000 86484496.00000000 218683296.00000000 78802.67968750  6596438.00000000 5217275.00000000 
0.03400    136887504.00000000 85653728.00000000 216562880.00000000 77777.25000000  6520917.50000000 5158001.50000000 
0.03500    135509264.00000000 84807344.00000000 214402384.00000000 76734.35156250  6444016.50000000 5097650.00000000 
0.03600    134105752.00000000 83944880.00000000 212201328.00000000 75675.37500000  6365805.50000000 5036260.00000000 
0.03700    132677280.00000000 83067680.00000000 209963232.00000000 74601.34375000  6286423.00000000 4973922.00000000 
0.03800    131226960.00000000 82176528.00000000 207689248.00000000 73513.18750000  6205853.00000000 4910657.00000000 
0.03900    129755280.00000000 81271584.00000000 205381008.00000000 72412.42187500  6124183.00000000 4846532.00000000 
0.04000    128262000.00000000 80353976.00000000 203040672.00000000 71299.17968750  6041490.00000000 4781624.00000000 
0.04100    126750176.00000000 79424688.00000000 200669232.00000000 70175.10937500  5957859.00000000 4715912.00000000 
0.04200    125220176.00000000 78484000.00000000 198269872.00000000 69041.43750000  5873361.00000000 4649552.50000000 
0.04300    123672776.00000000 77532120.00000000 195841840.00000000 67898.29687500  5788052.50000000 4582526.00000000 
0.04400    122109816.00000000 76570560.00000000 193390800.00000000 66747.88281250  5702010.00000000 4514932.50000000 
0.04500    120532208.00000000 75600120.00000000 190915888.00000000 65590.46093750  5615273.50000000 4446788.50000000 
0.04600    118940704.00000000 74620880.00000000 188418688.00000000 64427.28125000  5527962.00000000 4378188.50000000 
0.04700    117337160.00000000 73633584.00000000 185902176.00000000 63259.53515625  5440134.50000000 4309165.50000000 
0.04800    115722128.00000000 72639360.00000000 183368000.00000000 62087.80078125  5351860.00000000 4239773.50000000 
0.04900    114097176.00000000 71638864.00000000 180818048.00000000 60913.55078125  5263176.00000000 4170065.00000000 
0.05000    112464352.00000000 70633304.00000000 178253936.00000000 59737.51171875  5174170.50000000 4100104.00000000 
0.05100    110822664.00000000 69622424.00000000 175677792.00000000 58560.59765625  5084983.50000000 4029941.50000000 
0.05200    109174768.00000000 68607056.00000000 173090848.00000000 57383.93750000  4995558.50000000 3959625.50000000 
0.05300    107521808.00000000 67587928.00000000 170493952.00000000 56208.51171875  4906024.50000000 3889223.25000000 
0.05400    105863824.00000000 66565940.00000000 167891776.00000000 55034.87500000  4816490.50000000 3818768.75000000 
0.05500    104203360.00000000 65541892.00000000 165283168.00000000 53864.32031250  4726924.00000000 3748311.75000000 
0.05600    102541208.00000000 64516324.00000000 162671088.00000000 52697.56250000  4637451.00000000 3677915.00000000 
0.05700    100877248.00000000 63489880.00000000 160058656.00000000 51535.67968750  4548126.50000000 3607613.50000000 
0.05800    99214248.00000000 62463336.00000000 157443968.00000000 50379.32031250  4458992.00000000 3537478.50000000 
0.05900    97552152.00000000 61437140.00000000 154832640.00000000 49229.23046875  4370140.00000000 3467527.50000000 
0.06000    95891728.00000000 60412120.00000000 152222416.00000000 48086.42578125  4281625.00000000 3397830.75000000 
0.06100    94234960.00000000 59388784.00000000 149619056.00000000 46951.55468750  4193488.50000000 3328427.25000000 
0.06200    92582888.00000000 58367416.00000000 147021072.00000000 45825.75781250  4105797.50000000 3259344.50000000 
0.06300    90935280.00000000 57349368.00000000 144430288.00000000 44709.28515625  4018598.00000000 3190661.25000000 
0.06400    89294272.00000000 56334708.00000000 141848096.00000000 43602.67578125  3931935.50000000 3122388.00000000 
0.06500    87660120.00000000 55323936.00000000 139278800.00000000 42507.29687500  3845881.75000000 3054568.00000000 
0.06600    86034376.00000000 54318204.00000000 136721136.00000000 41423.19140625  3760488.75000000 2987252.50000000 
0.06700    84417536.00000000 53317608.00000000 134176512.00000000 40351.32031250  3675776.75000000 2920499.50000000 
0.06800    82810416.00000000 52322408.00000000 131647216.00000000 39292.25781250  3591828.50000000 2854280.00000000 
0.06900    81213752.00000000 51333780.00000000 129135016.00000000 38246.45703125  3508660.50000000 2788716.75000000 
0.07000    79628976.00000000 50351936.00000000 126639544.00000000 37214.57031250  3426335.25000000 2723765.00000000 
0.07100    78056608.00000000 49377200.00000000 124163384.00000000 36196.97265625  3344884.00000000 2659515.25000000 
0.07200    76496856.00000000 48410176.00000000 121707104.00000000 35194.14453125  3264356.75000000 2595954.50000000 
0.07300    74951168.00000000 47451524.00000000 119272000.00000000 34206.70703125  3184773.00000000 2533153.25000000 
0.07400    73419768.00000000 46501280.00000000 116859192.00000000 33234.97265625  3106183.50000000 2471098.25000000 
0.07500    71903560.00000000 45560176.00000000 114470176.00000000 32279.42187500  3028637.25000000 2409857.00000000 
0.07600    70403136.00000000 44628440.00000000 112105456.00000000 31340.19531250  2952141.50000000 2349438.75000000 
0.07700    68919720.00000000 43706532.00000000 109766136.00000000 30417.99609375  2876727.00000000 2289867.00000000 
0.07800    67452776.00000000 42795020.00000000 107453232.00000000 29512.79687500  2802429.50000000 2231153.50000000 
0.07900    66003776.00000000 41893988.00000000 105167576.00000000 28624.88671875  2729283.00000000 2173331.25000000 
0.08000    64573336.00000000 41003904.00000000 102910952.00000000 27754.79492188  2657297.50000000 2116423.00000000 
0.08100    63161112.00000000 40125076.00000000 100682856.00000000 26902.61132812  2586523.25000000 2060444.50000000 
0.08200    61768236.00000000 39257816.00000000 98483976.00000000 26068.29882812  2516935.25000000 2005414.75000000 
0.08300    60395016.00000000 38402296.00000000 96316424.00000000 25252.33203125  2448593.00000000 1951331.75000000 
0.08400    59041800.00000000 37558968.00000000 94179336.00000000 24454.74023438  2381494.50000000 1898227.62500000 
0.08500    57709188.00000000 36727896.00000000 92074240.00000000 23675.53515625  2315673.00000000 1846110.25000000 
0.08600    56397272.00000000 35909488.00000000 90001488.00000000 22914.99023438  2251124.75000000 1794997.25000000 
0.08700    55106412.00000000 35103612.00000000 87961960.00000000 22172.89062500  2187864.00000000 1744891.25000000 
0.08800    53837032.00000000 34311044.00000000 85955584.00000000 21449.42773438  2125888.25000000 1695792.12500000 
0.08900    52589580.00000000 33531532.00000000 83983424.00000000 20744.70507812  2065249.00000000 1647728.25000000 
0.09000    51363916.00000000 32765382.00000000 82045016.00000000 20058.56250000  2005911.87500000 1600688.00000000 
0.09100    50160520.00000000 32012508.00000000 80141288.00000000 19390.94921875  1947907.12500000 1554666.50000000 
0.09200    48979684.00000000 31273274.00000000 78272504.00000000 18741.84179688  1891215.12500000 1509691.37500000 
0.09300    47821232.00000000 30548004.00000000 76438672.00000000 18111.11132812  1835852.12500000 1465759.12500000 
0.09400    46685328.00000000 29836194.00000000 74640472.00000000 17498.56445312  1781811.50000000 1422858.75000000 
0.09500    45572428.00000000 29138442.00000000 72877368.00000000 16904.35351562  1729095.37500000 1380983.25000000 
0.09600    44482272.00000000 28454528.00000000 71150376.00000000 16328.09375000  1677695.25000000 1340145.37500000 
0.09700    43415064.00000000 27784522.00000000 69459640.00000000 15769.71582031  1627611.25000000 1300353.87500000 
0.09800    42370884.00000000 27128600.00000000 67803816.00000000 15228.85449219  1578841.12500000 1261579.37500000 
0.09900    41349964.00000000 26486806.00000000 66184516.00000000 14705.59667969  1531377.25000000 1223829.87500000 
0.10000    40351480.00000000 25858818.00000000 64600712.00000000 14199.53125000  1485202.75000000 1187091.75000000 
0.10100    39376128.00000000 25244884.00000000 63052584.00000000 13710.35546875  1440304.37500000 1151360.75000000 
0.10200    38423624.00000000 24644978.00000000 61540952.00000000 13237.83593750  1396686.00000000 1116629.25000000 
0.10300    37493812.00000000 24058892.00000000 60064452.00000000 12781.79785156  1354319.12500000 1082876.37500000 
0.10400    36586512.00000000 23486724.00000000 58623308.00000000 12341.94824219  1313208.25000000 1050111.25000000 
0.10500    35702076.00000000 22928330.00000000 57217472.00000000 11918.11132812  1273324.62500000 1018315.75000000 
0.10600    34839388.00000000 22383560.00000000 55846476.00000000 11509.59765625  1234641.37500000 987475.06250000 
0.10700    33999324.00000000 21852492.00000000 54510028.00000000 11116.34082031  1197173.87500000 957573.37500000 
0.10800    33181058.00000000 21334992.00000000 53208508.00000000 10738.03710938  1160878.50000000 928606.37500000 
0.10900    32384670.00000000 20830782.00000000 51941000.00000000 10374.37402344  1125747.50000000 900550.43750000 
0.11000    31609636.00000000 20339696.00000000 50707068.00000000 10024.72070312  1091763.75000000 873396.56250000 
0.11100    30855864.00000000 19861830.00000000 49506672.00000000 9689.17675781   1058895.62500000 847124.06250000 
0.11200    30123422.00000000 19396978.00000000 48339196.00000000 9367.02734375   1027126.56250000 821716.68750000 
0.11300    29411522.00000000 18944832.00000000 47204264.00000000 9058.04394531   996434.93750000 797161.75000000 
0.11400    28720322.00000000 18505330.00000000 46101888.00000000 8761.92285156   966809.12500000 773452.68750000 
0.11500    28048852.00000000 18078270.00000000 45030864.00000000 8478.09375000   938216.25000000 750550.75000000 
0.11600    27397524.00000000 17663558.00000000 43991004.00000000 8206.38476562   910629.68750000 728452.25000000 
0.11700    26765614.00000000 17260862.00000000 42982364.00000000 7946.38330078   884040.56250000 707131.06250000 
0.11800    26152818.00000000 16870030.00000000 42003012.00000000 7697.56591797   858404.37500000 686573.93750000 
0.11900    25558778.00000000 16490781.00000000 41053764.00000000 7459.67773438   833709.18750000 666759.25000000 
0.12000    24983206.00000000 16122972.00000000 40133376.00000000 7232.31250000   809929.68750000 647662.75000000 
0.12100    24425704.00000000 15766526.00000000 39241756.00000000 7015.11914062   787046.12500000 629281.06250000 
0.12200    23886068.00000000 15420993.00000000 38377768.00000000 6807.74169922   765017.37500000 611580.62500000 
0.12300    23363510.00000000 15086204.00000000 37541408.00000000 6609.77490234   743833.62500000 594544.81250000 
0.12400    22857986.00000000 14762077.00000000 36731564.00000000 6420.83251953   723460.87500000 578155.81250000 
0.12500    22368958.00000000 14448044.00000000 35947700.00000000 6240.47363281   703876.00000000 562391.62500000 
0.12600    21896154.00000000 14144295.00000000 35189528.00000000 6068.57275391   685055.25000000 547239.37500000 
0.12700    21439026.00000000 13850212.00000000 34455952.00000000 5904.56738281   666974.50000000 532665.25000000 
0.12800    20997168.00000000 13565626.00000000 33746688.00000000 5748.14648438   649606.31250000 518659.56250000 
0.12900    20570330.00000000 13290513.00000000 33061040.00000000 5599.00390625   632918.00000000 505204.31250000 
0.13000    20157784.00000000 13024516.00000000 32398310.00000000 5456.76123047   616899.56250000 492279.31250000 
0.13100    19759186.00000000 12767202.00000000 31757634.00000000 5321.09863281   601511.43750000 479856.18750000 
0.13200    19374362.00000000 12518482.00000000 31138746.00000000 5191.71142578   586739.93750000 467922.46875000 
0.13300    19002810.00000000 12278148.00000000 30540826.00000000 5068.28271484   572558.50000000 456462.50000000 
0.13400    18643946.00000000 12045763.00000000 29963230.00000000 4950.45361328   558939.25000000 445453.53125000 
0.13500    18297386.00000000 11821212.00000000 29405380.00000000 4837.98095703   545862.81250000 434875.40625000 
0.13600    17962914.00000000 11604270.00000000 28866268.00000000 4730.52490234   533298.81250000 424712.81250000 
0.13700    17639992.00000000 11394585.00000000 28345804.00000000 4627.80908203   521238.06250000 414947.28125000 
0.13800    17328184.00000000 11191990.00000000 27843032.00000000 4529.53906250   509638.09375000 405558.43750000 
0.13900    17027154.00000000 10996197.00000000 27357296.00000000 4435.54882812   498496.06250000 396532.62500000 
0.14000    16736476.00000000 10807021.00000000 26887998.00000000 4345.43408203   487780.53125000 387850.81250000 
0.14100    16455607.00000000 10624149.00000000 26434714.00000000 4259.02197266   477473.81250000 379496.78125000 
0.14200    16184395.00000000 10447302.00000000 25996692.00000000 4176.08203125   467552.96875000 371454.34375000 
0.14300    15922291.00000000 10276347.00000000 25573128.00000000 4096.38671875   457997.06250000 363708.93750000 
0.14400    15668875.00000000 10110987.00000000 25163610.00000000 4019.62304688   448787.50000000 356240.90625000 
0.14500    15423991.00000000 9951002.00000000 24767710.00000000 3945.71752930   439909.75000000 349041.34375000 
0.14600    15187159.00000000 9796211.00000000 24384582.00000000 3874.41308594   431342.31250000 342094.43750000 
0.14700    14957959.00000000 9646339.00000000 24013948.00000000 3805.52270508   423067.09375000 335387.15625000 
0.14800    14736055.00000000 9501214.00000000 23654820.00000000 3738.81567383   415062.34375000 328895.78125000 
0.14900    14521051.00000000 9360565.00000000 23307108.00000000 3674.15698242   407319.53125000 322617.09375000 
0.15000    14312745.00000000 9224175.00000000 22969818.00000000 3611.43334961   399819.43750000 316538.06250000 
0.15100    14110764.00000000 9091931.00000000 22642800.00000000 3550.40307617   392547.96875000 310642.03125000 
0.15200    13914762.00000000 8963578.00000000 22325494.00000000 3491.02124023   385486.93750000 304924.15625000 
0.15300    13724442.00000000 8838911.00000000 22017238.00000000 3433.05664062   378624.09375000 299366.75000000 
0.15400    13539317.00000000 8717716.00000000 21717890.00000000 3376.40698242   371946.81250000 293958.87500000 
0.15500    13359416.00000000 8599894.00000000 21426440.00000000 3321.01782227   365439.84375000 288694.75000000 
0.15600    13184203.00000000 8485157.00000000 21142842.00000000 3266.70239258   359092.68750000 283558.90625000 
0.15700    13013572.00000000 8373500.50000000 20866744.00000000 3213.43188477   352896.96875000 278550.21875000 
0.15800    12847072.00000000 8264473.00000000 20597190.00000000 3161.03881836   346833.25000000 273650.34375000 
0.15900    12684556.00000000 8158242.00000000 20334398.00000000 3109.50976562   340900.18750000 268859.59375000 
0.16000    12525784.00000000 8054398.50000000 20077588.00000000 3058.72851562   335077.18750000 264162.31250000 
0.16100    12370574.00000000 7952937.00000000 19826438.00000000 3008.66845703   329368.31250000 259558.14062500 
0.16200    12218531.00000000 7853671.00000000 19580718.00000000 2959.24584961   323755.09375000 255033.45312500 
0.16300    12069509.00000000 7756410.50000000 19339898.00000000 2910.35742188   318231.46875000 250586.23437500 
0.16400    11923300.00000000 7661119.00000000 19103914.00000000 2862.02124023   312792.62500000 246210.50000000 
0.16500    11779756.00000000 7567570.50000000 18871920.00000000 2814.16333008   307430.28125000 241897.10937500 
0.16600    11638606.00000000 7475697.00000000 18644344.00000000 2766.78857422   302136.96875000 237644.56250000 
0.16700    11499673.00000000 7385368.50000000 18420172.00000000 2719.81689453   296902.71875000 233442.42187500 
0.16800    11362808.00000000 7296418.50000000 18199488.00000000 2673.24877930   291728.62500000 229290.50000000 
0.16900    11227990.00000000 7208909.50000000 17982228.00000000 2627.08520508   286609.50000000 225185.54687500 
0.17000    11094814.00000000 7122573.00000000 17767722.00000000 2581.27050781   281537.62500000 221121.51562500 
