# SAXS profile: number of points = 501, q_min = 0, q_max = 0.5, delta_q = 0.001
#    q    intensity 
0.00000    162235744.00000000 101202040.00000000 256270688.00000000 109924.17187500 8446088.00000000 6670721.00000000 
0.00100    162194048.00000000 101174976.00000000 256202864.00000000 109888.85937500 8443582.00000000 6668701.00000000 
0.00200    162067392.00000000 101094416.00000000 255997888.00000000 109782.93750000 8436053.00000000 6662789.00000000 
0.00300    161852400.00000000 100959384.00000000 255657440.00000000 109607.89843750 8423502.00000000 6652935.00000000 
0.00400    161547584.00000000 100771192.00000000 255177648.00000000 109362.71093750 8406043.00000000 6639170.50000000 
0.00500    161156304.00000000 100529944.00000000 254563520.00000000 109047.78125000 8383635.00000000 6621536.50000000 
0.00600    160681600.00000000 100234840.00000000 253815184.00000000 108665.20312500 8356344.50000000 6600055.50000000 
0.00700    160117600.00000000 99888392.00000000 252936368.00000000 108214.72656250 8324243.50000000 6574714.00000000 
0.00800    159473200.00000000 99491848.00000000 251925744.00000000 107697.62500000 8287361.50000000 6545726.00000000 
0.00900    158749152.00000000 99044256.00000000 250785344.00000000 107115.32812500 8245853.00000000 6512964.00000000 
0.01000    157946144.00000000 98547224.00000000 249520144.00000000 106468.92187500 8199677.50000000 6476669.50000000 
0.01100    157064288.00000000 97999640.00000000 248129504.00000000 105759.67187500 8149054.50000000 6436796.50000000 
0.01200    156103744.00000000 97404864.00000000 246618144.00000000 104989.25000000 8094007.50000000 6393467.50000000 
0.01300    155065392.00000000 96763208.00000000 244986176.00000000 104159.97656250 8034733.50000000 6346743.50000000 
0.01400    153954432.00000000 96076056.00000000 243240192.00000000 103273.27343750 7971274.50000000 6296833.50000000 
0.01500    152775296.00000000 95345528.00000000 241382256.00000000 102330.43750000 7903780.50000000 6243648.50000000 
0.01600    151525232.00000000 94571352.00000000 239416048.00000000 101334.71093750 7832446.00000000 6187452.00000000 
0.01700    150208048.00000000 93756912.00000000 237343456.00000000 100287.27343750 7757347.50000000 6128333.50000000 
0.01800    148826752.00000000 92901672.00000000 235169552.00000000 99190.60156250  7678705.00000000 6066326.50000000 
0.01900    147383280.00000000 92008632.00000000 232899728.00000000 98046.43750000  7596575.00000000 6001633.50000000 
0.02000    145882464.00000000 91078712.00000000 230535840.00000000 96858.81250000  7511193.50000000 5934371.00000000 
0.02100    144323536.00000000 90113632.00000000 228083808.00000000 95629.33593750  7422728.50000000 5864659.50000000 
0.02200    142712880.00000000 89115408.00000000 225545680.00000000 94359.41406250  7331280.00000000 5792691.50000000 
0.02300    141050832.00000000 88085248.00000000 222928256.00000000 93053.87500000  7237137.00000000 5718453.00000000 
0.02400    139339760.00000000 87025568.00000000 220236480.00000000 91713.03125000  7140391.50000000 5642262.50000000 
0.02500    137585568.00000000 85938520.00000000 217474928.00000000 90341.21875000  7041281.50000000 5564146.00000000 
0.02600    135789728.00000000 84824808.00000000 214645568.00000000 88940.40625000  6939951.50000000 5484276.50000000 
0.02700    133954336.00000000 83687504.00000000 211755536.00000000 87513.09375000  6836605.00000000 5402819.00000000 
0.02800    132083912.00000000 82527520.00000000 208810528.00000000 86062.89062500  6731415.50000000 5319888.00000000 
0.02900    130180840.00000000 81347600.00000000 205813440.00000000 84591.41406250  6624586.00000000 5235706.00000000 
0.03000    128249640.00000000 80149904.00000000 202771424.00000000 83102.05468750  6516332.50000000 5150331.00000000 
0.03100    126291568.00000000 78934704.00000000 199687184.00000000 81597.80468750  6406746.50000000 5063992.00000000 
0.03200    124310952.00000000 77705664.00000000 196566704.00000000 80080.07031250  6296061.50000000 4976732.00000000 
0.03300    122309800.00000000 76464864.00000000 193414528.00000000 78552.89062500  6184552.50000000 4888804.00000000 
0.03400    120293496.00000000 75213312.00000000 190236640.00000000 77017.45312500  6072285.00000000 4800299.50000000 
0.03500    118262288.00000000 73953288.00000000 187036960.00000000 75477.37500000  5959489.50000000 4711353.00000000 
0.03600    116221416.00000000 72686000.00000000 183820816.00000000 73934.81250000  5846324.00000000 4622094.00000000 
0.03700    114172880.00000000 71414088.00000000 180590672.00000000 72392.50000000  5732959.00000000 4532694.00000000 
0.03800    112119936.00000000 70138600.00000000 177354656.00000000 70852.67968750  5619584.50000000 4443278.00000000 
0.03900    110064952.00000000 68861616.00000000 174114464.00000000 69316.95312500  5506385.00000000 4353968.00000000 
0.04000    108011488.00000000 67584824.00000000 170877296.00000000 67787.71875000  5393402.50000000 4264846.50000000 
0.04100    105961136.00000000 66311324.00000000 167646320.00000000 66267.18750000  5280975.50000000 4176107.25000000 
0.04200    103918672.00000000 65040868.00000000 164423008.00000000 64758.28906250  5169075.50000000 4087860.50000000 
0.04300    101884376.00000000 63776292.00000000 161215360.00000000 63261.70312500  5057959.50000000 4000176.25000000 
0.04400    99862192.00000000 62518700.00000000 158026256.00000000 61779.87500000  4947700.50000000 3913180.50000000 
0.04500    97855032.00000000 61269584.00000000 154858832.00000000 60314.23437500  4838529.50000000 3827009.25000000 
0.04600    95863632.00000000 60030488.00000000 151715888.00000000 58867.04687500  4730485.50000000 3741716.25000000 
0.04700    93890496.00000000 58802192.00000000 148603408.00000000 57439.42968750  4623655.50000000 3657394.25000000 
0.04800    91937880.00000000 57587236.00000000 145523008.00000000 56032.41406250  4518238.00000000 3574176.75000000 
0.04900    90008704.00000000 56385872.00000000 142478672.00000000 54647.61718750  4414279.50000000 3492113.75000000 
0.05000    88104296.00000000 55199592.00000000 139472192.00000000 53286.58593750  4311883.00000000 3411272.00000000 
0.05100    86226072.00000000 54029928.00000000 136507040.00000000 51950.03515625  4211148.00000000 3331744.25000000 
0.05200    84376192.00000000 52877240.00000000 133588144.00000000 50639.25781250  4112181.75000000 3253594.25000000 
0.05300    82555568.00000000 51742944.00000000 130714136.00000000 49354.84375000  4015006.25000000 3176876.50000000 
0.05400    80766440.00000000 50627508.00000000 127888368.00000000 48097.26953125  3919727.75000000 3101595.50000000 
0.05500    79009864.00000000 49532308.00000000 125114024.00000000 46867.82421875  3826383.00000000 3027875.25000000 
0.05600    77286200.00000000 48457852.00000000 122391752.00000000 45666.59375000  3735051.00000000 2955755.25000000 
0.05700    75597728.00000000 47405248.00000000 119725976.00000000 44494.77343750  3645744.75000000 2885182.50000000 
0.05800    73945176.00000000 46374444.00000000 117114696.00000000 43351.49609375  3558503.50000000 2816289.00000000 
0.05900    72328648.00000000 45366232.00000000 114562288.00000000 42237.96093750  3473382.75000000 2749035.00000000 
0.06000    70750040.00000000 44381028.00000000 112067928.00000000 41153.63281250  3390386.75000000 2683486.00000000 
0.06100    69208608.00000000 43419440.00000000 109632808.00000000 40099.39062500  3309545.75000000 2619597.75000000 
0.06200    67705984.00000000 42481876.00000000 107259128.00000000 39074.82031250  3230882.00000000 2557432.50000000 
0.06300    66241964.00000000 41567648.00000000 104945064.00000000 38079.16015625  3154339.75000000 2496961.75000000 
0.06400    64816836.00000000 40678392.00000000 102693944.00000000 37113.08593750  3079966.00000000 2438221.25000000 
0.06500    63431004.00000000 39813084.00000000 100503448.00000000 36175.87500000  3007770.75000000 2381169.00000000 
0.06600    62084504.00000000 38972492.00000000 98375608.00000000 35267.44921875  2937693.25000000 2325799.50000000 
0.06700    60777152.00000000 38156476.00000000 96309240.00000000 34387.07421875  2869746.00000000 2272093.50000000 
0.06800    59508848.00000000 37364368.00000000 94305264.00000000 33534.35937500  2803895.75000000 2220075.00000000 
0.06900    58279412.00000000 36596472.00000000 92362872.00000000 32709.56640625  2740120.00000000 2169678.75000000 
0.07000    57088036.00000000 35853772.00000000 90480320.00000000 31910.63476562  2678359.50000000 2120898.75000000 
0.07100    55935528.00000000 35133792.00000000 88659152.00000000 31138.07617188  2618593.25000000 2073688.37500000 
0.07200    54820152.00000000 34437940.00000000 86897248.00000000 30390.75781250  2560794.00000000 2028020.12500000 
0.07300    53742860.00000000 33765388.00000000 85194768.00000000 29667.97460938  2504921.50000000 1983890.25000000 
0.07400    52701480.00000000 33116334.00000000 83550256.00000000 28969.39648438  2450899.75000000 1941219.12500000 
0.07500    51695968.00000000 32489120.00000000 81961752.00000000 28293.42578125  2398696.50000000 1899996.62500000 
0.07600    50725376.00000000 31884160.00000000 80428840.00000000 27640.01953125  2348258.75000000 1860160.37500000 
0.07700    49789680.00000000 31300914.00000000 78951528.00000000 27008.11718750  2299513.25000000 1821689.37500000 
0.07800    48887304.00000000 30738434.00000000 77526808.00000000 26396.79882812  2252460.75000000 1784521.50000000 
0.07900    48017376.00000000 30196678.00000000 76153400.00000000 25805.27148438  2206959.75000000 1748620.25000000 
0.08000    47179476.00000000 29674968.00000000 74830944.00000000 25232.62890625  2162996.50000000 1713909.12500000 
0.08100    46372000.00000000 29172728.00000000 73556792.00000000 24678.22460938  2120499.25000000 1680401.50000000 
0.08200    45593988.00000000 28689078.00000000 72330736.00000000 24140.85546875  2079417.12500000 1647996.00000000 
0.08300    44844900.00000000 28223600.00000000 71149184.00000000 23620.10937500  2039700.50000000 1616664.00000000 
0.08400    44123556.00000000 27775712.00000000 70012216.00000000 23114.81640625  2001267.12500000 1586344.00000000 
0.08500    43428204.00000000 27344488.00000000 68917608.00000000 22624.50000000  1964033.62500000 1557004.37500000 
0.08600    42758912.00000000 26929524.00000000 67863272.00000000 22148.26953125  1927986.75000000 1528582.37500000 
0.08700    42113524.00000000 26530090.00000000 66847876.00000000 21684.95507812  1893029.12500000 1501049.37500000 
0.08800    41491512.00000000 26145400.00000000 65869632.00000000 21234.44140625  1859119.12500000 1474322.12500000 
0.08900    40891940.00000000 25774916.00000000 64926440.00000000 20795.46484375  1826194.25000000 1448391.50000000 
0.09000    40313244.00000000 25417614.00000000 64017176.00000000 20367.67578125  1794187.12500000 1423173.75000000 
0.09100    39754560.00000000 25073146.00000000 63139708.00000000 19950.42382812  1763061.37500000 1398669.75000000 
0.09200    39214596.00000000 24740718.00000000 62291976.00000000 19542.65039062  1732733.37500000 1374802.00000000 
0.09300    38692824.00000000 24419524.00000000 61473592.00000000 19144.03320312  1703179.75000000 1351544.25000000 
0.09400    38187628.00000000 24109284.00000000 60681468.00000000 18753.99804688  1674327.62500000 1328835.87500000 
0.09500    37698008.00000000 23809068.00000000 59914404.00000000 18372.07031250  1646134.50000000 1306659.50000000 
0.09600    37223264.00000000 23518032.00000000 59170868.00000000 17997.56640625  1618565.25000000 1284969.87500000 
0.09700    36762848.00000000 23235920.00000000 58450080.00000000 17630.34765625  1591574.00000000 1263734.87500000 
0.09800    36314548.00000000 22962168.00000000 57748656.00000000 17269.53320312  1565110.62500000 1242920.62500000 
0.09900    35878652.00000000 22695928.00000000 57067120.00000000 16914.92382812  1539122.25000000 1222472.25000000 
0.10000    35453224.00000000 22436578.00000000 56403124.00000000 16566.18359375  1513581.87500000 1202393.25000000 
0.10100    35038120.00000000 22183756.00000000 55754632.00000000 16223.04687500  1488466.75000000 1182647.25000000 
0.10200    34632328.00000000 21936926.00000000 55121156.00000000 15885.15625000  1463737.12500000 1163188.75000000 
0.10300    34235192.00000000 21695596.00000000 54501836.00000000 15551.97460938  1439342.12500000 1144016.37500000 
0.10400    33845612.00000000 21459056.00000000 53894516.00000000 15223.65234375  1415273.87500000 1125078.12500000 
0.10500    33463134.00000000 21227000.00000000 53298652.00000000 14899.89160156  1391519.50000000 1106383.12500000 
0.10600    33086812.00000000 20999032.00000000 52712284.00000000 14580.31933594  1368029.25000000 1087891.25000000 
0.10700    32716400.00000000 20774694.00000000 52135608.00000000 14264.94433594  1344786.50000000 1069600.75000000 
0.10800    32350942.00000000 20553314.00000000 51566508.00000000 13953.67382812  1321774.12500000 1051497.62500000 
0.10900    31990232.00000000 20334918.00000000 51004736.00000000 13646.40136719  1299001.25000000 1033549.00000000 
0.11000    31633450.00000000 20119092.00000000 50449464.00000000 13342.83886719  1276410.25000000 1015763.81250000 
0.11100    31280232.00000000 19905132.00000000 49899440.00000000 13043.31542969  1254014.62500000 998119.62500000 
0.11200    30929874.00000000 19693304.00000000 49354024.00000000 12747.45312500  1231808.25000000 980605.12500000 
0.11300    30582508.00000000 19483008.00000000 48813032.00000000 12455.38867188  1209773.50000000 963224.81250000 
0.11400    30237170.00000000 19274088.00000000 48275508.00000000 12167.11914062  1187898.25000000 945966.50000000 
0.11500    29893942.00000000 19066090.00000000 47740960.00000000 11882.75878906  1166185.25000000 928828.62500000 
0.11600    29552394.00000000 18859094.00000000 47208868.00000000 11602.22753906  1144629.00000000 911811.93750000 
0.11700    29212084.00000000 18652786.00000000 46678844.00000000 11325.60058594  1123230.75000000 894902.25000000 
0.11800    28872898.00000000 18447074.00000000 46149952.00000000 11052.83105469  1101973.00000000 878103.12500000 
0.11900    28534718.00000000 18241670.00000000 45622348.00000000 10784.07226562  1080885.62500000 861421.75000000 
0.12000    28197268.00000000 18036678.00000000 45095972.00000000 10519.41796875  1059948.50000000 844851.25000000 
0.12100    27860402.00000000 17831588.00000000 44570252.00000000 10258.89746094  1039170.62500000 828406.81250000 
0.12200    27523860.00000000 17626800.00000000 44044932.00000000 10002.46679688  1018557.18750000 812079.68750000 
0.12300    27188144.00000000 17422026.00000000 43520112.00000000 9750.51855469   998105.68750000 795870.68750000 
0.12400    26852508.00000000 17217332.00000000 42995196.00000000 9502.89062500   977833.18750000 779793.50000000 
0.12500    26517284.00000000 17012266.00000000 42470540.00000000 9259.65527344   957743.93750000 763849.50000000 
0.12600    26182456.00000000 16807328.00000000 41946460.00000000 9020.98437500   937835.06250000 748044.56250000 
0.12700    25847954.00000000 16602113.00000000 41421952.00000000 8786.90234375   918116.56250000 732379.75000000 
0.12800    25513462.00000000 16396871.00000000 40897668.00000000 8557.33691406   898594.62500000 716864.31250000 
0.12900    25179668.00000000 16191568.00000000 40373956.00000000 8332.59375000   879283.12500000 701503.68750000 
0.13000    24845968.00000000 15986260.00000000 39850052.00000000 8112.55029297   860184.06250000 686299.37500000 
0.13100    24512814.00000000 15780882.00000000 39326372.00000000 7897.32861328   841300.93750000 671264.25000000 
0.13200    24180332.00000000 15575513.00000000 38803888.00000000 7686.87255859   822646.93750000 656403.25000000 
0.13300    23848716.00000000 15370287.00000000 38281524.00000000 7481.40771484   804235.12500000 641719.81250000 
0.13400    23517618.00000000 15165171.00000000 37760100.00000000 7280.75732422   786062.31250000 627223.37500000 
0.13500    23187428.00000000 14960386.00000000 37239788.00000000 7085.03271484   768133.50000000 612914.25000000 
0.13600    22858028.00000000 14755628.00000000 36720600.00000000 6894.19531250   750456.18750000 598801.75000000 
0.13700    22530072.00000000 14551449.00000000 36202400.00000000 6708.27148438   733044.37500000 584890.93750000 
0.13800    22203172.00000000 14347602.00000000 35685776.00000000 6527.22705078   715907.12500000 571184.18750000 
0.13900    21877724.00000000 14144538.00000000 35171136.00000000 6351.04052734   699033.50000000 557682.50000000 
0.14000    21553628.00000000 13941848.00000000 34658672.00000000 6179.69824219   682439.87500000 544403.75000000 
0.14100    21231330.00000000 13739929.00000000 34148256.00000000 6013.16259766   666127.93750000 531343.12500000 
0.14200    20910714.00000000 13538863.00000000 33640144.00000000 5851.32031250   650094.18750000 518497.96875000 
0.14300    20592054.00000000 13338640.00000000 33134744.00000000 5694.22460938   634358.62500000 505888.59375000 
0.14400    20275378.00000000 13139277.00000000 32632170.00000000 5541.71533203   618907.43750000 493494.87500000 
0.14500    19961022.00000000 12941167.00000000 32132898.00000000 5393.70556641   603756.43750000 481336.56250000 
0.14600    19648680.00000000 12744222.00000000 31636652.00000000 5250.19287109   588887.18750000 469405.96875000 
0.14700    19339162.00000000 12548497.00000000 31144008.00000000 5111.09277344   574327.43750000 457715.28125000 
0.14800    19031884.00000000 12354078.00000000 30655096.00000000 4976.26220703   560060.93750000 446253.87500000 
0.14900    18727242.00000000 12161058.00000000 30169992.00000000 4845.59765625   546087.56250000 435025.56250000 
0.15000    18425378.00000000 11969565.00000000 29689166.00000000 4718.99658203   532408.12500000 424031.59375000 
0.15100    18126434.00000000 11779618.00000000 29212378.00000000 4596.42333984   519023.21875000 413270.12500000 
0.15200    17830534.00000000 11591265.00000000 28740116.00000000 4477.76757812   505941.40625000 402745.87500000 
0.15300    17537694.00000000 11404737.00000000 28272518.00000000 4362.80078125   493141.68750000 392448.50000000 
0.15400    17247966.00000000 11219813.00000000 27809430.00000000 4251.46533203   480631.59375000 382381.37500000 
0.15500    16961246.00000000 11036863.00000000 27351216.00000000 4143.75195312   468407.90625000 372542.59375000 
0.15600    16678205.00000000 10855769.00000000 26898168.00000000 4039.38793945   456464.15625000 362925.31250000 
0.15700    16398309.00000000 10676585.00000000 26450320.00000000 3938.35351562   444804.25000000 353539.12500000 
0.15800    16121635.00000000 10499336.00000000 26007264.00000000 3840.49145508   433412.59375000 344366.18750000 
0.15900    15848562.00000000 10324174.00000000 25569784.00000000 3745.73535156   422294.93750000 335412.46875000 
0.16000    15578914.00000000 10151042.00000000 25137472.00000000 3653.89233398   411443.43750000 326671.75000000 
0.16100    15312909.00000000 9980056.00000000 24710948.00000000 3564.94482422   400853.28125000 318141.78125000 
0.16200    15050361.00000000 9811147.00000000 24289788.00000000 3478.73461914   390518.75000000 309818.15625000 
0.16300    14791384.00000000 9644469.00000000 23874174.00000000 3395.14819336   380432.59375000 301698.12500000 
0.16400    14536058.00000000 9479859.00000000 23464250.00000000 3314.07250977   370597.50000000 293772.50000000 
0.16500    14284313.00000000 9317586.00000000 23059822.00000000 3235.45825195   360999.56250000 286046.37500000 
0.16600    14036284.00000000 9157445.00000000 22661244.00000000 3159.20800781   351638.56250000 278509.25000000 
0.16700    13791762.00000000 8999517.00000000 22268264.00000000 3085.14819336   342504.68750000 271156.96875000 
0.16800    13550828.00000000 8843745.00000000 21880770.00000000 3013.27001953   333594.90625000 263985.18750000 
0.16900    13313646.00000000 8690330.00000000 21499318.00000000 2943.46362305   324907.06250000 256992.26562500 
0.17000    13079889.00000000 8539169.00000000 21123476.00000000 2875.68798828   316425.90625000 250171.78125000 
